57,36,71,31
57,36,71,31
56,35,71,31
56,35,71,31
56,35,70,30
56,35,70,30
56,35,70,30
55,35,70,30
55,35,69,30
55,34,69,30
55,35,69,29
54,34,68,29
54,34,68,29
54,34,67,29
53,33,67,29
53,33,67,29
53,33,67,29
54,33,67,29
53,33,67,28
54,32,66,28
53,32,66,28
53,32,66,28
52,31,65,28
52,31,65,28
52,31,65,28
51,31,65,28
51,31,64,27
51,31,64,27
51,31,63,27
51,31,63,27
67,31,63,27
67,30,65,27
67,30,64,26
66,31,63,26
66,30,63,26
65,30,63,26
65,30,63,26
65,30,63,25
64,30,63,25
64,29,62,25
63,29,62,25
63,29,61,25
63,29,61,25
66,31,61,25
66,31,61,25
66,31,61,25
65,30,60,24
65,31,60,24
65,30,60,24
64,30,60,24
63,30,60,24
63,30,59,24
63,30,59,24
63,30,59,24
63,29,58,24
62,29,58,23
65,29,58,24
65,29,58,23
65,29,57,23
64,29,57,23
64,29,57,31
64,29,57,64
63,29,57,64
63,29,56,63
63,28,56,63
63,28,56,63
62,28,56,63
62,28,55,62
62,28,56,62
84,28,55,61
83,28,55,62
83,27,55,61
82,27,54,61
82,27,54,60
81,27,54,60
81,27,54,60
80,27,53,59
80,27,53,59
79,26,53,59
79,26,52,58
79,26,52,58
81,26,52,58
92,29,51,58
95,29,51,57
94,29,51,57
94,28,51,57
93,28,51,57
92,28,51,56
92,28,51,56
92,28,50,56
91,28,50,56
91,27,50,55
91,27,50,55
90,27,50,55
89,29,49,54
89,30,49,54
89,30,49,54
88,30,49,54
88,30,49,53
88,29,48,53
88,29,48,53
87,29,48,53
87,29,48,52
86,29,48,52
85,29,47,51
85,29,47,51
85,28,47,51
84,28,47,51
84,28,47,51
83,28,46,51
83,27,46,50
83,28,46,50
82,28,46,50
82,27,45,49
81,27,46,49
81,27,45,49
81,27,45,49
81,27,45,49
79,27,44,49
79,26,44,48
79,26,44,48
79,26,45,48
79,25,44,48
78,26,44,48
78,25,44,47
78,25,44,47
77,25,43,47
77,25,43,46
77,25,43,46
76,25,43,46
76,25,43,46
76,25,42,46
76,25,51,46
75,24,138,45
75,25,153,45
74,24,153,44
74,24,152,45
73,24,151,44
73,24,150,44
73,24,149,44
73,24,148,44
72,24,147,44
71,24,147,43
71,24,146,43
71,23,145,43
71,23,144,43
71,23,143,43
70,23,143,42
70,22,143,42
70,22,142,45
69,22,142,63
69,22,141,66
69,22,140,65
68,22,139,65
68,22,139,64
67,21,138,64
67,21,137,63
67,21,137,63
67,21,135,63
67,21,135,63
66,21,135,62
66,20,134,62
65,21,134,62
65,21,133,62
65,20,133,61
64,20,131,61
64,20,131,61
63,20,131,60
63,19,131,60
63,20,129,60
63,19,132,60
63,19,134,59
64,19,134,59
63,20,132,59
63,20,131,58
63,19,131,58
63,19,131,57
63,19,130,57
62,19,129,57
62,19,129,57
62,19,128,57
61,19,127,56
61,19,127,56
61,18,127,56
62,19,126,56
61,19,125,55
61,18,125,55
60,19,125,55
60,18,124,54
60,18,124,54
60,18,123,54
59,18,122,54
59,18,122,53
59,18,121,53
58,18,121,53
61,17,120,52
61,18,124,52
61,17,123,52
61,17,122,51
60,17,121,51
60,17,121,51
60,17,120,51
59,16,120,51
59,16,120,50
58,16,119,50
58,17,118,50
58,16,118,49
57,16,117,49
57,16,117,61
57,16,116,61
57,16,115,60
56,16,115,60
56,16,115,60
56,15,114,59
56,15,114,59
56,15,113,59
56,15,113,58
55,15,112,58
55,15,112,58
54,15,112,57
69,15,111,57
69,15,110,57
68,15,110,57
68,14,110,57
67,15,109,56
67,14,109,56
67,14,108,56
67,14,107,56
66,14,107,55
66,14,107,55
66,14,106,55
65,14,106,54
65,14,115,54
67,14,138,53
69,14,137,53
69,14,137,53
68,14,135,53
67,14,135,53
67,14,135,53
67,14,134,52
67,14,133,52
66,14,133,51
66,13,132,51
65,13,131,51
65,13,131,50
65,13,130,51
64,13,129,50
64,13,129,50
64,13,128,50
63,13,127,49
63,13,127,49
63,13,126,49
63,13,126,49
62,13,125,48
62,12,125,48
62,12,124,48
62,12,124,48
76,25,123,48
111,25,123,47
110,29,122,47
109,28,121,47
109,29,121,46
108,28,120,46
108,28,120,46
107,28,120,46
107,28,119,46
106,28,118,118
105,27,118,233
103,27,118,354
103,27,117,454
103,29,117,463
103,29,116,460
102,29,115,455
102,28,115,451
101,28,114,449
101,28,114,445
100,28,113,443
99,28,113,440
99,27,112,437
99,27,111,434
98,28,111,432
98,28,131,429
97,30,188,426
97,30,185,423
96,30,184,421
96,30,183,418
95,29,182,415
95,29,181,413
95,29,180,411
94,28,179,408
93,28,178,406
93,28,177,403
92,28,176,401
92,28,176,399
92,28,175,397
91,27,174,395
91,28,173,391
90,27,172,391
90,27,172,388
89,27,170,386
89,27,170,384
88,26,169,381
88,26,167,380
88,26,167,377
87,26,166,376
87,26,166,374
86,26,165,371
86,25,163,369
86,25,163,368
85,25,163,366
85,25,162,364
85,25,161,361
83,25,159,359
83,25,159,358
83,24,159,356
82,24,158,354
82,24,157,352
82,25,157,351
81,25,156,349
81,24,155,347
81,24,155,345
80,24,154,344
80,24,153,342
79,24,152,340
79,24,152,339
79,24,151,337
79,24,151,335
147,53,150,334
146,61,149,332
144,60,148,330
143,60,147,327
143,60,147,327
142,59,146,324
141,59,145,323
140,59,145,321
140,57,143,319
139,58,143,318
138,57,143,316
137,57,142,315
135,57,141,313
135,56,141,312
135,56,140,310
135,56,140,308
134,56,139,307
133,55,138,305
133,55,137,304
132,54,136,302
131,54,135,301
130,54,135,300
130,53,135,298
129,53,134,297
128,53,134,295
127,52,133,294
127,52,132,292
126,51,132,291
126,51,131,290
125,51,131,287
124,51,130,287
124,51,129,285
123,50,129,284
123,50,135,283
122,50,182,281
121,50,180,280
121,49,179,279
120,49,178,277
120,49,177,275
119,48,176,274
118,48,176,273
118,48,175,271
117,48,173,271
117,48,173,269
116,47,172,268
115,47,171,267
115,47,170,265
114,46,169,263
114,46,167,263
113,46,167,262
113,46,167,261
112,46,166,259
112,45,165,258
111,45,164,257
110,44,163,255
110,44,162,254
110,44,162,253
109,44,179,252
109,44,216,251
108,43,214,250
108,43,212,248
107,43,211,248
107,43,210,246
106,42,209,245
105,42,207,243
105,41,206,243
103,41,206,242
103,41,205,241
157,41,204,376
161,41,203,373
159,41,201,370
159,39,199,367
158,39,199,365
157,39,198,363
156,39,197,359
156,39,196,358
155,39,195,356
153,39,194,354
153,39,193,352
152,39,193,350
152,38,192,347
151,38,191,345
150,38,189,344
149,38,189,341
148,37,188,339
147,37,187,337
147,37,186,335
146,37,185,334
145,36,184,332
144,36,184,330
143,36,183,327
143,36,182,326
143,36,180,324
142,35,179,323
141,35,179,350
140,35,178,350
139,35,177,347
139,35,176,345
138,34,175,344
137,34,174,341
135,34,174,339
135,34,214,337
135,34,228,335
135,33,226,333
134,33,225,331
133,33,224,329
133,33,222,327
132,33,221,326
131,32,220,323
131,32,219,321
130,31,217,319
129,31,216,318
129,31,216,316
129,32,215,315
127,31,213,313
127,31,212,312
126,31,211,310
126,31,210,308
125,31,209,307
125,31,207,305
124,31,207,304
124,31,206,302
123,30,205,300
122,30,204,299
122,30,203,297
121,30,201,295
121,30,201,294
120,30,199,293
120,29,199,291
119,29,198,289
118,29,197,287
118,29,195,286
117,29,195,285
116,31,194,284
116,46,193,282
115,45,192,281
115,45,192,280
114,44,190,278
114,45,190,276
113,44,188,275
112,44,187,274
112,44,187,272
111,43,186,271
111,43,185,270
110,43,184,268
110,42,183,267
110,42,182,265
109,42,181,263
108,42,181,263
108,42,179,262
107,41,179,260
107,41,178,259
106,41,177,258
106,41,176,257
105,39,176,255
105,39,175,254
103,39,174,253
103,39,173,252
103,40,172,250
103,39,171,249
102,39,171,248
102,39,170,247
101,39,169,246
101,39,167,244
100,39,167,243
99,39,167,242
99,39,166,241
99,39,165,240
98,38,165,239
129,49,163,239
127,48,163,237
127,48,162,236
126,48,161,235
126,47,161,233
125,47,159,231
124,46,159,231
124,46,158,231
123,46,158,230
123,46,157,228
121,45,156,227
121,49,156,226
121,53,169,225
120,53,167,224
120,52,167,224
119,52,166,222
119,51,166,221
118,51,164,220
117,51,163,220
116,51,163,219
116,50,162,217
115,50,161,216
115,50,160,216
114,49,159,215
113,49,159,214
113,49,158,213
112,48,157,211
112,48,156,211
111,48,156,209
111,48,155,209
110,48,155,207
110,47,154,207
109,47,153,206
108,46,152,205
108,46,151,204
107,46,150,204
107,46,150,203
106,45,149,202
105,46,148,201
105,46,148,199
103,45,147,199
103,44,147,198
103,44,146,198
103,44,145,197
115,44,145,196
115,44,169,195
114,44,167,194
114,43,167,193
113,43,166,192
113,43,165,192
112,42,164,191
111,42,163,190
111,41,162,189
110,41,161,188
109,41,159,188
109,41,159,186
108,41,159,186
108,41,158,185
108,40,157,184
107,39,156,184
106,39,156,183
105,39,155,182
105,39,154,181
105,39,153,180
103,39,153,179
103,39,152,179
103,39,152,178
146,38,151,177
163,38,150,177
162,38,149,176
161,38,148,175
159,37,147,174
159,37,147,173
158,37,146,173
157,37,145,172
156,36,145,171
156,36,143,171
155,36,143,169
153,36,143,169
153,63,142,167
152,62,141,167
152,62,141,167
151,61,140,167
150,61,140,166
149,61,139,165
148,60,138,164
147,60,137,163
147,59,137,163
146,59,135,162
145,59,135,161
144,59,135,161
143,58,135,159
143,58,134,159
142,57,133,159
141,57,133,158
141,57,132,158
140,56,132,157
140,56,131,156
139,56,130,156
139,56,130,155
137,56,129,154
136,55,129,153
135,55,127,153
135,54,127,152
135,54,127,152
134,54,126,152
133,54,126,150
133,53,125,150
132,53,125,149
131,52,124,148
131,52,124,148
186,52,167,147
297,61,178,147
321,60,177,146
319,60,176,145
316,60,175,145
315,59,174,143
312,59,173,143
311,58,172,143
308,58,171,142
307,58,171,142
305,57,169,141
303,57,169,141
301,63,167,140
300,63,167,140
298,63,166,139
295,62,165,138
295,62,164,137
293,62,163,137
291,62,163,137
290,61,162,135
287,61,161,135
287,61,159,135
285,60,159,135
284,60,159,134
282,60,158,133
281,59,157,133
280,59,156,132
278,58,156,131
276,58,155,131
275,58,154,131
273,57,153,130
271,57,153,129
270,57,152,129
269,64,152,128
268,96,151,127
266,96,149,127
265,95,149,127
263,94,148,126
262,94,147,126
261,93,147,125
259,93,146,125
259,92,146,124
257,92,145,124
255,91,143,123
254,91,143,123
253,90,143,122
252,89,142,122
251,89,142,121
249,88,141,121
248,88,140,120
247,88,139,120
246,87,139,120
244,87,138,119
243,86,137,118
242,86,137,118
240,85,135,117
240,85,135,117
238,84,135,116
237,91,134,115
236,91,134,115
235,90,133,115
233,89,132,115
231,89,132,114
231,89,131,113
231,88,131,113
229,88,130,113
227,88,129,112
227,87,129,112
226,91,128,111
225,90,127,111
224,89,127,110
223,89,126,110
222,89,126,109
221,88,125,109
220,88,125,108
219,88,124,108
217,87,123,108
216,86,123,107
216,86,123,107
215,86,122,107
214,85,121,106
212,84,122,105
211,84,121,105
210,83,121,103
210,83,120,103
209,83,120,103
207,82,119,103
207,82,119,103
205,81,118,102
205,81,117,102
204,80,117,102
203,80,120,101
202,79,123,135
201,79,123,133
199,79,121,132
199,78,121,131
199,78,120,131
197,78,120,130
196,77,120,129
195,135,119,129
195,134,118,128
194,133,118,127
193,132,117,127
192,131,116,126
191,130,115,125
190,129,115,125
189,129,115,124
188,127,114,123
187,127,114,123
187,127,113,122
185,126,113,121
184,125,112,121
184,125,112,120
183,123,111,119
210,124,110,119
208,123,110,118
207,122,109,117
206,121,109,117
205,121,109,116
204,120,108,115
203,120,107,115
201,119,107,115
199,118,106,114
199,118,105,113
198,139,105,113
197,137,105,112
196,137,104,111
195,135,103,111
194,135,103,111
193,134,103,110
192,134,103,109
190,133,102,109
190,137,130,108
189,137,204,108
188,135,240,107
186,135,239,107
185,134,237,106
185,133,236,105
184,133,234,105
183,132,231,103
182,131,231,103
181,130,230,103
180,129,228,103
179,129,227,103
179,128,226,102
177,127,225,102
177,127,224,101
176,126,222,101
176,126,221,100
174,125,220,100
174,124,219,99
173,124,217,99
172,123,217,98
171,122,216,98
171,121,214,97
170,121,213,97
169,121,212,96
167,120,211,96
167,120,210,96
167,119,209,96
166,118,207,95
165,118,207,95
164,117,206,94
164,116,205,94
163,115,204,94
163,116,203,93
184,194,202,93
295,247,201,92
295,243,199,92
293,242,199,92
291,241,198,116
289,239,197,115
287,238,195,114
286,236,195,113
284,235,194,113
282,233,193,112
281,231,192,112
280,231,192,111
278,229,301,111
275,228,378,110
274,227,375,109
273,225,371,108
271,224,369,108
269,223,366,108
268,221,364,107
267,220,362,107
265,219,359,105
263,218,358,105
262,217,355,105
261,216,353,103
259,214,351,103
258,213,349,103
256,211,347,102
255,211,345,114
253,209,344,140
252,209,341,139
251,207,339,138
249,206,336,137
248,206,335,137
247,268,333,135
245,265,331,135
244,263,329,135
243,261,327,133
242,260,326,133
240,258,323,132
239,255,321,131
238,255,321,130
237,253,319,132
235,252,317,131
234,251,315,131
233,249,313,130
231,248,312,129
230,246,310,129
229,244,308,127
228,243,307,127
227,242,305,188
225,241,303,187
225,240,302,185
224,238,300,184
222,237,299,183
222,236,297,182
221,239,295,181
220,237,294,179
219,236,292,179
217,235,291,178
216,233,289,177
216,231,287,176
214,231,287,175
213,230,285,174
212,229,283,173
211,227,282,172
210,226,281,171
209,225,280,170
207,224,278,169
207,222,276,167
206,221,275,167
205,220,274,166
204,219,272,166
203,218,271,165
202,217,270,163
201,216,268,163
199,215,268,163
212,213,266,161
214,212,265,161
213,211,263,159
211,211,262,159
210,209,261,158
209,207,259,157
207,207,259,156
207,207,257,155
206,205,255,155
205,204,254,154
204,203,253,153
203,202,252,152
201,201,251,152
201,199,249,151
199,199,248,150
199,198,248,149
197,197,246,148
196,196,245,147
195,195,243,147
194,194,242,146
193,193,241,146
192,192,240,145
192,191,239,143
191,190,238,143
190,189,237,143
189,188,236,142
188,188,234,141
187,186,233,140
186,185,231,140
185,185,231,139
184,184,230,138
184,183,229,137
183,182,227,137
182,181,227,135
181,180,225,135
179,179,225,135
179,178,224,134
178,177,222,134
177,176,221,133
176,176,220,132
176,175,219,131
175,174,218,131
174,173,217,130
173,172,216,129
172,172,216,129
172,171,214,128
170,170,213,127
169,169,212,127
169,167,211,126
167,167,210,126
167,167,209,125
167,166,208,124
166,165,207,124
165,164,206,123
164,163,206,123
163,162,205,122
162,161,204,121
162,161,203,121
161,159,201,120
159,159,201,120
159,159,199,119
159,158,199,119
158,157,198,118
157,156,197,118
157,155,196,117
156,155,195,116
155,154,194,115
155,153,193,115
153,152,193,114
153,152,192,114
152,151,191,113
152,150,190,112
151,149,189,112
151,149,188,112
150,148,187,111
149,147,186,110
148,147,186,110
147,146,185,109
147,145,184,109
146,145,184,108
146,143,183,108
145,143,182,108
143,143,181,107
143,142,179,106
143,141,179,106
142,141,179,105
142,140,177,104
141,140,177,103
140,139,176,103
140,138,176,103
139,138,174,103
138,137,174,102
138,135,173,102
137,135,172,101
137,135,172,101
135,135,171,100
135,134,169,99
135,133,169,99
134,133,167,99
134,132,167,98
133,131,167,98
133,131,166,98
131,131,166,97
131,130,165,97
131,129,165,96
130,129,163,96
130,127,163,96
129,127,162,95
129,127,162,95
127,126,161,94
127,126,159,94
127,125,159,93
126,125,159,93
126,124,158,93
125,123,158,92
125,123,157,92
124,122,156,91
124,122,156,91
123,121,155,91
122,121,154,90
122,120,153,89
121,120,153,89
121,119,152,89
120,119,152,88
120,118,151,88
120,118,150,88
119,117,150,87
119,116,149,87
118,116,148,87
117,115,148,86
117,115,147,86
116,114,147,85
115,114,146,85
115,113,145,85
115,113,145,85
114,112,145,84
113,112,143,83
113,112,143,83
113,111,142,83
112,110,142,83
112,110,141,82
111,109,141,81
111,109,140,82
111,108,140,81
110,108,139,81
110,107,139,80
109,107,138,80
109,107,137,79
108,106,137,79
108,105,135,79
108,105,135,79
107,105,135,79
107,111,134,78
107,111,134,78
106,110,133,78
105,110,133,77
105,109,132,77
105,108,131,76
103,108,131,76
103,107,131,76
103,115,130,76
103,115,130,76
103,114,129,75
102,114,129,75
102,113,127,74
101,112,127,74
101,112,127,74
101,111,126,73
99,111,126,73
99,110,125,73
99,109,125,73
99,109,124,71
98,108,124,71
98,108,123,71
106,108,123,71
142,107,122,71
141,106,121,71
140,105,121,70
139,105,121,70
138,105,121,70
137,103,120,69
137,103,120,69
135,103,119,69
135,103,119,69
135,102,118,68
134,102,118,68
133,101,117,67
132,101,117,67
131,100,116,67
131,99,115,67
130,99,115,67
130,99,115,66
129,98,114,66
128,98,114,66
127,98,113,66
127,97,113,65
126,97,112,65
126,97,112,65
125,96,112,65
125,96,111,64
124,95,111,64
124,95,110,63
123,94,110,63
122,94,109,63
122,93,109,63
121,93,109,63
121,93,108,62
120,93,108,62
120,92,107,62
119,92,107,62
118,92,106,61
118,91,106,61
117,91,105,61
117,90,105,61
116,89,105,60
115,89,103,60
115,89,103,60
114,89,103,60
114,88,103,60
113,88,103,60
113,88,103,59
112,88,102,59
112,87,102,58
111,86,101,58
111,86,101,58
110,85,100,58
110,85,100,57
109,85,99,57
109,84,99,57
108,84,99,57
108,83,98,57
108,83,98,56
107,83,98,56
106,83,97,56
106,82,97,56
105,82,97,56
105,82,96,56
103,81,96,56
103,81,96,55
103,81,95,55
103,81,95,55
103,80,95,54
103,79,94,54
102,79,94,54
101,79,94,54
101,79,93,54
100,78,93,53
100,78,93,53
99,78,92,53
99,78,92,52
99,78,92,53
98,77,91,52
98,77,91,52
98,76,91,51
97,76,90,51
97,76,89,51
97,76,90,51
96,76,100,51
96,75,101,51
95,75,100,51
95,74,99,50
94,74,99,51
94,73,99,50
94,73,98,50
94,73,97,49
93,73,97,49
93,73,97,49
93,73,96,49
92,71,96,49
92,71,96,49
92,71,95,48
91,71,95,48
91,71,95,48
90,71,94,48
90,70,94,48
89,70,94,48
89,70,93,48
89,70,92,48
89,70,92,47
89,69,92,47
88,68,91,47
88,68,91,47
88,68,90,46
87,68,91,46
87,67,90,46
86,67,94,46
86,67,93,46
86,67,93,45
86,67,92,45
85,66,92,45
85,66,91,45
84,66,91,45
84,66,91,44
83,65,91,45
83,65,90,44
83,65,89,44
83,65,89,44
83,64,89,44
83,64,89,44
82,63,88,44
82,63,88,44
81,63,88,43
81,63,88,43
80,63,87,43
80,63,87,42
80,62,86,42
79,62,86,42
79,62,86,42
79,62,85,42
79,62,85,42
79,61,84,42
79,61,85,41
78,61,84,41
78,60,84,41
78,60,83,41
77,60,83,41
77,60,83,41
77,60,83,40
77,59,82,40
76,59,82,39
76,59,82,39
76,59,81,39
76,59,81,39
75,59,81,39
75,57,80,39
75,58,80,39
74,57,79,39
74,57,79,39
74,57,79,39
73,57,79,38
73,57,79,38
73,56,78,39
73,56,78,39
73,56,78,38
71,56,78,38
71,56,77,38
71,55,77,38
71,55,77,37
71,55,77,37
71,55,76,37
70,54,76,37
70,54,76,37
70,54,76,37
70,54,75,36
69,53,75,36
69,54,75,36
69,53,74,36
69,53,74,36
78,53,74,36
86,52,95,35
85,52,103,35
84,52,102,35
84,51,101,35
83,51,100,35
83,51,99,35
83,51,99,35
83,51,99,35
82,51,98,35
82,51,98,34
82,50,98,34
81,50,97,34
81,51,97,34
80,51,96,34
80,50,96,33
79,50,96,34
79,50,95,34
79,50,95,33
78,50,94,33
78,49,93,33
78,49,93,33
77,49,93,33
77,48,92,32
77,48,92,32
76,48,92,32
76,48,92,32
76,48,91,32
75,48,91,31
75,48,90,31
75,47,89,31
74,47,89,31
74,47,89,31
73,47,89,31
73,46,88,31
73,46,88,31
72,46,88,31
73,46,87,31
71,46,87,31
71,46,86,31
103,46,86,30
103,46,85,30
103,45,85,30
102,45,84,30
101,45,84,30
101,45,83,29
100,45,84,30
100,44,83,29
99,44,83,29
99,44,82,29
99,44,82,29
98,44,82,29
98,44,81,29
97,43,81,29
96,43,81,29
96,43,80,28
96,43,80,28
96,43,79,28
95,42,79,28
94,42,79,28
94,42,78,28
94,42,78,28
93,42,78,28
93,41,78,28
101,41,77,28
100,41,77,27
100,41,77,27
99,41,76,28
99,41,76,27
99,39,76,27
98,39,76,27
98,39,75,26
97,39,75,26
97,39,75,27
96,39,74,27
96,39,74,26
96,39,73,26
95,39,73,26
95,39,73,26
94,39,73,25
94,38,73,25
93,39,71,25
93,38,71,25
93,38,71,25
92,38,71,25
92,38,71,25
91,38,71,25
91,37,71,25
90,37,70,25
90,37,70,25
90,37,70,24
89,37,69,24
89,37,69,24
89,36,69,24
88,36,69,24
88,36,69,24
88,36,68,24
88,35,68,24
87,35,68,24
86,35,67,24
86,35,67,24
85,35,67,24
85,35,131,23
85,35,152,23
84,35,152,23
84,35,150,23
83,34,149,23
83,35,148,23
83,34,147,23
82,34,147,23
82,34,147,22
82,34,145,22
81,34,145,22
81,34,143,22
80,33,143,22
79,33,143,22
79,33,142,22
79,33,141,22
79,32,141,21
79,33,140,22
78,32,139,21
78,31,139,21
78,32,139,21
77,31,137,21
77,31,137,21
77,31,135,21
76,31,135,21
76,31,135,20
75,31,134,20
75,31,134,20
75,31,133,20
74,31,133,20
73,30,132,20
73,30,131,19
73,30,131,19
73,30,131,20
73,30,130,19
72,30,129,20
71,30,129,19
71,30,127,19
71,30,127,19
71,29,127,19
71,29,126,19
70,29,126,19
70,29,125,19
70,29,125,19
69,29,124,19
69,29,124,19
69,28,123,18
68,28,122,18
68,28,122,18
68,28,121,18
67,28,121,18
67,28,120,18
67,27,120,18
67,28,120,18
67,27,119,18
66,28,118,18
66,27,118,18
66,27,118,17
66,27,117,17
65,27,116,17
65,27,115,17
64,27,115,18
64,26,115,17
64,26,114,17
63,26,114,17
63,26,113,17
63,26,113,17
63,25,112,17
63,25,112,16
62,25,111,17
62,25,111,16
62,25,110,16
62,25,110,16
62,25,110,16
62,25,109,16
61,25,109,16
61,25,108,16
61,24,108,15
60,24,107,15
60,24,107,16
60,24,106,16
60,24,105,15
60,24,105,15
59,24,105,15
59,24,105,15
59,24,103,15
59,24,103,15
58,23,103,15
58,23,103,15
59,23,103,15
59,23,102,15
58,23,101,15
58,23,101,15
58,23,101,14
57,23,100,14
57,22,99,14
57,22,99,14
57,22,99,14
56,22,99,14
56,22,98,14
57,22,98,14
70,22,97,14
69,22,97,14
69,22,97,14
69,22,96,14
68,22,96,14
68,22,96,14
67,22,95,14
67,21,94,14
67,21,94,14
67,21,94,13
66,21,94,13
66,21,93,13
76,21,93,13
79,21,93,13
79,21,92,13
79,20,92,13
78,20,91,13
78,20,91,13
78,20,91,13
77,19,91,13
77,20,90,12
77,19,89,13
76,19,89,12
76,20,89,12
76,20,88,17
75,19,88,17
75,19,88,17
74,19,88,17
74,19,87,17
73,19,87,16
73,19,87,17
73,19,86,16
73,19,86,16
71,19,85,16
71,19,85,16
71,19,84,15
71,19,85,16
71,18,84,15
71,19,83,15
103,18,83,15
110,18,83,15
155,18,83,15
153,18,82,15
152,17,82,15
152,18,82,15
150,17,81,15
149,17,81,15
148,17,80,15
148,17,80,14
147,17,79,15
146,17,79,14
146,17,79,14
145,17,79,14
144,17,79,14
143,17,78,14
143,16,78,14
142,16,78,14
142,17,77,14
141,16,77,14
140,16,76,14
139,16,76,14
139,16,76,13
138,16,76,13
138,16,75,13
162,15,75,13
163,15,75,13
161,15,74,13
161,15,74,13
159,15,74,12
159,15,73,13
158,15,73,13
157,15,73,13
156,15,73,12
156,15,71,12
155,15,71,12
154,15,123,13
153,15,212,12
153,15,249,14
152,15,248,66
151,15,246,66
151,14,244,65
150,14,243,64
149,14,241,63
148,14,240,63
147,14,239,63
147,14,238,62
146,14,236,62
145,14,235,62
144,14,234,62
143,14,231,61
143,14,231,61
142,14,230,60
142,13,229,60
141,13,228,60
140,13,227,60
140,13,226,59
139,13,225,59
139,13,224,59
137,13,222,58
137,13,222,58
137,13,220,58
135,13,219,57
135,13,218,57
135,13,217,57
134,13,216,57
133,13,216,56
133,13,214,56
132,12,214,56
131,13,212,56
131,12,211,55
130,12,210,55
130,12,209,55
130,12,208,54
129,12,207,54
128,12,206,54
127,12,206,53
127,12,205,53
127,12,204,53
126,12,203,52
126,11,202,52
125,12,199,52
125,12,199,51
124,12,199,51
123,11,199,51
123,11,197,51
122,11,196,51
121,11,195,51
121,11,195,50
120,11,194,50
120,11,193,49
120,11,192,49
119,11,192,49
118,11,190,49
118,11,190,48
117,11,188,48
116,10,188,48
116,11,187,48
115,10,186,47
115,10,185,47
115,10,184,47
114,10,184,47
113,10,183,46
113,10,182,46
112,10,181,46
112,10,180,46
112,10,195,46
111,9,194,46
111,9,193,57
110,9,192,66
110,9,192,65
109,9,191,65
108,9,190,64
108,9,189,64
108,9,188,63
107,9,187,63
107,9,186,63
107,9,185,63
106,9,185,63
105,9,184,62
105,9,184,62
103,9,182,62
103,9,181,61
103,9,180,61
103,9,179,61
103,8,179,60
102,8,178,60
101,8,177,60
101,8,176,60
101,7,176,59
100,9,175,59
100,7,174,59
100,8,174,58
99,7,173,58
99,9,172,57
98,9,171,57
98,8,171,57
97,9,170,57
97,8,169,57
97,7,169,56
97,7,167,56
96,7,167,56
96,7,167,56
96,7,166,56
95,7,166,55
94,7,165,54
94,7,164,54
94,7,163,54
93,7,163,54
93,7,162,54
93,7,162,54
92,7,161,53
92,7,160,53
92,7,159,52
91,7,159,52
91,7,159,52
90,7,158,51
90,7,158,51
89,7,157,51
89,7,156,51
88,7,156,51
89,7,155,50
88,7,155,50
88,7,154,50
88,7,153,50
87,7,153,50
86,7,152,49
86,7,152,49
86,7,151,49
85,7,151,49
85,7,150,49
85,7,149,48
84,7,149,48
84,7,148,47
83,7,147,48
83,7,147,47
83,7,146,47
83,7,146,47
82,7,145,47
82,6,145,46
81,6,144,46
81,6,143,46
81,6,143,46
81,6,143,45
81,6,142,45
79,6,141,45
79,6,141,45
79,6,140,45
79,6,140,45
79,6,140,44
78,6,139,44
78,6,138,44
78,6,138,44
78,6,137,44
77,6,137,43
77,6,135,43
76,6,135,43
76,6,135,43
103,24,135,42
103,23,134,42
103,23,134,42
102,23,133,41
101,23,132,41
101,22,131,41
100,22,131,41
100,22,131,41
99,22,130,41
99,22,130,41
98,22,129,39
98,22,129,39
97,21,127,39
97,21,127,39
97,21,127,39
96,21,127,39
96,21,126,39
95,21,126,39
95,21,125,39
94,21,125,38
94,20,125,38
93,20,124,38
93,19,123,38
93,19,123,38
92,20,122,38
92,19,122,37
91,19,121,37
91,19,121,37
90,19,120,37
90,19,120,36
89,19,120,36
89,19,119,36
89,19,119,36
88,19,118,35
88,18,118,35
88,18,117,35
98,117,117,35
103,137,116,35
103,135,115,35
102,135,115,35
102,134,115,34
101,134,114,34
100,133,113,34
99,132,113,34
99,131,113,34
99,130,112,33
99,129,112,33
99,129,112,33
97,128,111,33
97,127,111,33
97,127,110,32
96,126,110,32
96,125,109,32
95,125,109,32
95,124,108,31
94,124,108,32
94,123,108,31
93,123,107,31
93,121,107,31
92,121,106,32
92,120,105,31
91,120,105,31
91,120,105,31
91,119,103,31
90,118,103,31
89,118,103,31
89,117,103,31
89,117,103,31
88,116,102,30
88,115,102,30
88,115,101,30
88,114,101,30
87,114,101,29
86,113,100,30
86,113,99,29
85,112,99,30
85,111,99,29
85,111,98,29
84,110,98,29
83,110,98,29
83,110,97,28
83,109,97,28
83,109,96,28
82,108,96,28
83,108,96,28
82,107,96,28
82,107,95,28
81,106,95,27
81,106,95,27
81,105,94,28
80,104,94,27
79,103,93,27
79,103,93,27
79,103,93,27
79,103,92,27
78,102,92,26
78,102,92,26
78,101,91,26
77,101,91,26
77,100,90,26
77,100,91,26
76,99,90,26
76,99,89,25
76,99,89,25
76,98,89,25
75,98,89,25
75,98,88,25
75,97,88,25
74,96,88,25
73,96,88,24
73,96,87,25
73,95,87,24
72,95,86,24
73,95,86,24
71,94,86,24
71,94,85,24
71,93,85,24
71,93,85,24
71,93,84,24
71,92,84,24
71,92,83,23
71,91,83,23
70,91,83,23
74,91,83,23
74,90,82,23
73,90,82,22
73,89,82,23
73,89,81,22
71,89,81,22
71,88,81,22
71,88,80,22
71,88,80,22
71,88,79,22
71,87,79,22
70,87,81,22
70,86,108,21
70,86,107,21
70,86,106,21
70,85,105,23
69,85,105,55
69,84,104,55
68,84,103,54
68,83,103,54
68,83,103,54
67,83,103,53
