42,7,68,33
41,6,67,33
42,7,67,33
41,7,67,33
41,7,67,32
41,7,66,32
40,7,66,32
40,7,66,32
39,7,66,31
39,6,66,31
39,7,65,31
39,6,65,31
39,6,64,31
39,6,64,31
39,6,63,31
39,6,63,31
39,6,63,31
39,7,63,30
39,7,63,31
39,15,63,30
38,16,63,30
38,16,63,30
38,15,62,30
38,15,62,30
38,15,63,30
37,15,65,30
37,15,64,29
37,15,63,29
37,15,63,29
36,15,63,29
37,15,63,29
36,15,62,29
36,15,62,29
36,14,62,28
35,14,61,28
35,14,61,28
35,14,61,28
35,14,61,28
35,14,61,28
35,14,60,28
35,14,60,28
35,14,60,28
34,14,60,27
34,14,60,27
34,14,59,27
34,14,59,27
34,14,59,27
34,13,59,26
33,13,58,26
33,13,58,26
33,13,57,26
50,13,146,33
49,13,163,34
49,13,162,33
48,13,162,33
48,13,160,33
48,15,159,33
48,15,159,32
47,15,158,32
47,15,157,32
47,15,156,31
47,15,156,31
46,15,155,31
46,15,154,31
46,14,153,31
46,15,152,31
45,14,152,31
45,14,152,30
45,14,151,30
45,14,150,30
45,14,149,30
44,14,148,30
44,14,147,30
44,14,147,30
44,14,146,29
43,14,146,29
43,14,145,29
43,13,144,29
43,13,143,29
43,13,143,29
42,13,143,28
42,13,142,29
41,13,141,28
41,13,140,28
41,13,140,28
41,13,139,28
41,12,139,27
41,12,138,28
39,12,138,27
41,12,137,27
39,12,135,27
39,12,135,27
39,12,135,26
39,12,135,27
39,12,134,26
39,12,133,26
39,12,133,26
39,12,132,26
39,12,131,25
38,12,131,25
38,12,130,25
38,11,130,25
38,12,130,25
37,11,129,25
37,11,127,25
37,11,127,25
37,11,127,25
37,11,126,25
36,11,126,24
36,11,126,24
36,11,125,24
36,11,124,24
35,11,124,24
35,11,123,24
38,11,123,24
38,10,122,28
38,10,122,35
38,11,121,35
37,11,121,34
37,11,120,34
37,11,120,34
36,11,120,34
36,11,119,33
36,11,118,33
36,11,118,33
35,11,117,33
35,11,117,32
35,10,116,32
35,11,115,32
35,10,115,32
35,10,115,32
34,10,114,31
34,12,114,31
34,12,113,31
34,12,113,31
34,12,112,31
34,11,112,31
34,12,112,31
35,11,111,30
35,12,111,30
35,11,110,30
35,11,110,30
35,11,109,30
34,11,109,29
34,11,108,29
34,11,108,29
34,11,107,29
33,11,107,29
33,11,107,29
33,10,106,29
33,10,105,29
33,10,105,29
33,11,103,28
33,10,103,28
33,10,103,28
32,10,103,28
32,10,103,28
32,10,102,28
31,9,102,27
31,10,102,27
31,9,101,27
31,10,101,27
31,9,101,27
32,9,100,27
35,9,99,26
35,9,99,26
35,9,99,26
35,16,98,26
35,15,98,25
35,16,98,25
34,16,97,25
34,15,97,25
34,15,96,25
34,15,96,25
34,15,96,25
34,15,96,25
34,15,96,25
35,15,95,24
35,15,95,24
34,14,94,24
34,14,94,24
35,14,93,24
34,15,93,24
34,14,92,24
34,15,92,24
34,14,92,24
34,14,91,23
33,14,91,24
33,14,91,23
39,14,90,24
60,13,93,24
60,14,92,24
59,14,92,23
59,14,91,23
58,13,91,23
58,13,91,24
58,13,90,22
57,13,89,22
57,13,89,22
57,13,89,22
56,13,88,22
56,13,88,22
56,13,88,23
56,12,88,37
56,13,88,39
56,12,88,38
55,12,88,38
55,12,87,38
54,13,87,37
54,13,86,37
54,13,86,37
53,12,86,37
54,12,85,37
53,12,85,36
53,12,84,36
53,12,84,36
52,12,88,35
52,12,90,36
52,12,90,35
51,12,89,35
51,12,89,35
51,12,89,35
51,12,88,34
50,12,88,34
51,12,88,34
50,11,87,34
50,11,86,34
49,11,86,34
50,11,91,34
49,11,91,33
49,11,90,39
49,11,90,39
48,10,89,39
48,24,89,39
48,24,89,39
48,24,88,38
48,24,88,38
47,24,88,38
47,23,87,37
47,23,87,37
57,23,87,37
79,22,86,37
79,22,86,37
78,22,85,37
78,22,85,36
77,22,85,36
77,22,84,36
77,21,83,36
77,22,83,36
76,22,83,36
76,22,83,35
75,22,82,35
75,22,82,35
81,22,82,35
106,22,81,35
105,22,81,35
103,22,80,35
103,22,80,35
103,22,79,35
103,21,79,35
102,21,79,103
102,39,79,219
101,56,79,285
101,67,78,282
100,67,78,280
99,67,78,278
99,65,77,276
99,66,77,274
98,65,77,273
98,65,76,271
97,64,76,270
97,63,76,269
96,65,75,267
96,64,75,265
96,63,75,263
95,63,74,263
94,63,74,262
94,63,73,260
94,63,73,259
93,62,73,258
93,62,73,256
92,62,71,255
92,61,71,254
92,61,71,253
91,60,71,252
91,60,71,250
90,60,71,249
89,60,71,248
89,59,70,247
89,59,70,246
89,59,70,245
94,58,70,243
93,58,70,242
93,58,69,241
92,57,69,240
92,57,69,239
91,57,68,238
91,57,68,236
90,56,68,236
89,56,67,235
89,56,67,233
89,56,67,231
88,55,67,231
88,55,94,230
92,55,93,229
103,55,93,228
103,54,92,227
103,54,92,226
103,96,92,225
102,94,91,224
102,94,91,223
101,93,90,222
100,92,89,220
99,92,89,225
99,91,89,226
99,91,88,230
98,91,88,317
98,90,88,325
97,89,88,322
97,89,88,319
96,88,87,318
96,96,87,316
96,95,86,315
95,94,86,313
95,94,85,311
94,93,85,310
93,93,84,307
93,92,84,306
93,92,83,304
92,92,83,303
92,91,83,302
92,91,83,300
91,91,82,298
91,91,81,297
90,90,81,295
89,89,81,294
89,89,80,292
89,89,80,291
89,88,79,290
88,88,79,287
95,87,79,287
100,87,79,286
99,87,78,284
99,86,78,283
99,86,77,281
98,85,77,280
98,85,77,278
97,85,76,277
97,84,76,275
96,83,76,275
96,83,75,273
95,83,75,271
95,82,75,271
145,82,74,270
143,81,74,268
142,81,73,267
141,81,73,265
141,80,73,263
140,79,73,263
139,79,71,262
139,79,71,260
138,79,71,259
137,78,71,258
135,78,71,257
135,77,113,255
135,77,112,254
134,77,112,253
134,76,111,251
133,76,110,250
132,76,109,249
131,75,109,248
131,75,109,247
131,74,108,245
130,74,107,244
129,73,107,301
131,73,106,299
134,73,105,295
134,72,105,295
133,71,103,293
132,71,103,291
131,71,103,289
131,71,103,287
130,71,103,286
129,70,102,285
129,70,101,283
127,70,101,281
127,69,101,280
127,69,99,279
126,68,99,281
125,68,99,384
125,68,99,525
124,67,98,612
124,67,97,605
123,67,97,600
123,66,96,595
122,66,96,590
121,66,96,585
121,66,95,580
120,65,95,576
120,65,94,572
120,64,94,568
118,64,93,564
118,63,93,560
117,63,92,556
117,63,92,551
116,63,92,548
115,62,91,545
115,62,90,540
115,62,90,537
115,62,90,533
113,61,97,530
113,61,96,526
112,61,96,523
112,60,96,519
111,60,95,516
111,60,94,513
110,59,94,509
110,59,93,506
109,59,93,504
109,59,93,499
108,59,92,497
108,58,120,494
108,58,150,490
107,57,149,487
107,57,148,483
105,57,147,481
105,56,146,478
104,56,145,475
103,56,144,472
103,56,143,469
103,56,143,466
103,55,143,463
102,55,142,461
102,55,141,457
101,54,140,455
101,54,140,452
100,54,139,449
99,53,138,447
99,53,137,444
99,53,137,441
98,53,135,440
98,52,135,437
97,52,135,435
97,52,134,432
111,51,134,430
152,53,133,427
151,52,132,425
150,52,131,422
149,51,131,419
147,51,130,417
147,51,129,415
146,51,129,413
145,51,129,410
144,50,127,408
143,50,127,406
183,50,126,403
181,50,184,401
179,50,253,399
178,49,250,397
177,49,248,394
176,49,247,391
176,48,245,391
174,48,243,388
173,48,242,386
172,48,241,384
172,47,240,381
171,47,238,380
169,47,237,377
169,47,236,376
167,47,235,374
167,46,233,371
166,46,231,369
165,46,231,368
164,46,230,366
163,46,229,364
163,45,227,362
162,46,226,359
161,62,225,358
160,62,224,356
159,61,223,354
159,61,222,353
158,61,221,351
157,60,220,393
156,60,219,391
156,60,217,387
155,60,216,385
154,59,216,383
153,59,214,381
152,59,213,379
152,59,211,376
151,60,211,374
150,59,210,371
149,59,209,369
149,58,207,367
148,58,207,364
147,58,206,362
146,57,205,359
146,57,204,358
145,57,203,356
144,67,202,353
181,113,201,352
246,147,199,350
243,145,199,348
242,144,198,345
241,143,197,344
239,142,195,342
238,141,195,340
236,140,194,339
235,140,193,337
233,139,192,335
231,138,192,333
231,137,190,331
229,135,189,330
228,135,189,327
227,135,188,327
225,134,187,324
224,134,185,323
223,133,185,321
222,132,184,319
221,131,183,318
219,131,182,316
219,130,181,315
217,129,180,313
216,128,179,312
215,127,179,310
214,127,178,309
213,126,177,307
211,126,176,305
210,125,175,303
209,125,174,302
207,124,174,300
207,123,173,299
206,123,172,298
205,122,239,295
204,121,239,295
203,120,238,293
201,120,236,291
201,120,235,291
199,119,233,289
199,118,231,287
198,117,231,286
196,117,230,285
195,116,228,284
211,115,227,283
295,115,226,281
293,114,224,280
291,114,223,278
289,113,222,277
287,112,221,275
286,112,220,274
284,112,219,273
282,111,217,271
280,110,216,270
279,110,216,269
277,109,214,268
275,109,213,267
274,108,211,265
272,108,211,263
271,107,209,263
269,106,208,261
268,106,207,260
267,105,206,259
263,105,206,258
263,120,282,257
262,205,359,255
260,212,354,254
259,211,352,253
258,210,349,252
255,207,347,250
255,206,344,249
253,206,343,248
252,204,339,247
250,203,338,246
249,202,335,244
248,201,334,243
247,199,332,242
245,199,331,241
244,197,327,240
243,196,326,239
241,195,323,238
240,194,322,236
239,193,321,236
238,192,319,235
236,191,317,233
235,190,315,231
234,189,313,231
233,188,312,230
231,187,310,229
231,186,307,228
229,185,307,227
227,184,305,226
227,183,303,225
226,182,301,224
225,181,300,223
224,180,298,222
222,179,295,221
221,178,295,220
220,177,294,219
219,176,291,218
217,175,291,217
217,174,289,216
216,173,287,216
215,173,286,214
213,172,284,213
213,171,283,212
211,170,281,211
210,169,280,210
209,167,279,209
207,167,277,208
207,166,275,207
206,165,274,206
205,165,273,206
204,164,271,205
203,163,270,204
202,162,269,203
201,161,267,201
199,161,266,201
199,159,263,199
198,159,263,199
197,158,262,199
196,157,261,198
195,157,259,197
194,156,258,195
193,155,257,195
192,154,255,194
192,153,254,193
190,153,253,192
190,152,251,192
189,152,250,191
188,151,249,190
187,150,248,189
186,149,247,188
185,148,245,188
184,147,244,187
184,146,243,185
183,146,242,190
182,145,240,219
181,144,239,217
179,143,238,216
179,143,237,215
178,142,236,214
177,142,235,212
177,141,233,211
176,140,233,210
175,140,231,209
174,139,230,207
173,139,231,206
172,137,230,205
172,137,229,204
171,159,227,204
170,157,227,202
169,156,235,201
167,156,233,294
167,155,231,316
166,153,231,313
166,153,230,312
165,152,227,309
164,152,227,307
163,150,226,305
163,149,225,304
162,148,223,301
161,147,223,327
160,147,221,354
159,146,220,352
159,145,219,349
158,145,218,346
157,143,217,345
157,143,216,343
156,142,215,339
156,142,214,337
155,141,213,335
153,140,212,334
153,140,211,332
152,139,210,329
152,137,209,327
151,137,207,326
151,135,207,323
150,135,206,321
149,135,205,319
148,134,204,318
147,134,204,316
147,133,203,314
146,133,201,313
145,131,199,311
144,131,199,309
143,130,199,307
143,130,198,305
142,129,197,304
142,129,196,302
141,127,195,300
141,127,194,300
140,127,193,321
140,126,192,318
139,125,192,316
138,125,191,314
137,124,190,312
137,123,189,310
135,123,188,308
135,122,187,306
135,121,187,305
134,121,185,303
134,120,185,301
133,123,184,300
133,122,183,297
131,122,182,295
131,121,182,295
131,120,181,292
130,120,179,291
129,120,179,289
129,119,178,287
129,118,177,286
127,118,177,285
127,117,176,283
126,116,175,282
126,115,174,280
126,115,248,279
125,115,244,277
124,114,243,275
124,113,241,274
123,113,240,273
123,112,239,271
122,112,237,270
121,111,236,268
121,111,235,267
120,110,233,266
120,110,231,263
156,109,231,263
155,109,230,261
154,108,228,260
153,108,227,259
152,107,226,257
152,107,225,255
150,105,224,255
149,105,222,254
149,105,222,252
147,108,220,251
147,108,219,249
146,108,217,248
146,107,217,248
145,106,216,246
143,105,215,244
143,105,213,243
142,105,212,242
142,103,211,241
141,103,210,240
140,103,209,239
140,152,207,237
138,176,207,236
138,175,206,235
137,174,205,234
137,173,204,233
135,172,203,231
135,171,201,230
134,170,199,229
134,169,199,228
133,167,199,227
132,167,198,225
132,166,196,225
131,165,195,224
130,163,195,222
130,163,193,221
129,162,193,220
128,161,192,220
127,160,191,218
127,159,190,217
126,159,189,216
126,158,188,215
125,157,187,214
131,156,186,213
130,156,185,212
129,155,184,211
128,153,184,210
128,153,183,209
127,152,182,207
126,152,181,207
126,151,180,206
125,150,179,205
124,149,250,204
124,148,274,203
124,147,273,203
180,146,271,201
179,146,269,199
178,145,268,199
176,144,265,198
176,143,263,198
174,143,263,195
174,142,261,195
173,141,260,195
172,140,258,194
171,140,257,193
170,139,255,192
169,139,254,191
167,137,253,190
167,137,251,189
166,137,249,188
165,135,248,188
164,135,248,187
163,134,246,185
162,134,245,185
162,133,243,184
161,132,242,184
159,131,241,183
159,131,239,182
158,130,238,181
158,130,237,179
156,129,236,179
156,128,235,178
155,127,233,177
154,127,231,177
153,126,231,176
152,126,230,175
188,125,229,175
240,124,227,174
238,124,226,173
237,123,225,172
235,123,224,171
233,122,223,171
231,121,222,170
231,121,220,169
230,120,220,167
228,120,218,167
227,119,217,167
226,118,216,166
224,118,215,166
223,117,214,165
222,117,213,164
221,115,211,163
219,115,211,163
218,115,209,162
217,114,209,161
216,114,207,161
215,115,207,159
214,115,206,159
212,115,204,159
211,114,204,158
210,113,203,157
209,113,201,156
207,112,199,156
207,111,199,155
206,111,199,155
204,111,198,154
204,110,196,153
203,109,195,152
201,109,195,152
199,108,194,152
199,108,193,151
199,107,192,150
197,107,191,149
196,106,190,148
195,105,189,148
194,105,188,147
193,103,188,147
192,103,187,146
192,103,185,145
190,103,185,145
189,103,184,144
189,102,183,143
187,101,182,143
187,101,181,142
185,101,180,142
185,100,179,141
184,99,178,140
183,99,178,140
182,99,177,140
181,98,176,139
180,98,176,138
179,97,174,138
178,97,174,137
178,96,173,135
177,96,173,135
176,96,172,135
175,95,171,135
174,95,170,135
174,94,169,134
173,94,169,134
172,93,167,133
171,93,167,132
170,93,167,131
169,92,166,131
167,92,165,131
167,91,164,130
167,91,163,130
166,91,163,129
165,90,162,129
164,89,162,127
163,89,161,127
163,89,160,127
162,88,159,126
161,88,159,126
161,88,158,126
159,88,158,125
159,87,157,125
159,86,156,124
158,86,156,124
157,86,155,123
156,85,154,123
156,85,153,122
155,84,153,121
154,84,153,121
153,83,152,121
153,83,151,120
152,83,150,120
152,82,150,119
151,82,149,118
150,81,148,118
149,81,148,118
148,81,147,117
147,80,147,117
147,80,146,116
146,79,145,115
146,79,145,115
145,79,144,115
144,79,143,114
143,78,143,114
143,78,142,113
143,78,142,112
142,77,141,113
141,77,141,112
141,77,140,111
140,76,140,111
139,76,139,111
139,75,139,110
138,75,138,110
137,75,137,109
137,74,137,109
135,74,135,108
135,74,135,108
135,73,135,108
134,73,134,108
134,72,134,107
133,72,133,106
132,71,159,106
131,71,255,105
131,71,303,105
131,71,301,103
130,71,299,103
129,71,297,103
129,70,295,103
127,70,293,103
127,70,292,103
127,69,290,102
126,68,287,102
126,68,287,101
126,68,285,101
124,68,284,100
124,67,282,100
124,67,280,99
123,67,280,99
122,66,278,98
122,66,276,99
121,66,275,98
121,66,273,97
121,66,271,97
120,65,271,97
120,65,270,97
119,64,268,96
119,64,267,96
118,64,265,96
118,63,263,95
117,63,263,95
117,63,262,94
116,63,260,94
115,63,259,94
115,62,258,93
115,62,257,93
114,62,255,92
118,62,254,92
116,61,253,92
116,61,252,92
115,61,251,91
115,60,249,91
115,60,248,90
114,60,247,90
113,60,246,90
113,59,245,89
112,59,243,89
112,59,242,89
116,64,241,88
115,66,240,88
115,66,239,88
115,65,238,88
114,65,237,87
113,64,236,87
113,63,235,86
112,63,234,86
112,63,231,86
111,63,231,85
111,63,231,85
110,63,230,85
109,62,229,84
109,62,227,85
108,62,226,83
108,61,225,83
108,61,224,83
107,61,223,83
107,61,222,82
106,60,222,82
106,60,220,82
105,59,220,81
105,59,218,81
105,59,217,81
112,59,216,80
117,58,216,80
117,58,215,80
115,58,214,79
115,57,213,79
115,57,211,79
114,57,211,79
113,57,210,78
113,57,208,78
112,56,207,78
112,56,207,77
111,56,206,77
111,56,206,77
110,56,204,76
110,55,204,76
109,54,203,76
108,54,202,75
108,54,199,75
107,54,199,75
107,54,199,75
106,53,198,75
106,53,198,74
105,53,196,74
105,53,195,73
103,52,195,73
103,52,194,73
103,51,193,73
103,51,193,71
103,51,192,71
102,51,191,71
102,51,190,71
101,51,189,71
101,51,188,71
100,50,188,71
100,50,187,70
99,50,186,70
100,49,185,70
99,49,184,70
99,49,184,70
99,49,183,69
99,49,183,69
98,49,181,68
98,48,181,69
97,48,179,68
97,48,179,67
96,48,178,67
96,48,178,67
96,47,177,67
95,47,176,67
95,47,176,66
95,46,175,66
94,46,174,66
94,46,174,66
94,46,173,65
93,46,172,65
93,45,172,65
92,45,171,65
92,45,170,65
92,45,169,64
91,45,169,64
91,44,167,63
90,45,167,63
90,44,167,63
89,44,166,63
89,44,166,63
89,44,165,62
89,44,164,63
88,43,163,62
88,43,163,62
88,43,163,62
88,43,162,61
88,48,161,61
87,62,161,61
86,61,159,61
86,61,159,61
85,61,158,60
85,60,158,60
85,60,157,60
84,60,157,60
84,59,156,59
83,59,156,60
83,59,155,59
83,59,154,59
83,58,153,59
83,58,153,58
82,57,153,58
82,57,152,57
81,57,152,58
81,56,151,57
80,56,150,57
80,56,149,57
80,56,149,57
79,55,148,56
79,56,147,56
79,55,147,56
79,54,147,56
78,54,146,56
78,54,145,56
78,53,145,55
78,53,144,55
78,53,143,55
77,53,143,54
77,52,142,54
76,53,142,54
76,52,142,54
76,52,141,54
76,51,140,54
75,51,140,53
75,51,139,53
76,51,139,53
78,51,139,53
107,50,138,52
106,50,137,52
105,50,137,52
104,49,135,51
103,49,135,51
103,49,135,51
103,48,135,51
102,48,134,51
102,48,134,51
101,48,133,51
107,48,132,50
132,47,131,50
131,48,131,50
131,47,131,49
130,46,130,50
129,46,130,49
128,46,129,49
127,46,129,49
127,45,128,49
126,45,127,48
126,45,127,48
125,45,126,48
124,45,126,48
124,44,126,48
123,44,125,47
123,44,125,47
122,44,124,47
121,44,124,47
121,43,123,47
120,43,123,46
120,43,122,46
119,43,121,46
119,42,121,46
118,42,121,46
117,42,120,46
117,42,120,45
116,42,120,45
115,41,119,45
115,41,119,45
115,41,118,45
114,41,118,45
113,41,117,44
113,39,117,44
112,40,116,44
112,39,116,44
111,39,115,44
111,39,115,44
112,39,115,43
111,39,114,43
110,39,113,43
110,39,113,43
110,39,113,42
109,39,112,42
108,38,112,42
108,38,111,42
107,38,111,41
107,38,111,41
106,38,110,41
106,38,110,41
105,37,109,41
103,37,109,41
103,37,109,39
103,37,108,41
103,37,108,39
103,36,107,39
102,36,107,39
102,36,106,39
101,36,106,39
101,35,105,39
153,35,105,39
192,35,105,39
216,35,103,39
214,35,103,39
213,35,103,38
211,35,103,38
210,34,102,38
209,34,102,38
207,34,102,38
206,34,101,38
205,34,101,38
204,33,101,37
203,33,100,37
202,33,100,37
201,33,99,37
199,33,99,37
199,33,99,37
199,32,98,37
198,33,98,36
197,32,98,36
195,32,97,36
195,31,97,36
193,31,96,35
192,31,96,35
192,31,96,35
191,31,96,35
190,31,95,35
189,31,94,35
188,31,94,35
188,31,94,35
187,31,94,34
185,31,93,34
185,30,93,34
184,30,93,34
184,30,92,34
182,30,92,34
182,30,92,34
181,30,91,33
180,30,91,33
179,29,90,33
178,29,90,33
178,29,89,33
177,29,89,33
176,29,89,33
176,29,89,33
174,29,88,32
174,28,88,32
173,28,88,32
173,110,88,31
171,114,87,32
171,113,87,31
169,112,87,31
169,111,86,31
167,110,86,31
167,110,85,31
167,109,85,31
166,109,85,31
165,108,84,31
165,108,84,31
163,107,83,31
163,106,83,30
162,106,83,30
161,105,83,30
161,105,83,30
159,105,82,30
159,103,82,30
158,103,81,29
158,103,81,30
157,102,81,29
156,102,80,30
156,101,79,29
155,101,79,29
154,100,79,29
153,99,79,29
153,99,79,29
152,99,79,28
152,98,78,28
152,98,78,28
151,97,78,28
149,97,77,28
149,96,77,28
148,96,77,27
147,96,77,28
147,95,76,28
146,94,76,27
146,94,76,27
145,94,75,27
145,93,75,27
143,93,75,27
143,92,74,27
143,92,75,27
142,92,74,26
141,91,73,26
141,91,73,26
140,90,73,26
140,90,73,26
139,89,76,26
139,89,76,26
138,89,75,25
137,88,75,25
137,88,75,25
135,88,74,25
135,87,73,25
135,87,73,25
135,86,73,25
134,86,73,25
134,86,73,25
133,85,71,24
132,84,71,25
132,84,71,24
131,83,71,24
131,83,71,24
130,83,71,24
130,82,70,24
129,82,70,24
129,82,70,24
127,82,70,24
127,81,69,24
127,80,69,24
126,81,69,24
126,79,69,23
125,79,69,24
125,79,68,23
124,79,67,23
124,79,67,23
123,78,67,22
123,78,67,23
122,77,67,22
122,77,66,22
121,77,66,22
121,76,66,22
120,76,66,22
120,76,66,22
119,75,65,22
134,75,65,22
160,75,65,21
159,75,65,22
158,74,64,22
157,73,64,21
157,73,63,21
156,73,63,21
155,73,63,21
155,71,63,21
153,71,63,21
153,71,62,20
152,71,62,21
152,71,74,20
151,71,73,21
150,70,73,20
149,70,71,20
149,70,71,20
147,70,71,20
147,69,71,19
147,69,71,19
146,69,71,19
145,68,71,19
144,68,70,19
143,67,70,19
143,67,70,19
142,67,69,19
142,66,69,19
141,66,68,19
141,66,68,19
140,66,68,19
139,65,67,19
139,65,67,18
138,65,67,18
137,65,67,18
137,64,67,18
135,63,66,18
135,63,66,18
135,63,66,18
134,63,65,18
134,63,64,18
133,62,65,17
132,62,64,17
132,62,64,18
131,62,63,17
131,61,63,17
130,61,63,17
130,61,63,17
129,61,62,17
128,60,62,17
127,60,62,17
127,60,62,17
127,59,61,17
126,59,61,17
126,59,61,16
125,59,61,16
124,58,61,16
124,58,60,16
124,57,60,16
123,57,60,16
122,57,59,16
121,57,60,15
121,56,61,16
121,57,93,16
120,57,93,15
120,56,93,15
120,56,92,15
119,56,91,15
118,56,91,15
118,56,91,15
117,56,90,15
116,55,89,15
116,55,89,16
115,54,89,15
115,54,88,15
115,54,88,15
114,54,88,15
114,53,87,15
113,53,87,15
113,53,86,15
112,52,86,14
112,52,85,14
111,52,85,14
111,51,85,14
111,51,84,14
110,51,83,14
110,51,83,14
109,51,83,14
109,51,83,14
108,51,82,14
108,50,82,14
108,50,81,14
107,49,81,14
107,49,81,14
106,49,80,14
106,49,79,13
105,49,79,13
105,48,79,13
103,48,79,13
103,48,79,13
103,48,78,13
103,48,78,13
103,47,78,13
103,47,77,13
102,47,77,13
102,46,76,13
101,46,76,13
100,46,76,13
100,46,76,12
99,46,75,12
99,46,75,12
99,45,74,12
99,45,74,12
98,45,74,13
98,45,73,13
97,45,73,12
97,44,73,12
96,44,73,12
96,44,71,12
96,44,71,12
96,44,71,12
95,44,71,12
95,44,71,12
95,43,71,12
94,43,70,12
94,43,70,12
93,42,70,11
93,42,69,11
93,42,69,12
92,41,69,12
92,42,68,11
92,41,68,11
91,41,67,11
91,41,67,11
90,41,67,11
90,41,67,11
90,39,67,10
89,40,67,11
90,39,66,11
89,39,66,11
89,39,66,11
89,39,65,10
89,39,65,10
88,39,65,10
88,39,64,10
88,39,64,10
88,39,63,10
87,39,63,10
87,39,63,10
86,38,63,10
86,38,63,10
85,48,63,10
85,48,62,10
85,48,62,9
84,48,62,9
84,47,61,9
84,47,61,10
83,47,61,9
83,47,61,9
83,46,61,9
82,46,60,9
82,46,60,9
82,46,60,9
82,45,60,9
81,45,60,9
81,45,59,9
81,45,59,9
80,45,59,9
80,45,59,9
79,44,59,9
79,44,59,9
79,44,58,9
79,44,57,9
79,43,57,9
78,43,57,9
78,43,57,9
78,43,57,9
78,43,56,9
77,42,57,8
77,42,57,8
77,42,56,8
76,42,56,7
76,42,56,9
76,41,56,7
76,41,56,7
76,41,56,7
75,41,55,8
75,41,55,8
75,40,55,7
74,39,54,7
73,39,54,7
73,39,54,7
73,39,54,7
73,39,53,7
73,39,53,7
71,39,53,7
71,39,53,7
71,39,53,7
71,39,52,7
71,39,53,7
71,38,52,7
71,38,52,7
71,38,52,7
71,38,51,7
70,38,51,7
70,37,51,7
70,37,51,7
70,37,51,7
69,37,51,7
69,37,51,7
69,37,51,7
68,36,50,7
68,36,50,7
68,36,49,7
67,36,50,7
67,35,49,7
67,35,49,7
67,35,49,7
67,35,49,7
67,35,49,7
66,35,49,7
66,35,51,7
66,35,50,7
66,35,50,7
65,35,50,6
65,34,50,7
65,34,50,6
64,34,49,6
65,34,49,7
64,34,49,7
64,33,49,6
63,33,49,7
63,33,89,6
63,33,115,6
63,33,114,6
63,33,113,6
62,33,112,6
62,32,112,6
62,32,111,6
62,32,111,6
62,31,110,7
61,31,110,6
61,31,109,6
61,31,109,6
61,31,108,6
61,31,108,5
60,31,107,6
60,34,107,6
60,34,107,6
60,34,106,6
60,33,105,5
59,34,105,7
59,33,103,6
59,33,103,5
59,33,103,5
58,32,103,5
58,33,103,5
58,32,102,6
57,32,102,6
57,31,101,5
57,33,101,5
57,32,100,5
57,32,100,5
57,31,99,6
57,32,99,5
57,31,99,5
56,31,98,5
56,31,98,5
56,31,98,5
56,31,97,5
56,31,97,5
56,31,96,5
56,31,96,5
55,31,96,5
55,31,95,6
54,30,95,5
54,30,94,4
54,30,94,5
53,30,93,5
54,30,93,4
53,30,93,5
53,30,93,5
53,29,92,4
53,29,92,5
52,29,91,4
53,29,91,5
52,29,91,4
54,29,90,5
57,31,89,5
57,31,89,4
57,31,89,4
57,31,89,4
56,31,88,4
56,31,88,4
56,31,88,4
56,31,88,4
56,31,87,4
55,30,87,4
54,30,86,4
54,30,86,4
54,30,86,4
56,30,85,4
57,30,85,4
57,30,85,4
57,30,84,4
56,29,84,3
56,30,83,4
56,29,83,3
56,29,83,4
56,29,83,5
55,29,83,4
55,29,82,3
54,28,82,4
54,28,81,4
54,29,81,4
54,39,81,3
54,39,80,4
54,39,80,3
53,39,79,3
53,39,79,3
53,38,79,4
53,38,79,3
52,38,78,3
52,38,78,3
52,38,78,3
51,37,77,3
51,37,77,3
51,37,77,3
51,37,76,3
51,37,115,3
82,38,169,3
82,38,167,3
82,37,167,3
81,37,166,3
81,37,165,3
81,37,164,3
80,37,163,3
79,36,163,3
79,37,162,3
79,36,161,3
79,36,160,3
78,36,159,3
78,36,159,3
77,35,158,3
77,35,157,3
77,35,156,3
76,35,156,3
76,35,156,3
76,35,155,3
76,34,154,3
75,34,153,3
75,34,152,3
74,34,152,3
74,34,152,3
74,33,151,3
73,33,150,3
73,33,149,3
73,33,149,3
71,33,148,3
71,33,147,3
71,32,147,3
71,32,146,3
71,31,146,3
71,31,145,3
71,31,144,2
70,31,143,2
70,31,143,3
69,31,142,2
71,31,142,3
71,31,141,3
71,30,140,3
71,30,140,2
70,30,140,3
70,30,139,2
70,30,139,2
69,30,138,2
69,30,137,2
68,30,137,2
68,29,135,2
67,29,135,2
67,29,135,3
67,29,135,2
67,29,134,2
67,29,133,2
67,28,133,3
66,28,132,2
66,28,131,3
65,28,131,2
65,28,131,2
65,28,130,2
65,28,130,2
64,28,129,2
64,28,129,3
63,27,128,2
63,27,127,2
63,28,127,2
63,27,126,2
63,28,126,2
62,28,125,2
62,28,125,2
62,27,124,2
62,27,124,2
61,27,124,2
61,27,123,2
61,26,123,2
60,27,122,2
60,26,122,2
60,26,121,2
61,26,121,2
60,26,120,2
60,26,120,2
60,25,120,2
60,25,119,2
60,25,118,2
59,25,118,2
59,25,117,2
59,25,117,2
58,25,116,2
58,25,115,2
57,25,115,2
58,25,115,2
75,30,115,2
76,29,114,2
75,29,113,2
75,29,113,2
74,29,113,2
73,28,112,2
73,28,112,2
73,28,112,2
72,28,111,2
71,28,110,2
71,28,110,2
71,28,110,2
76,28,109,2
79,31,109,2
78,30,110,4
78,30,109,4
78,30,109,4
78,30,108,4
77,30,108,4
77,29,107,4
76,29,107,3
76,29,107,3
76,29,106,4
75,29,105,3
75,29,105,3
75,29,105,3
75,29,103,3
74,29,103,3
74,29,103,3
74,29,103,3
73,29,103,3
73,28,102,3
73,29,102,3
71,28,101,3
71,28,101,3
71,28,101,3
71,28,101,3
71,28,100,3
71,28,99,3
70,28,99,3
70,28,99,3
70,27,98,3
69,28,98,3
70,28,98,3
69,27,97,3
69,27,97,3
68,27,96,3
67,27,96,3
68,27,96,3
67,27,96,3
67,26,96,3
67,26,95,3
67,31,95,3
66,31,94,3
66,31,94,3
66,30,94,3
65,30,94,4
65,30,93,3
65,30,93,3
64,30,93,3
64,30,92,3
63,30,92,3
63,30,92,3
63,29,91,3
63,29,91,3
63,29,91,3
63,29,91,3
69,29,90,3
69,28,89,2
69,28,89,3
