54,18,56,36
54,18,56,36
54,18,56,36
53,17,55,36
53,17,54,35
53,18,55,35
52,18,54,35
53,17,54,35
52,17,54,35
51,17,53,35
52,17,54,35
56,18,53,35
55,18,53,34
55,18,53,34
55,18,52,34
54,17,52,34
54,17,51,34
54,17,51,33
53,17,51,33
53,17,51,33
53,16,50,33
53,17,51,32
52,17,50,32
54,20,50,32
54,21,50,32
53,22,49,31
54,22,49,31
53,21,49,31
53,21,49,31
52,21,49,31
52,21,49,31
52,21,48,31
51,21,48,31
51,21,48,31
51,20,47,31
51,21,47,31
51,21,48,31
51,20,47,30
51,21,47,30
50,20,47,30
51,21,46,30
50,20,46,29
50,20,46,29
49,20,46,29
49,20,46,29
48,20,46,29
49,19,45,29
49,19,45,28
49,19,45,44
49,21,86,59
49,21,88,58
49,21,87,57
49,21,86,57
48,20,86,56
48,21,86,56
48,20,85,56
48,19,84,56
48,20,84,56
48,20,84,55
47,19,83,55
47,20,83,54
46,19,83,54
47,19,82,54
49,26,82,54
49,27,81,54
48,26,81,53
49,26,81,53
48,26,81,53
48,25,79,52
48,25,79,52
47,25,79,51
47,25,79,51
47,25,78,51
47,25,78,51
46,25,78,51
46,25,77,50
46,25,77,51
46,25,77,50
45,24,76,51
46,24,76,50
45,24,76,49
45,24,76,49
45,24,75,49
45,24,75,49
44,23,75,48
44,24,74,48
44,23,74,48
44,24,73,48
44,24,73,48
44,24,73,48
44,24,72,47
44,24,71,46
43,24,71,47
43,23,71,47
43,24,71,46
43,23,71,46
42,23,71,46
42,23,71,46
42,23,70,46
42,22,70,45
42,22,70,46
43,22,70,44
44,22,69,45
43,22,69,44
43,22,68,44
43,23,68,44
42,23,67,44
42,22,67,43
42,22,67,43
41,22,67,43
41,21,67,43
41,22,66,43
41,21,66,42
41,21,66,42
41,21,66,42
41,21,65,42
41,22,65,42
40,22,64,41
39,21,64,41
39,21,64,41
39,21,63,41
39,21,63,39
39,21,63,40
39,21,63,39
39,21,62,39
39,21,62,39
39,20,62,39
41,20,62,39
41,21,62,39
42,20,61,39
41,19,61,39
41,19,61,39
41,19,61,39
41,19,60,38
39,19,60,38
40,19,60,38
39,19,60,38
39,19,59,37
39,19,59,38
39,19,59,37
44,19,58,37
54,19,58,37
59,22,58,37
58,22,57,37
58,22,57,36
57,22,57,36
57,21,57,36
57,22,57,35
57,21,57,36
57,21,56,35
56,21,56,35
56,21,56,35
56,21,56,35
56,20,55,35
56,20,57,35
55,20,57,35
54,20,56,35
55,21,56,34
54,20,56,34
54,20,56,34
53,20,56,34
53,19,56,34
53,19,56,33
53,19,54,33
53,19,56,33
52,19,99,33
57,22,107,33
64,35,106,33
64,36,105,32
63,36,105,33
63,35,103,32
63,35,103,32
62,35,103,32
62,35,103,31
63,35,103,31
61,34,101,31
61,34,101,31
61,34,101,31
61,34,100,31
61,38,99,31
60,38,99,31
59,37,99,34
59,36,99,34
59,37,98,34
59,37,97,34
59,36,97,34
59,36,97,33
58,36,96,33
58,35,96,33
57,35,96,33
57,35,95,33
57,35,94,33
57,35,94,32
57,35,94,31
56,34,93,31
56,35,93,31
56,34,92,31
56,34,92,31
55,34,92,31
55,33,91,31
55,33,91,31
54,34,91,31
54,33,90,30
54,33,90,31
53,33,89,30
54,32,89,30
53,32,88,65
53,32,88,67
53,31,88,67
53,31,88,66
52,31,87,66
52,31,87,65
51,31,87,65
51,31,86,65
51,31,85,64
51,30,85,63
50,31,85,63
50,30,85,63
51,30,85,63
50,30,83,63
50,30,83,63
50,30,83,62
49,30,83,62
49,30,83,61
49,30,82,61
49,30,82,61
48,29,81,60
48,29,81,60
48,29,81,60
48,29,81,60
48,28,80,60
48,28,79,60
49,29,79,59
49,29,79,58
48,29,79,58
48,29,78,58
48,29,78,57
48,29,78,57
48,29,78,57
47,28,77,57
47,28,77,57
47,28,76,56
47,28,76,56
47,28,76,56
56,29,162,56
57,42,190,56
56,41,188,55
55,41,187,55
55,41,186,55
55,39,185,54
54,39,184,54
54,39,183,54
54,39,183,54
53,39,181,53
53,39,181,53
53,39,179,53
53,39,179,52
59,39,178,52
60,39,177,52
60,39,176,51
60,39,176,51
59,38,174,51
59,38,174,51
59,38,173,51
58,37,172,51
58,38,171,50
58,37,171,50
57,37,169,50
57,37,169,49
63,37,167,50
63,37,167,49
63,36,167,49
63,35,166,48
62,36,165,48
62,36,165,48
62,36,163,48
62,35,163,48
61,35,162,47
61,35,161,47
61,35,161,47
60,35,160,47
99,59,159,114
114,119,159,231
112,117,158,240
112,116,157,238
111,115,156,236
110,114,156,235
110,114,155,233
109,113,154,231
109,113,153,230
108,111,153,229
108,111,152,227
108,111,152,227
113,112,150,225
112,111,150,265
112,111,149,358
110,110,148,355
110,109,147,352
109,108,147,348
108,108,146,346
108,107,145,344
107,107,145,342
107,106,143,339
106,105,143,337
105,105,143,335
105,103,142,333
103,103,141,331
103,103,140,327
103,103,140,327
103,102,139,325
102,102,138,323
102,101,137,321
101,100,137,319
100,99,135,317
99,99,135,315
99,99,135,314
99,98,135,312
98,98,134,311
98,97,133,309
97,97,133,307
97,97,132,306
97,96,131,304
96,96,131,303
96,96,131,301
96,94,130,300
95,94,129,298
94,94,129,297
94,93,128,295
94,93,128,294
93,93,127,293
93,92,127,309
92,92,127,449
92,92,126,561
92,91,194,670
91,91,196,664
90,90,195,657
90,89,193,651
89,89,192,645
110,89,191,639
124,88,190,635
123,88,189,629
122,88,188,623
122,87,187,619
121,87,186,613
120,86,185,609
120,85,184,604
120,85,184,600
118,85,182,595
118,84,182,590
117,83,180,586
117,83,179,581
116,83,179,577
115,83,177,573
115,82,177,568
114,81,176,564
113,81,175,560
113,80,174,557
112,80,173,551
112,80,172,548
111,79,172,545
111,79,172,541
110,79,171,537
110,78,170,533
109,78,169,530
108,78,167,527
108,77,167,523
107,77,167,519
107,77,166,515
107,76,165,513
105,76,163,509
105,75,163,505
105,75,163,503
103,74,162,499
103,75,161,496
103,74,161,493
103,73,159,489
102,73,159,487
101,73,158,483
101,71,157,480
100,71,157,478
100,71,156,475
99,71,155,472
99,71,154,469
99,71,154,466
98,70,153,463
98,70,152,461
97,69,152,458
97,69,151,455
96,69,151,453
96,69,150,451
95,68,149,448
95,68,149,446
95,68,163,444
94,67,179,547
102,67,213,674
101,67,211,665
101,66,210,658
100,66,208,654
99,65,207,647
99,65,206,643
99,65,205,638
98,65,204,632
97,65,203,628
97,64,202,622
96,64,201,618
96,63,203,613
96,63,202,609
95,63,201,604
94,63,199,600
94,62,199,595
94,62,198,591
93,62,197,587
93,61,195,583
92,62,195,579
92,61,194,575
92,61,193,570
91,60,192,567
91,60,192,562
90,60,190,559
90,60,189,556
89,59,188,551
89,59,188,548
89,59,187,543
88,58,185,540
88,58,185,537
88,58,184,534
87,57,184,531
87,57,182,526
86,57,182,524
86,57,181,519
85,57,179,516
85,56,179,513
85,56,179,510
84,56,177,507
83,56,177,504
83,55,176,500
83,55,175,497
82,55,179,494
82,54,236,492
81,54,235,489
81,54,233,486
81,53,231,483
80,53,231,480
80,53,230,477
79,53,228,474
79,53,227,472
79,52,227,468
79,52,225,466
78,51,224,463
78,51,223,460
78,51,221,459
77,51,220,455
77,51,220,453
77,51,219,450
76,50,217,448
76,50,216,446
76,49,216,443
76,50,214,441
75,49,213,438
75,49,212,435
74,49,211,433
74,49,225,431
74,48,223,429
73,48,222,425
81,48,221,423
152,49,220,422
150,50,218,419
150,49,217,416
148,49,216,414
147,49,216,412
147,48,214,409
146,48,213,408
145,48,211,405
143,48,211,403
143,47,320,401
143,48,358,399
142,48,354,397
141,47,352,394
140,47,350,391
139,46,347,390
139,46,345,387
138,46,344,386
137,46,342,384
135,46,339,382
135,46,338,380
135,45,335,377
135,62,334,376
134,108,332,375
171,143,330,371
169,142,367,370
167,142,499,368
167,141,502,366
166,140,497,364
165,139,493,362
164,137,487,359
183,137,486,358
218,135,483,356
311,174,478,354
306,171,475,352
304,170,472,350
302,167,468,348
300,167,465,347
298,167,462,345
295,166,459,343
295,165,455,341
293,164,453,339
291,163,450,338
289,163,447,335
287,161,444,334
286,159,441,332
284,159,439,331
283,159,435,329
281,157,433,327
280,157,430,326
278,156,428,323
275,155,425,322
275,154,423,321
273,153,420,319
271,153,417,318
270,152,415,316
268,151,412,314
267,150,410,312
265,149,408,312
263,148,405,310
263,147,403,308
270,147,400,307
277,146,398,305
275,146,395,304
331,145,394,302
377,143,391,301
374,143,389,300
371,142,387,297
369,142,384,295
366,141,382,295
364,140,380,293
361,139,378,292
359,139,376,291
357,139,374,289
355,137,371,287
352,137,370,286
350,135,368,285
348,135,366,283
346,135,364,282
344,134,361,281
342,133,359,280
340,132,358,278
338,132,355,277
335,131,353,275
334,130,352,275
332,130,350,273
331,129,348,271
327,128,346,270
326,127,344,269
324,127,343,268
323,127,341,267
320,126,339,265
319,125,337,263
317,125,335,263
316,124,334,262
313,124,332,260
312,123,329,259
310,131,327,258
308,130,327,256
307,129,325,255
305,128,323,255
304,127,321,253
302,127,319,252
300,127,319,251
299,126,317,250
335,125,315,249
359,124,314,248
455,124,312,246
499,125,311,245
496,124,309,243
492,123,307,243
487,123,306,241
483,122,304,241
480,122,303,240
477,121,302,238
473,120,300,237
470,120,299,237
467,120,310,235
463,118,321,235
460,118,319,233
457,117,317,231
454,117,315,231
451,116,313,230
448,115,312,229
446,115,309,227
443,114,313,227
440,114,311,226
437,113,310,225
434,113,307,224
431,112,306,223
429,112,304,222
425,111,303,221
423,110,301,220
420,110,299,219
417,109,297,217
415,109,295,217
412,108,295,216
410,108,293,215
408,107,291,214
405,106,290,213
403,106,289,212
399,105,287,211
398,105,285,210
396,105,284,209
393,103,283,208
391,103,281,207
388,103,280,206
386,103,280,205
384,115,277,205
382,114,275,204
379,113,275,203
377,113,273,203
375,112,272,201
373,112,271,199
371,111,270,199
368,110,268,199
367,109,267,198
364,109,265,197
363,108,323,196
359,108,348,195
358,108,345,257
357,107,344,283
355,106,340,281
352,105,338,279
351,105,337,277
348,103,335,275
347,103,332,274
344,103,330,271
344,103,327,270
341,102,327,269
339,102,324,268
337,101,323,266
335,100,321,263
334,100,319,262
332,99,317,262
330,99,316,259
327,98,313,259
327,99,312,257
325,97,311,255
323,97,308,254
322,97,307,253
319,96,305,252
319,96,304,250
317,96,302,248
315,95,300,248
314,95,299,246
312,94,297,246
311,94,295,243
310,93,294,243
307,93,293,241
306,92,291,240
305,92,289,239
303,92,289,238
301,91,287,237
300,93,285,235
299,95,284,234
297,95,283,233
295,94,281,231
295,93,280,231
293,93,279,229
291,93,277,227
290,92,275,227
289,91,275,226
287,91,273,225
286,91,271,224
285,108,270,222
284,111,269,221
282,109,267,220
280,109,267,219
280,108,265,218
278,108,263,217
276,107,262,216
275,107,262,215
274,106,259,214
271,105,259,212
271,105,257,212
270,141,255,211
269,163,255,209
268,161,254,207
266,160,252,207
265,159,251,206
263,158,250,205
262,157,249,204
261,156,248,203
259,156,247,203
259,155,246,201
257,154,244,199
255,153,243,199
255,152,242,199
254,152,241,197
252,151,240,196
251,150,239,195
250,149,238,195
249,148,237,193
248,147,236,193
247,146,235,192
246,145,233,192
244,144,231,190
243,143,231,189
242,143,230,189
241,142,230,188
240,142,228,199
238,141,227,204
237,140,226,203
236,139,225,202
235,139,224,199
234,138,223,199
233,137,222,198
231,136,221,197
231,135,221,196
229,135,219,195
229,135,218,194
227,134,217,193
226,133,216,192
226,132,216,191
224,131,215,190
223,131,214,189
222,130,213,188
221,129,211,187
220,129,211,186
219,128,210,185
219,127,209,184
217,127,207,184
216,126,207,183
216,126,206,182
214,125,205,181
213,124,204,180
212,124,204,179
211,123,203,179
210,123,202,178
210,122,201,177
208,121,199,176
207,121,199,176
207,120,198,175
205,120,197,174
205,119,196,174
204,118,195,172
203,118,195,172
202,117,194,171
201,116,193,170
199,116,192,169
199,115,192,169
198,115,190,167
198,114,190,167
196,113,189,167
195,113,188,166
195,112,187,166
193,112,187,165
193,111,185,164
192,111,185,163
192,110,184,163
191,110,184,162
190,109,182,161
189,108,182,160
188,108,181,159
187,107,180,159
186,107,179,158
185,106,179,158
185,106,178,157
184,105,177,156
183,105,176,156
182,103,176,155
182,103,175,155
180,103,174,153
179,103,173,153
179,102,172,152
178,102,172,152
177,102,171,151
177,100,171,151
176,100,170,150
175,99,169,149
174,99,167,149
174,99,167,148
178,98,167,147
178,98,166,147
176,97,166,146
176,97,165,146
175,96,163,145
174,96,163,144
173,95,163,144
172,95,162,143
172,94,162,143
171,94,161,142
170,94,160,142
169,93,159,141
167,92,159,140
167,92,158,140
167,92,157,140
166,91,157,139
166,91,156,139
165,91,156,137
164,90,155,137
163,89,155,137
163,89,154,135
162,89,153,135
161,89,153,135
161,88,152,135
159,87,152,134
159,87,151,134
159,86,150,133
158,86,149,132
157,86,149,132
157,85,148,131
156,85,147,130
156,84,147,130
155,84,147,130
154,84,146,129
153,83,146,129
153,83,145,127
152,83,144,127
152,82,143,127
151,82,143,126
150,81,142,126
150,81,142,126
149,80,141,125
148,80,141,125
148,79,140,124
147,79,140,124
147,79,139,123
146,79,138,123
145,79,138,122
145,78,137,121
143,77,137,121
143,78,135,121
143,77,135,120
143,76,135,120
142,76,135,119
142,76,134,119
141,75,134,118
140,75,133,118
140,75,133,117
139,74,132,117
139,74,131,116
137,74,131,116
137,73,131,115
137,73,130,115
135,72,130,115
135,71,129,114
135,71,128,114
135,71,127,113
134,71,127,113
133,71,127,112
133,71,126,112
132,70,126,111
131,70,125,111
131,69,125,111
131,69,124,110
130,69,124,110
130,68,124,109
129,68,123,108
128,67,123,108
127,67,122,108
127,67,121,108
127,67,121,107
127,67,120,107
126,66,120,106
125,66,120,105
125,66,120,105
124,65,119,105
124,65,118,105
123,65,133,103
123,64,199,103
123,64,305,103
121,63,341,103
121,63,338,103
121,63,335,102
120,63,333,101
120,63,331,101
120,62,329,101
119,63,327,100
118,62,325,100
118,61,323,99
117,61,322,99
117,61,319,99
116,62,319,99
115,61,316,99
115,61,315,98
115,61,313,97
115,60,312,97
114,60,310,97
113,60,308,96
113,60,307,96
113,59,305,96
112,59,304,95
112,59,302,94
112,59,300,94
111,59,300,94
111,58,297,94
110,58,295,93
110,58,295,93
110,57,293,92
109,57,292,92
109,57,290,92
108,56,289,92
108,56,287,92
108,56,286,91
107,56,285,91
107,56,284,91
106,55,282,90
106,55,280,90
105,55,280,89
105,54,278,89
103,54,277,89
103,54,275,88
103,54,274,88
103,54,273,88
103,53,271,87
102,53,270,87
102,52,269,87
102,53,268,86
102,52,267,86
101,52,265,86
100,51,263,85
100,51,263,85
99,51,262,84
99,51,260,84
99,51,259,84
98,50,258,84
98,50,257,83
98,50,255,83
97,49,255,83
97,50,253,82
97,49,252,82
96,49,252,82
96,49,250,82
96,48,249,81
95,48,248,81
95,48,247,81
95,48,246,80
94,48,245,80
94,48,243,79
93,48,243,79
94,47,242,79
93,47,241,79
93,47,240,79
92,46,239,79
92,46,238,78
91,47,237,78
91,46,236,77
91,46,235,77
90,45,233,77
91,45,233,77
90,45,231,77
89,45,231,76
89,45,230,76
89,45,229,75
88,44,228,75
88,58,227,75
88,60,226,75
88,59,225,75
88,58,224,74
87,58,224,74
87,58,222,73
86,57,222,73
86,57,220,73
85,57,220,73
85,56,219,71
85,57,218,71
85,56,217,71
84,56,216,71
84,56,216,71
83,56,215,71
83,55,214,71
83,55,213,71
83,55,211,71
82,54,211,70
82,54,210,70
82,54,209,70
82,54,208,69
81,53,207,69
81,53,207,69
80,52,206,68
80,52,205,68
79,52,205,68
79,52,203,68
79,51,203,67
79,51,202,67
78,51,201,67
78,50,199,67
78,51,199,67
78,50,199,67
77,50,198,66
77,50,197,66
77,50,196,66
77,49,195,65
77,49,195,66
76,49,194,65
76,48,193,65
76,48,193,65
75,48,192,64
75,48,191,64
75,48,190,63
74,48,190,63
74,47,189,63
74,47,188,63
73,46,188,63
73,46,187,63
73,46,186,62
73,46,185,62
71,57,185,62
71,56,184,62
71,56,184,62
71,56,182,61
71,56,181,61
71,55,181,61
71,55,180,60
70,54,179,60
70,54,179,61
77,54,178,60
76,54,177,60
76,53,177,59
76,53,176,59
75,52,175,59
75,52,175,59
75,52,174,59
75,51,173,58
74,51,172,58
73,51,172,58
73,51,172,57
71,51,171,58
71,50,169,57
71,50,169,57
71,50,169,57
71,49,167,57
71,49,167,57
71,49,167,56
71,48,166,56
70,48,165,56
70,49,165,56
69,48,164,56
69,48,163,55
69,48,163,56
69,47,163,55
69,47,162,55
69,47,161,54
69,47,160,54
69,46,159,54
68,46,159,54
68,46,158,54
67,45,158,54
67,45,157,53
67,45,157,53
67,44,156,52
66,45,155,52
66,45,155,52
66,44,154,52
67,44,154,52
67,44,153,52
67,44,152,51
67,44,152,51
66,43,152,51
66,43,151,51
66,43,150,51
66,43,150,51
65,43,150,50
65,42,148,50
64,41,148,50
65,42,147,50
64,41,147,49
63,41,146,49
63,41,146,49
63,41,145,49
63,40,145,49
63,39,144,49
63,41,143,48
62,39,143,48
62,39,142,48
62,39,142,48
62,39,141,48
62,39,141,48
62,39,140,48
86,39,140,47
85,39,140,47
85,41,139,47
84,41,139,46
83,41,137,47
83,41,137,47
83,39,137,46
82,40,135,46
82,39,135,46
82,39,135,45
81,39,135,46
158,39,134,45
169,39,134,45
167,39,133,45
167,39,133,45
166,39,132,44
165,39,131,45
164,38,131,44
163,38,131,44
163,38,130,44
162,38,129,44
161,68,129,43
159,143,129,43
159,165,127,43
159,163,127,42
157,162,127,43
157,161,126,43
156,159,126,43
155,159,125,42
154,158,125,42
153,157,124,42
152,156,124,41
152,156,123,41
152,155,123,41
205,154,122,41
204,153,122,41
202,152,121,41
199,152,120,39
199,151,120,39
199,150,120,39
197,149,120,39
196,148,119,39
195,147,118,39
194,146,118,39
193,146,117,39
192,145,117,39
191,144,116,39
190,143,116,39
189,143,115,39
188,143,115,39
187,141,115,38
186,141,114,38
185,140,114,38
184,139,113,38
184,139,112,38
182,138,112,37
181,137,112,37
180,137,112,37
179,135,111,37
178,135,110,37
177,134,110,36
177,134,109,36
176,133,109,36
175,132,109,36
175,131,108,36
173,131,108,35
172,131,108,35
172,130,107,35
171,129,107,35
170,129,107,35
169,127,106,35
167,127,105,35
167,126,105,34
167,126,103,35
166,125,103,34
165,125,103,34
164,125,103,34
163,123,103,34
163,123,103,34
162,122,102,34
161,121,102,33
159,121,101,33
159,120,101,33
158,120,100,33
158,120,100,33
157,119,99,33
156,119,99,32
156,118,99,32
155,117,99,31
154,117,98,32
153,116,98,31
153,115,98,32
152,115,97,31
152,115,97,31
151,114,96,31
150,114,96,31
150,113,96,31
149,113,96,31
148,112,96,31
147,112,95,31
146,111,95,31
146,111,94,30
145,110,94,30
150,110,93,30
150,109,93,30
149,108,92,30
147,108,92,30
147,107,92,29
146,107,91,29
145,106,91,29
145,106,91,29
144,105,91,29
143,105,90,29
143,105,89,29
142,103,90,29
142,103,89,29
141,103,89,28
140,103,88,28
140,102,88,28
140,102,88,28
139,101,88,28
138,101,87,28
137,100,87,28
136,100,87,27
135,99,86,27
135,99,85,27
135,99,86,27
134,98,85,27
134,98,85,27
134,97,84,27
133,97,84,27
132,96,83,27
132,96,83,26
131,96,83,27
130,95,83,27
130,95,83,26
129,94,82,26
129,94,82,26
128,93,81,25
127,93,81,29
127,93,81,31
126,92,81,31
126,92,81,31
126,92,80,30
125,91,79,31
125,91,79,31
124,90,79,30
124,90,79,30
123,89,79,30
123,89,79,30
122,89,78,30
121,88,78,30
121,88,78,29
121,88,77,29
120,88,77,29
120,88,77,29
119,87,77,29
119,86,76,29
118,86,76,29
118,86,76,28
118,85,76,28
117,85,76,28
116,84,75,28
116,84,75,28
115,83,74,28
115,83,74,27
114,83,74,27
113,82,73,27
113,82,73,27
113,81,73,27
112,81,71,26
112,81,73,26
111,80,71,27
111,80,71,27
111,80,71,26
110,80,71,26
110,79,71,26
109,79,71,25
109,78,71,26
108,78,71,25
108,78,70,25
108,78,70,25
107,77,70,25
107,77,69,25
106,77,70,25
106,76,69,25
105,76,69,25
105,75,69,25
105,75,68,24
103,75,67,24
103,75,67,24
103,74,67,24
103,73,67,24
102,74,67,24
102,73,66,24
101,73,66,24
101,72,66,24
101,71,66,24
100,73,66,24
99,71,65,24
99,71,65,23
99,71,65,24
98,71,65,23
98,71,65,23
98,71,64,22
98,70,63,23
97,70,63,23
97,69,63,22
97,69,63,23
96,69,63,22
96,68,63,23
96,68,62,22
95,68,62,22
95,67,62,22
94,67,62,22
94,67,62,22
94,67,61,22
93,67,61,21
92,67,61,22
92,66,61,21
92,66,61,21
92,66,61,21
91,65,61,21
91,65,60,21
90,65,60,21
90,64,60,21
90,65,60,21
89,64,60,21
89,63,59,20
89,63,59,20
89,63,58,21
88,63,58,21
88,63,58,19
88,63,57,20
88,62,57,20
87,62,57,19
86,61,58,20
86,61,57,19
86,62,57,19
85,61,57,20
85,61,56,19
85,61,56,19
84,60,56,19
84,60,56,19
83,60,56,19
83,60,56,19
83,59,56,19
83,59,55,19
83,59,55,19
82,59,55,18
81,59,55,18
82,58,54,19
81,58,54,19
81,58,54,18
81,58,54,18
80,57,54,18
80,57,53,18
79,57,53,18
79,56,53,18
79,57,53,18
79,56,53,18
78,56,52,18
78,56,53,17
77,56,52,18
78,56,51,17
77,56,51,17
99,55,51,17
119,55,51,17
118,55,51,17
117,54,51,17
117,54,51,17
116,54,50,16
115,53,50,16
115,53,50,16
114,53,50,16
114,52,50,16
113,53,49,16
113,52,49,16
112,52,49,16
111,51,49,16
111,51,49,16
110,51,49,16
110,51,48,16
110,51,48,16
109,51,48,16
108,51,48,15
108,51,48,15
108,50,47,15
107,49,48,15
107,49,47,15
106,49,47,16
105,49,46,15
105,49,46,15
103,48,46,15
103,48,46,15
103,48,46,15
103,48,46,15
103,48,45,15
102,48,45,15
102,47,46,15
101,47,45,15
101,47,45,14
100,46,45,14
99,46,45,15
99,46,45,14
99,46,44,14
99,46,44,14
98,45,44,14
98,46,44,14
97,45,44,14
96,45,43,14
96,45,43,14
96,45,43,14
95,45,43,14
95,44,43,14
94,44,43,14
94,44,43,13
94,44,43,13
93,44,43,13
93,43,42,13
93,43,43,13
92,43,43,13
92,43,42,13
91,43,41,13
91,42,41,13
90,42,42,13
90,42,41,13
90,41,41,12
89,42,42,13
89,41,41,13
89,41,41,13
88,41,40,13
88,41,39,12
88,41,39,12
88,41,39,13
87,41,39,12
86,39,39,12
86,39,39,12
85,39,39,12
85,39,39,12
85,39,39,12
85,39,39,12
84,39,39,12
84,39,39,12
83,39,38,12
83,39,38,12
82,39,39,12
82,39,39,12
82,38,38,12
82,38,38,12
81,38,38,12
81,38,37,11
81,37,38,11
80,37,38,11
80,38,37,12
79,37,37,11
79,37,37,11
79,37,37,11
78,36,37,11
78,36,37,11
78,36,36,11
78,36,36,11
77,36,36,12
77,35,36,11
77,35,36,11
77,35,36,11
76,35,36,11
76,35,35,10
76,35,35,10
76,35,35,10
75,35,35,10
75,34,35,11
74,34,35,10
74,35,35,10
74,34,35,11
73,34,35,10
73,34,34,10
73,33,34,10
73,33,34,10
71,33,34,9
71,33,34,10
71,33,33,9
71,33,33,10
71,33,33,10
71,33,33,9
71,33,33,10
71,31,33,9
71,31,33,9
70,31,33,9
70,32,33,10
69,31,32,9
69,31,32,9
69,31,32,10
68,31,32,9
68,35,32,9
68,35,31,9
67,34,31,9
67,35,31,9
67,34,32,9
67,34,31,9
67,34,31,9
66,34,31,9
66,33,31,9
66,33,31,9
66,33,31,8
65,33,30,9
66,33,31,9
65,32,31,9
65,32,30,7
64,33,30,8
64,35,30,14
63,35,30,13
63,35,30,13
63,35,30,13
63,35,30,13
63,34,30,14
63,34,29,13
62,34,30,13
62,34,29,13
62,33,29,12
62,33,29,12
62,33,29,12
61,33,29,13
61,33,29,13
61,33,28,12
61,32,28,12
60,33,28,12
61,33,28,12
60,32,28,12
60,31,28,12
60,32,28,12
59,32,28,12
59,31,28,12
59,31,28,12
59,31,28,12
58,31,55,12
58,31,54,11
57,31,54,12
58,30,53,11
58,30,54,11
57,30,53,11
57,30,52,11
57,30,52,11
57,30,52,11
56,30,51,11
57,30,51,11
56,29,51,11
56,29,51,11
56,29,51,11
55,29,51,10
55,29,50,10
55,29,50,11
55,29,50,10
55,29,50,10
54,29,49,10
54,28,49,10
55,28,49,10
54,28,48,10
54,28,48,10
53,28,48,10
53,28,48,10
53,28,48,10
53,27,48,9
53,27,48,10
52,27,47,9
52,27,47,9
52,27,47,9
51,27,46,9
51,27,46,9
51,27,46,9
51,27,46,9
51,27,46,9
51,27,45,9
51,26,45,9
51,26,45,9
50,26,45,9
50,26,45,8
49,26,44,9
49,26,44,9
49,26,44,9
49,26,44,9
49,25,44,9
49,25,44,8
49,25,43,8
48,25,43,7
48,25,43,8
48,25,43,8
48,25,43,7
48,25,43,8
47,25,42,7
48,25,42,7
47,25,41,7
47,25,42,7
48,24,41,7
47,24,41,9
47,24,41,7
46,24,41,7
47,25,41,7
46,24,41,7
46,24,39,7
46,24,39,7
46,24,48,7
46,24,71,7
71,25,70,7
73,25,70,7
71,25,70,7
71,24,69,7
71,25,69,7
71,24,68,7
71,24,68,7
70,24,68,7
70,24,67,7
70,24,67,7
70,24,67,7
69,24,67,7
69,24,66,7
69,23,66,7
68,24,65,7
68,24,66,7
67,23,65,7
67,24,65,7
67,23,65,7
67,23,64,6
67,22,64,7
66,22,63,7
66,22,63,7
66,22,63,6
65,23,63,6
65,22,63,6
65,22,62,7
64,25,63,6
63,37,62,7
63,44,62,6
63,43,61,6
63,43,61,6
63,42,61,6
63,42,61,6
63,42,60,6
62,41,60,7
62,42,60,6
62,41,60,6
62,41,59,7
61,41,59,7
61,41,59,6
61,41,58,6
60,39,58,6
60,39,58,6
60,39,57,6
60,39,57,6
59,39,57,6
60,39,57,6
59,39,57,6
58,39,57,6
58,39,57,6
58,39,56,6
57,38,56,6
57,39,56,6
57,38,56,6
57,37,56,5
57,38,55,6
57,38,55,5
56,37,54,6
56,37,55,6
56,37,54,5
56,37,54,6
56,36,54,6
56,36,54,6
55,36,53,5
55,36,53,6
54,36,53,6
55,35,53,6
54,36,52,5
54,35,52,5
54,35,52,5
54,35,52,5
53,35,51,5
53,35,51,6
53,34,51,5
52,34,51,5
52,34,51,5
52,34,50,5
52,34,50,5
51,34,50,5
51,33,49,5
50,33,49,5
55,33,49,5
83,34,49,5
82,34,49,5
82,34,49,5
81,34,48,5
81,34,48,5
81,34,48,5
81,33,48,4
79,33,48,4
79,33,47,5
79,33,47,5
79,32,47,5
79,32,81,5
78,33,135,5
78,34,139,5
78,33,138,5
78,33,137,4
77,33,137,4
77,34,135,4
76,33,135,5
76,33,135,4
76,33,134,5
76,32,134,5
75,33,133,5
75,32,132,4
74,31,131,4
74,31,131,5
73,31,130,4
73,31,130,4
73,31,129,4
73,31,129,4
72,31,127,4
71,31,127,4
71,30,127,4
71,30,126,4
71,30,126,4
70,30,125,4
70,30,124,3
70,30,125,4
70,30,124,4
69,30,123,4
69,30,122,4
68,29,122,4
69,29,121,4
68,29,121,4
68,29,120,3
67,29,120,3
67,28,120,4
67,28,119,4
67,29,118,4
66,28,118,3
66,28,118,4
65,28,117,4
66,28,117,3
65,28,116,4
65,28,115,3
64,28,115,4
64,27,114,3
63,27,114,3
63,27,114,4
63,27,113,3
63,27,113,3
63,26,112,3
62,26,112,3
62,26,111,4
62,27,111,3
62,30,111,3
63,36,110,3
62,37,110,11
62,36,109,11
62,36,109,11
61,35,108,11
61,35,108,10
61,36,107,10
61,35,107,10
60,35,106,10
60,35,106,10
60,35,105,10
59,35,105,10
59,34,103,10
59,34,103,10
58,34,103,9
59,34,103,9
58,33,103,10
57,33,102,9
57,33,102,9
57,33,101,9
57,33,101,9
57,33,101,9
57,33,101,9
56,31,99,9
56,32,99,10
56,32,99,9
56,31,99,9
56,31,99,9
56,31,98,9
55,31,97,9
55,31,97,9
54,31,97,8
54,31,97,8
54,31,96,8
54,31,96,8
54,30,96,9
53,30,95,7
53,30,95,8
53,30,94,9
52,30,94,7
52,30,94,7
52,30,93,7
52,29,93,8
51,29,93,7
51,29,93,7
51,29,92,7
51,29,92,7
51,28,91,7
51,29,91,7
50,28,91,7
50,28,90,7
50,28,90,7
49,29,94,7
50,28,93,7
49,29,93,7
49,28,92,7
49,28,92,7
49,28,92,7
49,28,91,7
48,28,91,7
48,28,91,7
48,28,90,7
48,28,90,7
48,27,89,7
48,27,89,7
47,27,88,7
48,27,88,7
47,27,88,7
47,27,88,7
47,26,88,7
47,26,88,7
46,25,87,7
46,26,87,7
46,26,86,7
45,26,86,6
45,26,85,7
46,25,85,6
45,25,85,7
45,25,84,7
45,25,85,6
45,28,84,6
45,28,83,6
45,28,83,7
45,28,83,6
44,27,82,6
44,28,82,7
44,28,82,6
44,27,81,6
44,27,81,6
43,27,81,6
43,27,81,6
43,26,80,6
43,26,79,6
43,26,80,6
43,27,79,6
42,26,79,6
42,26,78,5
