57,26,106,27
57,26,105,27
56,26,105,26
56,26,105,26
56,26,103,26
56,25,103,25
56,25,103,25
55,25,103,25
55,25,103,25
54,25,102,25
54,25,102,25
54,24,101,25
54,24,101,25
53,24,100,25
53,24,100,25
53,24,99,24
73,25,99,24
73,25,99,45
73,25,98,50
72,24,98,50
71,25,98,49
71,24,97,49
71,24,97,49
71,24,97,49
71,24,96,48
70,24,96,48
70,24,96,48
70,24,95,48
69,24,95,48
70,39,95,47
70,39,94,47
70,39,93,47
69,39,93,46
69,39,93,46
69,39,92,46
69,39,92,46
68,39,92,45
67,38,91,46
67,38,91,45
67,38,91,45
67,38,90,45
66,37,90,44
76,38,90,44
76,37,89,44
75,37,89,44
75,37,88,44
74,37,88,44
74,36,88,43
74,36,88,43
73,36,87,43
73,36,87,42
71,35,86,42
71,35,86,42
71,35,86,41
71,35,85,41
71,35,85,41
71,35,85,41
71,35,84,41
71,35,84,41
70,34,83,41
70,34,83,39
70,34,83,39
69,34,83,39
69,33,82,39
68,33,82,39
68,33,82,39
68,33,81,39
68,33,81,39
67,33,81,39
67,34,80,39
67,34,80,38
67,34,79,38
67,34,79,38
66,34,79,38
66,33,79,38
66,33,78,37
65,33,78,37
65,33,78,37
65,33,78,37
64,32,77,36
64,32,77,36
63,32,77,36
63,32,77,36
63,31,76,35
63,31,76,35
63,31,76,35
62,31,75,35
62,31,75,35
62,31,75,35
62,31,74,35
61,30,74,35
61,31,73,35
61,30,73,34
60,30,73,34
60,30,73,34
60,30,73,33
60,29,71,33
60,29,71,33
59,30,71,33
59,29,71,33
58,29,71,33
58,29,71,33
58,29,71,33
57,29,70,32
57,28,70,32
57,28,69,32
57,28,69,31
57,28,69,31
58,34,69,31
57,34,68,31
57,34,68,31
57,33,68,31
57,33,67,31
57,33,67,31
56,33,67,31
56,33,67,30
56,32,67,30
56,32,66,30
55,32,67,30
55,31,66,30
55,31,66,30
55,31,65,30
54,31,65,29
54,31,65,29
54,31,64,29
53,31,64,29
53,31,63,29
53,30,63,29
53,30,63,28
53,30,63,28
52,30,63,28
52,30,63,28
51,30,63,28
51,29,62,28
51,30,63,28
51,30,67,28
51,29,67,27
50,29,66,27
51,29,66,27
50,29,66,27
50,29,65,27
50,29,65,26
50,29,64,26
49,28,65,27
49,28,64,27
48,28,63,26
49,28,63,26
54,29,63,26
54,28,63,26
53,28,63,26
53,28,62,26
53,28,62,26
53,28,62,26
52,28,62,25
52,28,61,25
52,28,61,25
51,27,61,25
51,27,61,25
51,27,60,25
51,27,60,25
53,27,60,25
52,27,60,24
52,27,59,24
52,27,59,24
51,27,59,24
51,27,59,24
51,27,58,24
51,26,58,24
51,26,58,24
50,26,57,24
50,26,57,24
50,26,57,24
49,27,57,24
50,27,58,23
49,27,62,23
49,26,61,23
49,26,61,23
48,26,61,23
48,26,61,22
48,25,60,22
48,26,60,22
48,25,59,22
47,25,59,22
47,25,59,22
47,25,59,22
47,25,60,21
47,25,103,22
48,26,103,21
48,26,103,24
48,26,102,24
48,25,102,24
48,25,101,24
47,25,100,23
47,25,100,23
47,25,99,23
46,25,99,23
46,25,99,23
46,24,98,22
47,25,97,22
52,30,97,23
54,33,97,47
54,33,96,77
53,32,96,127
53,31,96,146
53,31,95,143
52,31,94,143
52,31,94,142
52,31,94,141
51,31,93,141
51,31,93,140
51,30,92,139
51,30,92,139
78,30,91,138
78,30,91,137
78,30,90,135
77,30,90,135
77,29,90,135
76,30,89,134
76,29,89,134
76,29,88,133
75,29,88,132
75,29,88,189
75,29,103,270
81,56,103,275
120,118,102,273
118,115,102,271
118,114,101,269
117,113,101,268
116,113,100,266
115,112,99,263
115,112,99,263
114,111,99,261
114,110,98,259
113,110,98,259
145,112,178,344
145,111,176,364
143,110,174,361
143,110,173,359
142,109,172,355
141,108,172,353
140,107,170,351
140,107,169,349
139,106,167,347
137,105,167,344
137,105,167,342
139,104,166,340
184,103,165,338
183,103,163,335
181,103,163,334
179,103,162,332
179,102,161,330
178,101,159,327
177,101,159,326
176,100,159,323
175,99,158,323
174,99,157,319
173,98,156,319
172,98,155,316
171,97,155,316
170,97,154,313
169,97,153,312
167,96,152,310
167,96,152,308
167,95,151,307
166,95,150,305
165,94,149,304
164,94,150,302
163,94,162,301
163,93,171,299
162,92,169,297
161,92,169,295
159,91,167,294
159,91,167,292
158,91,166,291
158,89,165,289
157,89,164,344
156,89,163,483
156,89,163,504
155,88,162,500
154,88,161,496
153,87,159,493
152,87,159,489
152,86,158,485
151,86,158,482
150,85,157,479
149,85,156,476
149,85,155,472
147,84,154,468
147,83,153,465
147,83,153,462
145,83,152,460
145,83,152,457
143,82,150,454
143,82,150,451
143,81,149,448
142,81,148,445
141,80,147,442
141,79,147,440
140,79,146,436
139,79,145,434
167,79,144,432
165,78,143,428
164,78,143,426
163,78,143,423
162,77,142,420
161,77,141,419
160,77,141,415
159,76,140,414
159,76,139,411
158,76,139,409
157,75,138,406
156,75,137,403
156,75,135,401
155,74,135,399
154,74,135,397
153,73,135,395
152,73,134,391
152,73,134,391
151,71,133,408
150,71,132,406
149,71,131,403
149,71,131,399
147,71,130,398
147,96,130,396
146,95,129,393
145,95,129,391
144,94,128,388
143,93,127,386
143,93,127,384
143,93,126,382
142,92,125,379
141,92,125,377
140,91,124,376
140,91,124,373
140,90,123,371
140,89,123,369
139,89,122,367
138,89,121,365
137,88,121,363
137,88,120,361
135,88,120,359
135,87,120,357
135,86,119,355
134,86,119,353
134,85,118,352
133,85,117,349
132,84,116,348
131,84,116,345
131,83,115,344
130,83,115,342
130,82,115,340
129,82,114,339
128,81,114,337
127,81,113,335
127,81,113,333
127,80,135,332
126,79,223,330
125,79,221,327
125,79,219,327
124,79,217,325
123,78,216,323
123,78,215,322
123,78,214,319
122,77,212,319
121,76,211,317
121,76,210,316
120,76,209,314
120,75,208,367
119,75,251,482
119,75,341,627
118,75,389,621
117,74,386,614
117,73,384,608
116,73,380,604
116,73,378,598
115,71,375,594
114,71,373,589
114,71,371,585
114,71,368,580
113,86,366,575
112,86,364,572
112,85,362,567
112,85,359,563
111,84,358,559
111,83,356,555
110,83,354,551
110,83,352,547
109,82,350,543
109,82,348,540
108,81,346,536
108,81,344,532
107,80,342,527
107,80,340,525
106,79,339,521
105,79,337,518
105,79,335,514
105,78,333,510
103,78,331,507
103,77,329,504
103,77,327,501
103,77,326,497
102,76,324,493
102,76,323,491
101,76,321,487
101,76,319,485
100,75,318,481
99,75,316,479
99,74,314,476
99,73,312,473
99,73,312,470
98,73,310,467
98,73,308,465
97,71,307,462
142,71,305,459
150,73,304,457
149,73,302,454
147,71,300,451
147,71,300,448
146,71,297,446
145,71,295,443
144,71,295,440
143,71,293,438
143,71,291,435
142,70,301,433
142,69,306,430
141,69,304,428
140,69,302,425
139,68,300,423
138,68,298,420
137,67,297,418
137,67,295,415
135,67,294,501
135,67,292,540
135,66,290,537
167,66,290,532
212,68,287,529
210,69,286,524
209,68,285,520
207,67,284,517
207,67,282,513
206,67,280,509
205,66,280,505
203,66,278,503
202,66,276,498
201,65,275,495
199,65,274,492
199,65,273,487
198,64,271,486
197,63,270,482
195,63,269,478
195,63,267,476
194,63,266,472
192,63,265,470
192,62,263,466
191,62,263,463
190,62,261,461
189,62,260,457
188,61,265,455
187,61,265,452
186,60,263,449
185,60,261,447
184,60,260,443
183,60,258,441
182,59,257,438
181,59,255,435
180,59,254,433
179,58,253,430
178,58,252,428
177,57,251,425
176,57,255,423
176,57,255,419
175,57,253,417
174,57,252,415
173,56,251,412
172,56,249,411
172,56,248,408
171,56,248,407
170,56,246,403
169,55,245,401
167,54,243,399
167,55,243,397
167,63,241,395
166,63,240,391
165,62,240,390
164,62,238,388
163,62,237,386
162,61,236,384
162,61,235,382
161,60,233,380
159,60,233,378
159,60,231,376
159,59,231,374
161,59,230,371
161,59,228,370
159,58,227,368
159,58,227,366
158,58,225,364
157,58,225,361
156,57,223,359
156,57,223,358
155,57,222,356
154,57,220,355
153,56,220,353
152,58,239,352
152,58,331,349
152,57,330,347
150,57,327,345
150,57,326,344
149,56,323,342
148,56,322,340
147,56,319,339
147,56,318,337
146,55,316,335
145,63,314,334
145,62,312,332
143,62,377,331
143,62,390,327
143,61,386,327
142,61,384,325
142,60,381,323
141,60,378,322
140,60,376,319
139,59,374,319
139,59,371,317
139,59,369,316
137,59,367,315
165,58,365,313
184,58,363,312
183,58,359,310
182,57,359,307
181,57,356,307
179,56,355,305
179,57,352,304
178,56,351,302
177,56,348,301
176,56,347,299
175,56,345,297
174,55,343,297
173,55,341,295
172,54,339,294
171,54,337,292
171,54,335,291
169,54,334,290
167,53,332,287
167,53,330,287
167,52,327,286
166,54,327,284
165,125,325,283
164,124,323,281
163,123,321,280
162,122,319,279
161,121,318,278
161,120,316,276
160,120,315,275
159,119,312,273
159,118,311,272
158,118,309,271
157,116,308,270
156,116,306,268
155,115,304,267
154,115,303,266
153,114,301,263
152,113,300,263
152,113,298,262
151,112,295,261
151,112,295,259
150,111,294,258
149,111,291,257
148,110,290,255
147,109,289,255
146,109,287,253
146,108,286,252
145,108,284,251
144,107,283,249
143,106,281,248
143,105,280,248
142,105,366,247
142,105,376,263
141,103,374,315
243,121,371,312
239,121,368,310
237,120,365,307
236,119,364,306
234,119,361,304
233,118,359,302
231,117,356,300
230,116,355,299
229,116,352,297
227,115,350,295
227,115,348,294
225,114,346,291
224,113,344,290
223,113,342,287
221,112,340,287
220,111,338,285
219,111,335,283
217,110,334,281
216,110,332,280
215,109,330,278
214,108,329,277
213,108,327,275
211,108,325,274
210,107,323,272
225,106,321,271
224,105,319,269
222,105,317,268
220,103,316,266
220,103,314,265
218,103,312,263
217,103,311,262
216,102,309,260
214,102,307,259
214,101,305,258
212,100,304,257
211,100,302,255
209,99,301,254
209,99,299,252
207,98,298,251
207,98,295,249
206,97,295,248
204,96,293,247
203,97,311,246
203,101,308,245
201,100,307,243
199,100,305,243
199,99,303,241
199,99,302,241
198,98,300,240
196,98,299,239
195,97,295,237
194,97,295,236
194,96,293,235
193,96,291,235
192,96,291,233
191,97,289,231
190,97,287,231
189,97,286,230
188,96,284,229
187,96,284,228
187,95,282,227
185,95,280,226
184,94,279,225
184,94,278,224
183,93,276,223
182,93,275,222
181,93,274,221
180,92,272,220
179,91,271,219
178,91,270,218
177,90,268,217
177,90,267,216
176,89,265,216
175,89,264,214
174,89,263,214
173,88,262,213
172,88,261,212
172,88,259,211
171,88,258,210
170,87,257,209
169,86,255,208
169,86,255,207
167,85,254,206
167,85,253,205
166,84,252,205
165,83,250,204
165,83,249,203
163,83,248,202
163,83,247,201
163,82,246,199
161,81,244,199
161,81,243,199
159,81,242,198
159,80,241,197
159,80,240,196
158,79,239,195
157,79,238,195
156,79,236,194
156,79,236,193
155,78,235,192
154,78,233,191
153,77,231,190
153,77,231,190
152,77,231,189
152,76,230,188
151,76,228,188
150,75,227,186
149,75,226,185
149,75,225,185
147,75,224,184
147,74,224,184
146,73,222,183
146,73,221,182
145,73,220,181
144,72,219,180
143,71,218,179
143,71,217,179
142,71,216,178
142,71,216,177
141,71,214,177
141,70,214,176
140,70,212,175
139,70,211,174
142,69,211,174
141,69,209,173
141,69,209,172
140,68,207,172
140,68,207,171
139,67,206,170
138,67,205,169
137,67,204,169
137,67,204,167
135,66,203,167
135,66,201,167
135,66,201,166
134,65,199,165
134,65,199,165
133,65,198,163
132,64,198,163
131,63,197,163
131,63,196,162
131,63,195,161
130,63,194,160
129,63,193,159
211,64,192,159
209,64,192,159
208,63,191,158
207,63,190,157
206,63,189,157
205,63,188,156
204,62,187,156
203,62,187,155
201,62,186,154
199,61,185,153
199,61,184,153
198,61,184,153
197,60,183,152
196,60,182,152
195,60,181,151
194,60,181,150
193,59,179,149
192,59,179,149
191,59,178,148
190,59,177,147
189,58,177,147
188,58,176,146
187,57,176,145
186,57,174,145
185,57,174,144
184,56,173,143
183,56,172,143
182,56,172,142
181,56,171,142
180,56,170,141
179,55,169,141
179,55,167,140
178,54,167,140
177,74,167,140
176,73,167,139
175,73,166,138
174,72,165,137
173,71,165,137
173,71,163,136
172,71,163,135
171,71,162,135
170,70,162,135
169,70,161,134
169,70,160,134
167,69,159,133
167,69,159,133
166,68,158,132
165,67,158,131
164,67,157,131
163,67,157,130
163,67,156,130
162,66,156,129
161,66,154,129
161,66,154,128
159,65,153,127
159,65,152,127
158,64,152,127
157,64,152,127
157,63,151,125
156,63,150,125
155,63,149,125
155,63,149,124
153,63,148,124
153,62,147,123
152,62,147,123
152,61,146,122
151,61,146,122
150,61,145,121
149,60,144,121
149,61,143,120
147,60,143,120
147,59,143,119
146,59,142,119
146,59,142,118
145,59,141,118
144,58,141,117
143,58,140,117
143,57,139,116
142,57,139,116
142,57,138,115
141,57,138,115
140,57,137,114
140,56,135,114
139,56,135,114
138,56,135,113
138,56,135,113
137,56,134,112
135,55,134,112
135,55,133,111
135,54,132,111
135,54,132,110
134,53,131,110
133,53,131,109
133,53,131,109
132,53,130,109
131,52,129,108
131,52,129,108
130,52,128,108
130,51,127,107
129,51,127,107
128,51,127,106
127,50,126,106
127,50,126,105
127,50,125,105
126,50,125,104
125,50,124,103
125,49,124,103
124,49,123,103
124,49,123,103
123,49,122,102
123,48,122,102
122,48,121,102
121,53,121,101
121,52,120,100
121,52,120,100
120,51,120,99
119,51,119,99
119,51,119,99
118,51,118,98
118,51,117,98
117,50,117,98
117,50,116,97
116,50,116,97
115,50,115,97
115,49,117,96
115,49,117,96
114,49,117,96
114,48,116,96
113,48,115,95
113,48,115,95
112,48,115,94
112,48,114,94
112,47,113,93
111,47,113,93
111,47,113,93
110,46,112,92
110,46,112,92
109,46,112,92
109,46,111,91
108,46,111,92
108,45,110,91
108,45,110,91
107,45,109,89
106,45,109,89
106,44,108,89
105,44,108,89
105,44,108,88
104,44,107,88
103,44,107,88
103,44,107,88
103,43,106,88
103,43,105,87
102,43,105,86
102,43,103,86
102,42,103,86
101,42,103,86
101,42,103,85
100,41,103,85
99,41,103,85
99,41,102,84
99,41,102,84
99,41,102,83
98,41,101,83
97,39,101,83
97,39,100,83
97,39,100,82
97,39,99,82
96,39,99,82
96,39,99,81
96,39,99,82
95,39,98,81
95,44,98,81
94,44,98,80
94,44,97,80
94,43,97,79
93,43,97,79
93,43,96,79
93,43,96,79
92,43,96,79
92,42,95,79
91,42,95,78
92,42,95,78
91,41,94,78
91,41,94,77
90,41,94,77
90,41,93,77
89,41,93,77
89,41,93,76
89,40,92,76
89,39,92,76
88,39,92,76
88,39,91,76
88,39,91,75
87,39,91,75
87,39,90,75
87,39,90,74
86,39,90,74
86,39,89,74
86,39,89,73
86,39,89,73
86,38,88,73
85,38,88,71
85,38,88,73
85,38,88,71
84,37,88,71
84,37,87,71
83,37,87,71
83,37,86,71
83,37,86,71
83,37,86,71
82,37,85,70
82,36,85,70
82,35,85,70
82,36,85,70
81,36,84,69
81,35,83,69
80,35,83,69
80,35,83,69
80,35,83,68
79,35,82,68
79,35,82,67
79,35,82,67
78,35,81,67
78,35,82,67
78,37,81,67
78,37,81,67
77,36,80,66
77,36,80,66
77,36,80,66
77,35,79,66
76,36,79,65
76,35,79,65
76,35,79,65
76,35,78,65
75,35,78,65
75,35,78,64
74,37,78,64
74,39,78,63
74,39,77,63
74,39,77,63
73,39,77,63
73,39,76,63
73,39,76,63
73,38,76,62
71,39,75,62
71,38,75,62
71,38,75,62
71,38,75,61
71,38,75,61
71,38,75,61
71,37,74,61
70,37,74,61
70,37,73,61
70,37,73,60
70,36,73,60
69,36,73,60
69,36,73,59
69,35,71,59
68,36,71,59
68,35,71,59
67,35,71,59
67,35,71,59
67,38,71,58
79,51,71,58
84,50,71,58
83,50,70,57
83,50,70,57
83,50,70,57
83,49,69,57
82,49,69,57
82,49,69,56
81,48,69,56
81,48,68,56
80,48,67,56
80,48,68,56
79,48,67,56
79,47,67,56
79,48,67,55
79,47,67,55
79,47,67,55
79,47,66,55
78,46,66,54
78,46,66,54
78,46,66,54
77,46,65,54
76,45,65,54
76,46,65,53
76,45,65,53
76,58,65,53
76,63,64,53
75,62,64,53
75,62,63,52
74,61,63,52
73,61,63,52
73,61,63,52
74,61,63,51
73,60,63,51
71,60,62,51
71,60,62,51
71,59,62,51
71,59,62,51
71,59,61,51
71,59,61,50
71,58,61,50
70,58,61,50
70,58,61,50
70,57,61,50
69,57,60,49
69,57,60,49
69,57,60,49
69,57,60,49
68,56,59,48
68,56,59,48
67,56,59,48
67,56,59,48
94,56,58,48
107,56,58,48
107,56,58,48
106,55,58,48
105,56,57,47
105,55,57,47
103,55,57,47
103,54,57,47
103,54,57,46
103,54,56,46
102,53,56,46
101,53,56,46
101,53,56,46
101,52,56,45
100,52,56,45
99,52,55,45
99,51,55,45
99,51,55,45
98,51,55,45
98,51,54,45
97,51,54,44
97,50,54,44
97,50,54,44
96,50,53,44
96,50,53,44
95,50,53,44
119,49,53,43
118,49,53,44
117,49,63,43
116,48,63,43
115,48,63,43
115,48,62,43
115,48,62,43
114,48,62,42
114,48,61,42
113,47,61,42
112,47,61,41
112,46,61,41
112,46,61,41
134,46,61,41
139,46,60,41
137,45,60,41
137,45,60,41
135,45,60,40
135,45,59,39
135,45,59,39
134,44,59,39
134,44,59,39
133,44,58,39
132,44,58,39
131,44,57,39
131,44,57,39
131,43,57,39
130,43,57,39
129,43,56,39
128,42,56,39
127,43,56,39
127,42,56,38
127,41,56,38
126,42,55,38
125,41,55,38
125,41,55,38
124,41,55,37
124,41,54,37
123,41,54,37
123,41,54,37
122,41,54,37
121,39,53,37
121,40,53,36
120,39,53,36
120,39,52,37
119,39,52,36
118,39,52,35
118,39,51,35
118,39,51,35
117,39,51,35
117,39,51,35
116,38,51,35
115,38,50,35
115,38,51,35
114,38,50,35
114,37,50,34
113,37,50,35
113,37,111,35
112,37,109,34
112,37,108,34
111,36,108,34
111,36,107,34
110,36,106,33
110,35,106,34
109,35,105,33
109,35,104,33
108,35,103,33
108,35,103,33
107,35,103,33
107,35,103,33
106,34,102,32
105,34,102,32
105,34,101,32
127,34,101,31
144,34,100,31
143,33,99,31
143,33,99,31
142,33,99,31
141,33,98,31
140,33,97,31
140,33,97,31
139,33,97,31
138,32,96,31
137,33,96,30
137,31,96,30
135,31,95,30
135,31,94,30
135,31,94,30
134,31,94,30
134,31,93,30
133,31,93,30
132,31,92,30
131,31,92,29
131,31,92,29
131,30,91,29
130,31,91,29
129,30,91,29
129,30,90,29
128,30,89,29
127,30,89,28
127,30,89,28
127,29,88,28
126,29,88,29
125,29,88,28
124,29,87,28
124,29,87,28
124,29,87,28
123,29,86,27
122,29,86,28
122,29,85,27
121,30,85,27
121,47,84,27
120,46,84,27
120,46,83,27
119,46,83,27
119,45,83,27
118,45,83,27
118,45,82,27
117,45,82,27
116,44,81,26
116,44,81,26
115,44,81,26
115,44,80,25
114,44,88,26
114,43,88,25
113,43,88,25
113,43,87,25
112,43,86,25
112,42,86,25
112,42,86,25
111,42,85,25
110,41,84,25
110,41,84,24
109,41,83,25
109,41,84,24
109,41,83,24
108,39,83,24
108,39,82,24
107,39,82,24
107,39,82,24
106,39,81,24
105,39,81,24
105,39,80,24
105,39,79,24
103,38,79,24
103,39,79,24
103,38,79,23
126,38,79,23
129,38,78,23
129,38,78,23
127,38,78,23
127,38,77,23
126,37,77,23
126,37,77,23
125,37,76,22
124,37,76,22
124,37,76,22
124,36,75,22
123,36,75,22
122,36,75,22
122,35,74,22
121,35,74,21
120,35,73,22
120,35,73,21
120,35,73,21
119,34,73,21
118,35,72,21
118,34,71,21
117,34,71,21
117,34,71,21
116,34,71,20
115,34,71,21
115,33,71,20
115,33,71,20
114,33,70,20
114,33,70,20
113,33,70,20
112,33,70,20
112,32,69,19
111,32,69,19
111,31,69,19
111,31,68,20
110,31,68,19
109,31,67,20
109,31,67,19
108,31,67,19
108,31,67,19
108,31,66,19
107,31,66,19
106,31,66,19
106,31,65,19
105,30,65,19
105,31,65,19
103,30,64,19
103,30,64,18
103,30,63,18
103,30,63,18
103,30,63,18
102,30,63,18
102,29,63,18
101,29,62,18
101,29,62,18
100,29,62,17
99,29,62,18
99,29,62,17
99,28,62,17
98,28,61,17
98,28,61,17
98,28,61,17
100,89,61,17
109,107,60,17
109,106,60,17
108,105,59,17
107,105,59,17
107,103,59,17
106,103,58,17
105,103,58,16
105,102,58,17
105,102,57,16
103,101,58,16
103,100,57,16
103,100,57,16
103,99,57,15
102,99,57,16
102,99,56,15
101,98,56,15
100,97,56,15
100,97,56,15
99,97,56,15
99,96,55,15
99,96,55,15
98,96,54,15
98,95,55,15
98,94,54,15
98,94,54,15
97,93,53,15
97,93,54,15
96,93,53,15
96,92,53,14
96,92,53,15
95,91,52,14
95,91,52,14
94,91,52,14
94,90,52,14
93,90,52,14
93,89,51,14
93,89,51,14
92,88,51,14
92,88,51,14
91,88,50,14
91,88,50,14
91,88,50,14
90,87,50,14
90,86,50,14
89,86,50,13
89,86,49,13
89,85,49,13
88,84,49,13
88,85,49,13
88,84,49,13
88,83,48,13
87,83,48,13
87,83,48,13
86,82,48,13
86,82,48,13
85,82,48,13
85,81,47,13
85,81,47,13
84,80,47,13
84,80,47,12
83,79,46,13
83,79,46,13
83,79,46,12
83,79,46,12
82,78,46,12
82,78,46,12
81,78,46,12
81,77,45,12
81,77,45,12
81,77,45,12
80,76,45,12
80,76,45,12
79,76,44,12
79,76,44,12
79,75,44,12
79,75,44,12
78,74,44,11
78,75,45,11
78,74,44,12
77,73,44,11
77,73,44,11
77,73,44,11
76,73,44,11
76,71,43,11
76,71,43,11
75,71,43,11
75,71,43,11
75,71,43,11
75,71,43,11
74,70,42,11
74,70,42,11
73,70,42,11
73,69,42,11
73,69,41,11
73,69,41,10
72,69,41,10
71,68,41,10
71,68,41,10
71,67,41,10
71,67,41,10
71,67,40,10
71,67,41,10
70,66,39,10
70,66,39,10
70,66,39,10
70,65,39,10
69,65,39,10
69,65,39,10
69,65,39,9
68,64,39,9
68,64,39,9
67,63,39,9
67,63,39,10
67,63,39,9
67,63,39,9
71,63,39,9
71,63,39,9
71,63,39,9
71,62,39,9
70,62,39,9
70,62,39,9
70,62,39,9
69,61,38,9
69,61,38,9
69,60,38,9
68,60,38,9
68,60,38,9
67,60,38,9
67,60,38,8
88,59,53,8
88,59,52,8
87,59,52,7
87,59,51,8
86,58,51,8
85,58,51,7
85,58,51,9
85,57,51,8
84,57,50,7
84,57,50,7
83,57,50,7
83,57,50,7
83,57,49,7
82,56,49,7
82,66,49,7
82,90,49,7
81,89,48,7
81,89,48,7
81,88,48,9
80,88,48,7
79,88,48,7
79,88,48,7
79,87,47,7
79,86,47,7
79,86,47,7
78,85,46,7
78,85,46,7
78,84,46,7
77,85,46,7
77,84,46,7
77,83,46,7
76,83,46,7
76,83,45,7
76,82,45,7
75,82,45,7
75,82,45,7
75,81,44,7
74,81,44,7
74,81,44,7
74,80,44,7
73,79,44,7
73,79,44,7
73,79,44,7
73,79,43,7
71,79,43,7
71,78,43,7
71,78,43,7
71,77,42,7
71,77,42,6
71,77,42,6
71,77,41,7
70,76,41,6
70,76,41,6
70,76,41,7
69,75,41,6
103,75,41,6
105,74,41,6
103,74,39,7
103,74,39,6
103,73,39,6
102,73,39,6
102,73,39,6
101,73,39,6
101,71,39,6
100,71,39,6
100,71,39,6
99,71,39,6
99,71,39,6
99,71,58,6
98,70,64,6
98,70,63,6
97,70,63,6
97,70,63,5
96,69,63,6
96,69,62,6
96,69,62,5
95,68,62,6
95,68,62,6
94,67,61,6
94,67,61,5
94,67,61,5
93,67,60,5
93,67,70,5
92,66,71,5
92,66,71,5
92,66,71,5
91,65,71,5
91,65,71,5
91,65,71,5
90,64,70,5
90,64,70,5
89,63,69,5
89,63,69,5
89,63,69,5
88,63,68,5
88,63,68,5
88,63,68,5
88,62,67,5
88,62,67,5
88,62,67,4
88,62,67,5
87,62,66,5
86,61,66,5
86,61,66,5
86,61,65,5
85,60,65,4
85,60,65,5
84,60,64,4
84,60,65,5
84,60,64,4
83,59,63,5
83,59,63,6
83,59,63,4
83,58,63,4
82,58,63,5
82,58,62,4
81,57,62,4
81,57,62,4
81,57,62,4
81,57,61,4
80,56,61,4
79,56,61,4
79,56,61,4
79,56,60,4
79,56,60,4
79,56,62,4
79,55,62,4
78,55,61,4
78,55,61,4
78,55,61,4
77,55,61,4
77,54,60,4
77,54,60,4
77,54,60,4
76,53,60,3
76,53,60,4
76,53,59,4
75,53,59,3
75,53,59,3
75,52,59,3
75,52,58,3
74,52,58,3
74,52,58,4
74,51,57,3
73,51,57,3
73,51,57,3
73,51,57,5
72,51,57,3
71,51,56,3
71,50,56,3
71,50,56,3
71,50,56,3
71,51,56,3
71,51,56,3
71,51,55,3
71,50,55,3
71,50,55,4
70,50,54,3
70,50,54,3
70,49,54,3
69,49,54,3
69,49,54,3
68,49,53,3
68,48,53,3
68,48,53,3
71,48,53,3
73,51,53,3
71,51,52,3
71,50,52,3
71,50,51,3
71,50,51,3
71,49,51,3
70,49,51,3
70,49,50,3
70,49,51,6
70,49,50,23
69,48,50,22
69,48,50,22
69,48,49,22
69,49,73,22
69,49,74,22
69,48,73,22
68,48,73,22
68,48,73,21
68,48,71,22
67,48,71,21
67,47,71,21
67,47,71,21
66,47,71,20
67,47,71,21
66,46,71,20
65,46,70,20
66,46,70,21
66,46,69,21
66,46,69,22
65,46,68,22
65,46,68,22
65,46,68,22
64,45,68,22
64,45,67,22
63,45,67,22
63,45,67,21
63,44,66,22
63,44,66,22
63,44,66,21
63,44,65,21
67,48,65,21
67,48,65,21
67,47,65,21
67,47,64,20
66,47,64,20
66,47,63,20
66,46,63,20
65,46,63,19
65,46,63,25
65,46,63,117
65,46,63,177
64,45,62,175
137,46,62,173
137,45,62,172
135,45,62,171
135,45,61,170
135,45,61,169
134,45,61,167
133,44,60,167
132,44,60,166
131,44,60,165
131,44,59,164
130,44,59,163
130,44,59,163
129,44,58,162
128,43,58,161
127,43,58,159
127,43,57,159
126,42,57,159
126,42,57,158
125,42,57,157
124,41,56,156
124,41,56,156
123,41,56,155
122,41,56,153
122,42,56,153
121,46,55,152
121,47,54,152
121,47,54,151
120,47,54,150
120,46,54,150
119,46,54,149
118,45,53,148
118,45,53,147
117,45,53,147
116,45,52,146
116,45,51,145
115,45,52,145
115,47,51,143
114,47,51,143
114,46,51,143
113,46,51,142
113,45,51,141
112,45,50,141
112,45,50,140
111,45,50,139
111,45,49,139
110,44,49,138
109,44,49,137
109,45,49,137
108,46,48,135
108,46,48,135
108,45,48,135
107,45,48,134
107,45,48,134
106,44,47,133
105,44,47,132
105,44,48,131
103,44,46,131
103,43,46,131
103,43,53,130
105,48,52,129
105,47,84,129
103,47,83,127
103,46,82,127
103,46,82,127
103,46,82,126
103,45,81,125
102,45,81,125
101,45,79,124
101,45,79,124
100,45,79,123
100,44,78,123
99,44,78,123
99,44,78,122
99,43,78,121
98,43,77,121
98,43,77,120
97,43,77,134
97,43,76,133
97,42,76,132
96,42,75,131
96,42,75,131
95,41,75,130
95,41,75,130
94,49,74,129
94,48,73,129
94,48,73,127
93,48,73,127
93,48,73,127
92,47,71,126
92,47,71,125
91,47,71,125
91,47,71,124
91,46,71,124
89,46,70,123
89,46,70,123
92,46,70,122
93,52,69,121
93,52,70,121
92,51,69,120
92,51,68,120
91,51,68,120
91,51,67,119
91,51,67,118
90,50,67,118
89,50,67,117
89,50,67,116
89,50,66,116
88,49,66,115
124,55,66,115
125,55,67,115
124,54,67,114
123,54,67,113
123,54,67,113
122,53,66,113
121,53,66,112
121,53,65,118
120,53,65,159
120,52,65,161
119,51,65,159
118,51,64,159
118,51,63,158
117,51,65,157
117,50,65,156
115,50,65,156
115,50,65,155
115,50,65,153
114,50,64,153
114,49,63,152
113,49,63,152
113,48,63,151
112,48,63,150
135,78,62,149
156,85,62,148
155,84,62,147
154,83,61,147
153,83,61,146
152,83,61,145
152,82,61,145
151,82,60,144
150,81,60,143
149,81,60,143
148,80,60,142
147,79,59,142
147,79,60,141
146,79,59,140
145,79,59,139
145,78,59,139
143,78,59,138
143,78,58,137
143,77,58,137
142,76,57,135
141,76,57,135
140,76,57,135
140,75,57,135
139,75,56,134
139,75,56,133
138,75,56,132
137,74,56,131
135,73,56,131
135,73,55,131
135,73,55,130
135,71,54,129
134,71,54,129
133,71,54,127
133,71,54,127
132,71,70,127
131,71,159,126
131,71,198,126
130,71,195,125
129,71,195,124
129,71,193,124
127,71,192,123
127,71,191,123
127,70,190,122
126,70,189,121
126,69,188,121
125,69,187,120
124,69,185,120
124,68,185,120
123,68,186,119
123,67,185,118
122,67,184,117
121,67,183,117
120,66,183,116
120,66,181,115
120,66,180,115
120,65,179,114
118,65,178,114
118,110,177,114
117,115,177,113
116,114,176,112
115,113,174,112
115,112,174,111
115,112,173,111
114,111,172,110
114,110,171,110
113,110,169,109
