43,13,101,59
43,13,101,59
42,13,100,59
42,12,99,59
42,12,99,58
41,12,99,58
41,12,98,58
41,12,98,57
41,12,97,57
41,12,97,57
39,12,97,57
41,12,96,57
41,12,96,56
41,12,95,56
41,12,95,56
41,12,95,56
39,11,94,56
39,12,94,55
39,11,94,55
39,11,93,55
39,11,92,54
39,11,92,54
39,11,92,54
39,11,92,54
39,11,91,53
42,12,90,53
41,12,90,53
41,11,89,53
41,11,89,53
41,12,89,52
41,12,89,52
39,11,88,52
40,11,88,51
39,11,88,51
39,11,88,51
39,11,87,51
39,11,86,51
67,11,86,50
78,23,86,50
77,23,85,50
76,22,85,50
76,22,85,49
76,22,84,121
75,22,84,177
75,22,83,238
75,22,83,243
74,21,83,241
74,21,82,239
73,21,82,238
73,21,82,237
72,21,81,236
71,20,81,234
71,21,81,231
71,20,80,231
71,20,79,231
71,20,79,229
70,20,79,227
70,19,79,227
70,19,78,226
70,19,78,225
69,19,78,224
69,19,78,223
69,19,77,222
68,19,77,220
67,19,76,219
67,19,76,218
67,19,76,217
67,19,76,216
66,19,75,215
66,19,75,214
66,18,75,213
65,18,74,211
65,18,74,211
65,18,73,210
64,18,73,209
64,18,73,207
63,18,72,207
63,17,72,206
63,17,71,206
63,17,71,204
63,17,71,204
62,17,71,203
62,17,71,202
62,17,71,201
62,17,70,199
61,17,70,199
61,16,70,198
61,17,70,198
61,17,69,197
60,16,69,195
60,16,68,195
59,16,68,194
59,16,68,193
59,16,67,192
59,15,67,192
59,15,67,191
58,15,67,189
58,15,67,189
57,15,66,188
57,16,93,188
59,17,142,186
59,17,140,185
58,17,139,184
58,17,139,184
57,16,137,183
57,16,137,182
57,16,135,181
57,16,135,183
57,15,135,182
56,16,134,181
56,15,134,180
56,15,133,179
56,15,132,179
56,15,131,178
56,15,131,177
56,15,130,176
56,15,130,175
55,15,129,175
55,15,128,174
54,15,127,173
54,15,127,172
54,14,126,172
53,14,126,171
54,14,125,170
54,14,125,169
54,15,124,167
53,14,124,167
53,14,123,167
53,14,122,166
52,14,121,165
52,14,121,164
51,13,121,163
51,14,120,163
51,13,120,162
51,14,119,161
52,13,118,161
51,14,118,159
51,13,117,159
51,13,116,159
50,13,116,158
50,13,115,157
50,13,115,157
50,13,114,156
49,13,114,155
49,13,114,155
49,12,113,154
51,14,112,153
54,15,112,152
53,15,112,152
53,15,110,152
53,15,110,151
52,15,110,150
52,15,109,149
51,15,109,149
51,15,108,148
51,14,108,147
51,15,108,147
50,15,107,146
51,15,167,225
51,15,241,348
50,14,239,353
50,14,236,351
50,14,235,348
50,14,233,346
49,14,231,344
49,14,231,342
49,14,230,339
48,14,229,337
48,14,227,335
48,14,226,333
49,19,225,332
48,19,224,329
48,19,223,327
48,19,222,327
48,19,221,324
48,19,220,323
48,18,218,321
47,19,217,319
47,18,216,318
47,18,216,316
46,18,214,314
46,18,213,312
60,18,212,311
59,18,211,309
59,18,210,307
59,18,209,306
58,18,207,304
58,17,207,303
57,17,206,301
57,17,205,300
57,17,204,299
57,17,204,297
56,17,202,295
56,17,201,294
117,21,201,376
124,36,199,470
123,35,199,465
122,54,198,462
121,55,197,457
120,55,196,455
120,55,195,451
120,54,194,449
119,54,194,446
118,53,193,443
117,53,192,440
117,52,191,437
115,52,190,434
115,52,189,432
115,51,188,519
114,51,187,641
114,51,186,670
113,51,185,664
112,50,185,657
112,50,184,652
111,50,183,646
111,49,182,639
110,49,181,635
109,49,180,630
109,49,179,625
108,49,179,620
108,48,178,614
107,48,177,610
107,48,176,604
106,48,176,601
105,47,175,595
105,47,174,591
104,46,173,587
103,47,172,583
164,67,172,579
162,66,171,574
161,65,170,570
159,66,169,566
159,65,169,561
158,65,167,558
157,64,167,553
156,63,166,551
155,63,166,546
155,65,165,542
153,76,163,539
153,75,163,535
152,74,162,531
151,74,161,527
150,73,161,525
149,73,159,521
149,71,159,517
148,71,159,514
147,71,158,510
147,71,157,507
146,71,156,504
145,70,156,499
143,70,155,497
143,70,155,494
143,69,154,491
142,69,153,487
141,68,152,484
140,68,152,481
140,67,152,478
139,67,150,476
138,67,149,473
137,66,149,470
137,66,148,467
135,65,148,463
135,66,147,462
135,65,146,459
135,64,146,455
134,64,145,453
133,64,144,450
132,63,143,448
131,63,143,445
131,63,143,443
130,62,142,440
129,62,141,438
129,62,141,435
129,62,140,432
127,61,140,430
127,61,139,427
126,61,138,425
126,61,137,422
125,60,137,419
125,60,137,418
124,59,135,415
124,59,135,413
123,59,135,411
123,59,134,408
121,58,133,407
121,58,133,404
120,57,132,402
120,57,131,399
120,57,131,397
119,57,131,396
119,56,130,393
118,56,130,391
117,56,129,389
116,56,128,387
115,56,127,385
115,55,127,383
115,55,127,381
114,54,126,379
114,54,125,377
113,54,125,375
112,53,124,372
112,53,124,371
112,53,123,369
111,53,123,367
110,52,122,365
110,52,157,363
110,51,156,361
109,51,156,359
108,51,154,358
108,51,153,499
107,51,153,496
107,50,152,492
106,50,152,487
106,50,150,485
105,50,150,481
105,49,149,478
103,49,147,474
103,48,147,471
103,48,146,467
103,48,146,464
102,48,145,462
102,48,144,458
101,48,143,455
101,47,143,453
101,47,142,450
100,47,142,447
99,46,141,444
110,46,140,441
145,67,140,439
144,66,139,436
143,65,138,433
143,65,137,430
142,65,135,428
141,64,135,425
140,63,135,423
139,63,135,420
139,63,134,417
138,62,134,415
137,62,133,412
137,62,132,410
135,62,131,408
135,61,131,405
134,61,130,418
134,61,130,507
133,60,129,503
131,60,128,499
131,59,127,495
131,59,127,492
130,59,126,487
129,58,126,485
129,58,125,481
128,57,125,478
127,57,124,475
127,57,124,471
126,57,123,468
126,56,123,465
125,56,122,462
124,56,121,459
124,56,121,455
123,55,120,453
123,56,120,450
121,54,120,448
121,54,119,445
121,54,118,442
120,54,118,440
120,54,117,435
119,53,116,433
119,53,115,431
118,53,115,428
117,52,115,425
117,52,114,423
116,51,114,420
115,51,114,417
115,61,113,415
114,62,113,413
114,62,112,410
113,61,112,408
113,61,111,406
112,61,110,403
112,60,110,401
111,60,110,399
110,60,109,396
110,60,109,393
110,59,108,391
109,59,108,389
108,58,107,387
108,58,107,385
107,57,107,383
107,57,106,381
106,57,105,379
105,57,105,376
105,57,105,374
103,56,103,371
103,56,103,370
103,56,103,368
103,56,103,366
103,60,103,364
102,59,102,362
102,59,101,359
101,59,101,358
101,58,100,357
100,58,100,354
99,58,99,353
99,57,99,352
99,57,99,349
98,57,99,348
98,57,98,347
98,56,98,345
97,56,98,372
97,56,97,386
96,56,97,384
96,55,96,382
96,54,96,379
95,54,96,377
95,54,95,375
94,54,94,373
94,54,95,371
94,53,94,368
93,53,93,367
98,53,93,364
108,52,93,362
107,52,101,359
107,52,163,358
106,52,167,356
105,51,166,354
105,51,165,352
103,50,164,350
103,51,163,348
103,50,163,345
102,50,162,344
102,50,161,342
101,49,159,341
125,49,159,339
124,49,158,337
123,49,157,335
122,48,156,334
121,48,156,332
121,48,155,329
120,48,154,327
120,47,153,327
119,47,152,325
118,46,165,323
117,47,164,322
117,46,163,321
116,46,162,319
115,46,161,318
115,46,161,316
114,45,159,314
114,45,159,313
113,45,158,312
113,44,157,310
112,44,156,308
112,44,156,307
145,44,155,305
144,44,185,304
143,44,243,303
143,44,242,301
142,43,240,300
141,43,239,298
140,43,237,297
140,43,236,295
139,42,235,294
138,42,233,293
137,42,231,291
137,42,231,290
135,54,230,289
135,53,228,287
135,53,228,286
134,53,227,285
133,52,226,283
132,52,224,282
132,51,224,281
131,51,222,280
130,51,221,278
129,51,220,277
129,50,219,275
128,51,218,274
127,51,216,273
127,52,216,271
126,52,215,271
126,51,214,269
125,51,212,268
124,51,211,267
124,51,211,265
123,50,209,263
123,50,209,263
122,50,207,262
121,50,206,261
121,50,205,259
120,49,204,259
120,49,203,257
120,49,202,256
118,48,201,255
118,48,200,254
117,48,199,253
116,47,198,252
116,47,198,251
115,47,197,249
115,47,195,248
114,47,195,248
114,47,194,246
113,46,192,245
112,46,192,244
112,46,191,243
112,46,190,242
111,45,189,241
111,45,188,240
110,46,188,239
110,142,187,238
114,204,185,237
202,201,265,236
199,199,294,234
198,199,291,233
196,198,289,231
195,196,287,231
194,195,286,230
193,194,284,229
192,193,282,228
191,192,280,227
190,191,279,226
193,189,277,225
209,188,275,224
207,187,274,223
207,186,273,222
205,185,271,221
204,184,269,220
203,184,268,219
201,182,267,218
199,181,265,217
199,180,263,216
199,179,262,216
197,178,261,214
196,177,259,213
195,176,258,212
194,176,255,211
193,174,255,211
192,173,254,209
190,173,252,208
190,172,251,207
189,171,249,207
188,169,248,206
187,169,248,205
185,167,246,204
185,167,244,203
184,166,243,202
183,166,242,201
182,165,241,199
181,163,240,199
179,163,239,199
179,162,237,198
178,161,236,197
177,160,235,196
176,159,233,195
175,159,231,195
174,158,231,194
173,157,230,193
173,156,229,192
172,155,228,191
171,155,227,190
170,154,225,190
169,153,225,189
167,152,224,188
167,152,222,187
167,155,221,187
166,211,220,185
165,210,219,185
164,209,218,184
163,207,217,184
163,206,216,182
162,205,215,182
161,204,214,181
159,203,213,179
159,201,211,179
158,199,211,178
158,199,209,177
157,198,208,177
156,197,207,176
155,195,207,175
155,194,206,174
154,193,205,174
153,192,204,173
152,191,203,172
152,190,202,172
151,189,201,171
150,189,201,170
149,187,199,169
148,186,199,169
147,185,199,167
147,184,198,167
146,184,196,166
145,182,195,165
144,182,195,165
143,180,194,165
143,179,193,163
142,179,192,163
185,178,191,162
184,177,190,162
183,176,189,161
182,175,188,159
180,173,188,159
179,173,187,159
178,172,185,158
177,171,185,157
176,186,184,157
175,214,184,156
174,212,182,155
174,211,181,155
173,209,180,154
172,209,179,153
171,207,179,153
169,206,178,152
169,205,177,152
167,211,176,151
167,211,211,150
166,210,210,150
166,209,209,149
165,259,207,148
163,275,206,147
162,272,205,147
162,271,204,146
161,269,203,146
160,267,202,145
159,265,201,144
158,263,199,143
158,263,199,143
157,261,198,143
182,259,197,142
180,327,196,142
211,323,195,141
210,321,194,141
208,319,193,140
207,316,192,139
206,314,191,139
204,313,190,138
204,311,189,137
203,309,188,137
201,307,187,135
199,305,185,135
199,304,185,135
198,335,184,135
197,332,183,134
195,331,182,134
195,327,181,133
193,326,180,133
192,323,179,131
192,322,179,131
190,319,178,131
190,318,275,130
188,316,369,130
188,315,504,129
186,313,664,129
185,311,746,127
185,308,739,127
184,307,731,127
182,305,723,126
182,304,715,152
181,302,710,151
179,300,702,150
179,299,696,149
178,297,689,147
177,295,684,147
176,293,678,146
175,291,671,145
174,290,665,144
173,288,660,143
172,287,655,148
172,285,649,147
171,284,643,147
170,282,639,146
169,280,633,145
167,280,627,144
171,278,623,143
216,293,617,143
214,291,614,142
213,290,608,141
211,287,604,141
211,286,599,140
209,284,595,139
207,283,591,138
207,283,587,137
206,281,582,137
204,280,578,135
203,279,574,135
202,277,569,135
201,275,566,187
199,273,562,207
199,271,558,206
198,271,553,205
197,270,549,204
195,268,546,202
195,267,542,201
193,266,539,199
193,263,535,199
192,263,531,198
190,262,527,197
190,260,524,195
188,259,519,195
188,257,518,193
187,255,514,192
185,255,510,192
185,253,507,190
235,252,503,189
238,251,499,188
237,249,497,187
235,248,494,186
234,247,489,185
231,246,487,184
231,244,484,183
230,243,481,182
228,242,478,181
227,307,476,180
229,306,473,179
300,304,469,178
298,302,466,177
295,300,463,176
294,298,461,176
291,295,458,175
290,295,455,174
288,293,453,173
287,291,450,172
285,289,448,171
284,287,444,170
282,286,443,169
280,284,441,169
278,283,486,167
277,281,481,167
275,280,479,166
274,278,475,165
272,277,472,164
271,275,467,163
269,273,463,163
268,271,462,162
266,270,459,161
265,269,455,159
263,267,451,159
262,266,450,159
261,265,447,158
259,263,443,157
258,262,440,156
255,260,438,155
255,259,435,155
253,257,432,154
252,255,430,153
251,254,428,152
249,253,425,152
248,252,423,151
247,250,419,150
246,249,418,149
244,248,415,148
242,247,413,147
241,245,411,147
240,243,408,146
239,243,406,145
238,241,403,145
237,240,401,144
236,239,399,143
234,238,397,143
233,237,395,142
231,235,393,142
231,234,391,141
229,231,388,140
228,231,387,139
227,231,384,139
226,230,382,138
225,228,380,137
224,227,378,137
222,226,376,135
221,225,374,135
220,227,372,135
219,225,370,134
218,224,368,133
217,223,366,133
216,222,364,132
215,221,363,131
214,220,359,131
213,219,359,131
211,217,357,129
211,217,355,129
209,216,353,129
207,215,351,127
207,213,350,127
207,212,348,127
205,211,346,126
204,211,344,126
203,209,342,125
202,207,341,124
201,207,339,124
199,206,337,123
199,205,335,123
198,204,334,122
198,203,332,121
196,202,330,121
195,201,327,121
194,199,327,120
194,199,326,120
192,199,324,120
192,198,322,119
191,197,321,118
190,195,319,118
189,195,318,117
188,194,316,117
187,193,315,116
186,192,313,115
185,191,312,115
185,190,310,115
184,189,309,114
183,188,307,114
182,188,305,113
181,186,304,113
179,185,303,112
179,185,301,112
179,184,300,112
177,184,298,111
176,182,295,110
176,181,295,110
175,180,294,109
174,179,293,109
173,179,291,108
173,178,290,108
172,177,288,108
171,176,287,107
170,176,286,106
169,174,285,106
167,174,283,106
167,173,282,105
167,172,280,105
166,172,280,103
165,171,278,103
164,170,276,103
165,169,275,103
164,167,274,103
163,167,273,102
163,167,271,102
162,166,270,102
161,165,269,101
160,164,268,100
159,163,267,100
159,163,265,100
158,162,263,99
158,161,263,99
157,161,262,99
156,159,261,98
155,159,259,98
155,158,259,97
154,158,257,97
153,157,255,97
153,156,255,96
152,156,254,96
152,155,253,96
151,155,252,95
150,153,251,94
149,153,249,94
149,152,248,94
148,152,348,94
147,152,493,93
147,150,615,93
146,150,797,92
145,149,901,92
144,148,909,91
143,147,914,91
143,147,916,91
143,146,919,90
142,146,920,90
142,145,921,89
141,144,923,89
141,143,924,89
140,143,925,88
139,142,926,88
139,142,926,88
138,141,927,88
137,141,927,88
135,140,929,87
135,139,929,86
135,139,929,86
135,138,930,85
135,137,931,85
134,137,931,85
133,135,931,85
132,135,931,84
131,135,932,84
131,135,933,83
131,134,933,83
131,133,933,83
130,133,934,82
129,132,934,82
129,131,934,82
127,131,935,82
127,131,935,81
127,130,935,81
126,129,935,80
126,129,936,80
125,128,937,80
125,127,936,79
124,127,937,79
124,127,937,79
123,126,937,78
143,126,938,78
143,125,938,78
142,125,938,78
141,124,937,77
140,124,933,77
140,123,915,77
139,123,888,77
138,122,877,76
137,121,869,76
135,121,859,76
135,120,852,76
135,120,843,75
135,120,833,75
134,119,826,75
133,118,818,74
132,118,812,74
131,117,803,73
131,117,795,73
130,116,788,73
130,115,780,71
129,115,775,71
128,115,767,71
127,114,760,71
127,114,753,71
126,113,746,71
126,113,740,71
125,112,734,71
125,112,728,70
124,112,722,70
123,111,716,70
123,110,710,69
122,110,704,69
121,110,699,69
121,109,693,69
121,109,687,68
120,108,681,67
120,108,675,67
119,107,671,67
119,107,666,67
118,107,660,67
118,106,655,66
117,105,650,66
116,105,646,66
116,103,641,66
115,103,637,65
115,103,632,65
114,103,626,65
114,103,623,65
113,102,618,64
113,102,614,63
112,101,609,63
112,101,604,63
111,100,601,63
111,100,596,63
111,99,593,63
110,99,588,62
110,99,585,62
109,105,580,62
109,105,577,62
108,105,573,61
108,103,569,61
107,103,565,61
107,103,561,61
107,103,558,60
106,102,554,60
105,101,551,60
105,101,547,60
103,100,543,59
103,100,540,60
103,99,537,59
103,99,533,59
103,98,531,59
102,98,527,59
102,97,524,58
102,97,520,58
101,97,518,57
101,97,515,57
100,96,511,57
100,95,509,57
99,95,506,57
99,95,503,56
99,94,499,56
98,94,497,56
98,94,495,56
98,93,492,56
97,93,489,55
97,92,487,56
96,92,485,55
96,92,481,55
96,92,479,54
95,91,477,54
95,91,474,54
94,91,472,54
94,90,469,54
94,89,467,54
93,89,465,53
93,89,462,53
92,88,460,53
92,88,457,53
92,88,455,52
92,88,452,53
92,87,451,52
91,87,448,52
90,87,446,51
90,86,444,51
90,86,441,51
89,86,440,51
89,85,438,51
89,85,435,51
89,84,433,51
88,84,431,50
88,83,429,50
88,83,426,50
87,83,423,50
87,83,423,49
86,82,421,49
86,82,418,49
85,82,415,49
85,81,414,48
85,81,412,49
85,81,410,48
84,81,408,48
83,80,407,48
83,79,405,48
83,79,403,48
83,79,401,48
83,79,399,47
82,79,397,47
82,78,395,47
82,78,393,47
82,78,391,46
81,77,390,46
81,77,387,46
81,77,386,46
80,76,384,46
80,76,383,45
79,76,380,45
79,76,379,45
79,75,377,45
78,75,376,45
78,75,374,45
78,75,372,45
78,74,371,44
77,74,369,44
77,73,368,44
77,73,366,44
77,73,364,44
76,73,363,44
76,71,359,44
76,71,359,43
75,71,358,43
75,71,355,42
75,71,355,43
82,71,353,43
81,71,351,42
81,70,350,42
81,70,348,42
80,70,347,42
79,70,345,42
79,69,344,41
79,69,342,41
79,69,341,41
79,69,339,41
78,68,338,41
77,67,336,39
77,67,335,40
77,67,334,40
76,67,332,39
76,67,331,39
76,67,329,39
76,66,327,39
75,66,327,39
75,66,325,39
75,65,323,39
75,65,323,39
74,65,321,39
73,65,319,39
73,64,318,39
73,64,317,39
71,63,316,38
71,63,315,38
71,63,313,38
71,63,312,38
71,63,311,37
71,63,310,38
71,63,307,37
71,62,307,37
71,62,305,37
70,62,304,37
70,61,303,37
69,61,302,37
82,61,301,37
82,61,300,36
81,60,298,36
81,60,295,36
80,60,295,35
79,60,295,35
79,59,293,35
79,59,292,35
79,59,291,35
79,59,290,35
78,59,288,35
78,58,287,35
79,58,286,35
93,58,286,34
93,57,284,34
92,57,283,35
92,57,282,34
91,57,281,34
91,56,280,33
90,56,279,34
89,56,278,33
89,56,276,33
89,56,275,33
88,56,274,33
88,55,273,33
88,55,271,33
87,55,271,32
87,54,270,32
86,54,269,32
86,54,268,32
85,54,267,31
85,54,265,31
85,53,264,31
84,53,263,31
83,53,263,31
83,53,262,31
184,53,261,31
183,52,259,31
182,52,258,31
181,51,257,31
179,51,255,30
179,51,255,30
177,51,254,30
177,51,253,30
176,51,252,30
175,51,251,30
174,51,250,30
173,50,249,30
172,50,248,30
171,49,247,29
170,49,246,29
169,49,245,29
169,49,243,29
167,48,243,29
167,49,242,29
166,48,241,29
165,48,240,29
164,48,240,28
163,48,238,28
163,47,237,28
162,53,237,28
161,53,236,28
161,53,235,28
159,52,233,27
159,52,233,27
158,51,231,28
158,52,231,27
157,51,230,27
156,51,229,27
156,51,228,27
154,50,227,27
154,50,227,27
153,50,226,27
152,50,225,26
152,49,224,26
152,49,223,26
150,49,222,26
150,49,222,26
149,49,220,26
148,48,220,25
147,48,219,25
147,48,218,25
146,48,217,25
145,47,216,25
145,47,216,25
144,46,215,25
143,47,214,24
143,46,213,25
142,46,212,25
142,46,211,25
141,46,211,24
140,45,210,24
140,45,209,25
139,45,207,24
138,45,207,24
141,57,206,24
203,58,206,24
201,57,205,24
199,57,204,24
198,57,203,23
197,57,203,24
196,56,202,23
195,56,201,24
194,56,199,23
193,56,199,23
192,55,199,22
191,55,198,22
190,55,197,23
189,54,197,23
188,54,195,22
187,54,195,22
187,53,194,22
185,53,193,22
185,53,193,22
184,52,192,22
183,52,192,21
182,51,191,22
181,51,190,21
181,51,189,21
180,51,189,21
179,51,188,21
179,50,187,21
178,50,187,21
177,50,185,21
176,49,185,20
175,49,184,20
174,49,184,21
174,49,184,20
172,48,182,20
172,48,181,20
171,48,181,20
170,48,180,19
169,47,179,19
167,47,179,19
167,47,178,20
167,47,177,19
166,47,177,19
166,46,176,19
164,46,176,19
164,46,175,20
163,46,174,19
162,45,174,19
161,45,173,19
161,45,172,19
159,45,172,18
159,45,171,18
158,44,171,19
158,44,170,18
157,44,169,18
156,44,168,19
156,43,167,18
155,43,167,18
154,43,167,18
153,43,166,18
153,43,166,18
152,43,165,17
152,42,164,17
151,42,163,17
150,41,163,17
150,42,163,18
148,41,162,17
148,41,161,23
147,41,161,36
147,41,159,35
146,41,159,35
145,41,159,35
145,39,158,35
143,39,158,35
143,39,157,34
143,39,156,34
142,39,156,34
141,39,156,34
141,39,155,33
140,39,155,33
139,39,153,33
139,39,153,33
138,38,153,33
137,38,152,32
137,38,152,32
135,38,151,32
135,38,150,31
135,37,150,31
135,37,149,31
134,37,149,31
133,37,148,31
133,37,147,31
132,37,147,31
131,36,146,30
131,36,146,30
131,36,145,31
130,36,145,30
129,36,144,30
129,35,143,30
127,35,143,29
127,35,143,30
127,35,142,29
126,35,142,29
126,35,141,29
125,34,141,29
125,35,140,28
124,34,140,28
124,34,139,29
123,34,139,28
122,34,138,28
122,34,137,28
121,33,137,28
121,34,137,28
121,33,135,27
120,33,135,27
120,33,135,27
119,33,135,27
119,33,134,27
118,32,134,27
117,32,133,26
117,33,133,26
116,32,132,26
115,32,131,26
115,32,131,26
115,31,131,25
114,31,131,25
114,31,130,25
113,31,130,25
113,31,129,25
112,31,129,25
112,31,127,24
111,31,127,24
111,31,127,24
110,31,127,24
110,30,126,24
110,30,126,24
109,30,125,24
109,30,125,24
108,30,124,24
108,30,124,24
107,30,124,24
107,29,123,23
107,29,123,23
106,29,122,23
106,29,122,23
105,29,121,22
105,28,121,22
103,29,120,22
103,28,120,22
103,28,120,22
103,28,119,22
103,28,119,22
102,28,118,22
101,28,118,21
101,28,117,21
101,27,117,21
100,27,117,21
99,27,116,21
99,27,115,21
99,27,115,20
99,27,115,21
98,27,114,20
98,27,114,20
97,27,114,20
97,26,113,19
96,26,113,20
96,26,113,20
96,26,112,19
96,26,112,19
95,25,111,19
95,25,111,19
94,25,111,19
94,25,110,19
93,25,110,19
93,25,109,19
93,25,109,19
92,25,109,19
92,25,108,19
92,25,108,18
91,24,108,19
91,24,107,18
90,24,107,18
89,24,106,18
89,24,107,18
89,24,106,18
89,24,105,18
88,24,105,18
88,24,105,18
88,24,103,18
88,23,103,18
87,23,103,17
87,23,103,17
87,23,103,17
86,22,103,17
86,22,102,17
85,22,102,16
85,22,101,17
85,22,101,17
84,22,101,16
83,22,100,16
83,22,100,16
83,22,99,16
83,22,99,16
82,22,99,16
82,21,99,16
82,22,99,16
81,22,98,15
81,21,98,16
81,21,97,16
81,21,97,15
80,21,97,15
79,21,96,15
79,21,96,15
79,21,96,15
79,21,96,15
79,20,96,15
78,21,95,15
78,20,95,15
77,20,94,15
78,20,94,15
77,19,93,15
77,20,94,14
77,19,93,15
76,20,93,15
76,19,92,14
76,19,92,14
75,19,92,14
75,19,92,14
75,19,91,14
75,19,91,14
74,19,91,14
74,19,90,14
74,19,90,14
73,19,89,14
73,19,89,13
73,18,89,14
72,18,89,14
71,18,89,14
71,18,88,13
71,18,88,13
71,18,88,13
71,18,88,13
75,23,88,13
75,25,87,13
74,25,86,13
74,25,86,13
73,24,86,13
73,24,86,13
73,24,85,13
73,24,85,12
72,24,85,12
71,24,84,12
71,24,84,12
71,24,84,13
71,24,83,12
71,24,83,12
109,31,83,12
110,36,83,12
109,36,83,12
108,35,82,12
108,35,82,12
108,35,82,12
107,35,82,12
107,35,81,12
106,35,81,12
105,35,80,12
105,34,80,12
103,34,79,12
103,34,79,11
103,34,79,12
103,34,79,11
102,33,79,11
102,33,78,11
101,33,78,11
101,33,78,11
100,32,78,11
100,32,78,11
99,32,77,11
99,31,77,11
99,31,77,11
98,31,76,11
99,32,76,11
99,33,76,10
99,32,76,11
98,32,76,10
98,32,75,10
98,32,75,10
97,32,75,10
97,31,74,10
96,31,74,10
96,31,74,10
96,31,74,10
95,31,73,9
95,31,73,10
94,31,73,9
94,31,73,9
93,30,71,10
93,30,71,10
93,30,71,9
92,30,71,9
92,30,71,9
92,30,71,9
91,29,71,9
91,29,71,9
91,29,71,9
90,29,71,9
89,29,70,9
89,29,70,9
89,29,70,9
88,29,70,9
88,28,69,9
88,28,69,9
88,28,69,9
87,28,68,9
87,28,69,9
86,28,68,9
86,28,68,9
86,27,68,9
85,27,67,9
85,27,67,7
84,27,67,9
84,27,67,7
83,27,66,7
83,27,66,7
83,27,66,7
83,27,66,7
83,26,66,8
82,26,65,7
82,26,65,7
81,26,65,7
81,25,65,7
81,25,65,7
80,25,64,7
80,25,64,7
79,25,64,7
79,25,64,7
79,25,63,7
79,25,63,7
78,25,63,7
78,25,63,8
78,24,63,7
78,24,63,7
77,24,62,8
77,24,62,7
77,24,62,7
76,24,62,7
76,24,62,7
76,24,62,7
76,24,61,7
75,24,61,7
75,23,61,7
74,23,61,7
74,23,61,7
74,23,60,8
73,23,60,7
73,23,60,7
73,23,60,7
73,22,60,7
71,22,59,7
71,22,60,7
71,22,59,7
71,22,59,7
73,22,59,7
75,50,58,7
74,49,58,7
74,49,58,7
74,49,58,7
73,48,58,7
73,48,57,7
73,48,57,7
73,48,57,7
71,48,57,7
71,48,57,7
71,47,57,7
71,47,56,7
71,46,56,7
71,46,56,7
70,46,56,7
70,46,56,7
70,46,56,7
69,45,56,7
69,45,55,6
69,45,55,6
69,45,55,6
68,45,55,6
68,44,55,6
68,44,54,6
67,44,54,6
67,44,54,7
67,44,54,6
67,43,53,6
67,43,53,6
67,43,53,6
66,43,53,6
66,42,53,6
66,42,53,6
65,42,52,6
65,42,52,6
65,41,52,6
65,41,52,6
65,41,51,6
64,41,51,6
63,41,51,5
63,41,51,6
63,39,51,6
63,41,51,6
63,41,51,6
63,39,51,6
63,39,51,5
62,39,50,6
62,39,50,5
62,39,50,5
62,39,50,5
62,39,49,5
62,39,49,6
61,39,49,5
61,38,49,5
61,38,49,5
60,38,49,5
61,39,48,5
61,39,49,5
60,39,48,5
60,39,48,5
60,39,48,5
59,39,48,5
60,38,47,5
59,38,48,5
59,38,48,5
59,38,47,5
59,37,47,5
58,37,47,5
58,37,47,5
59,38,47,5
59,38,46,5
59,38,46,5
59,37,46,5
59,37,46,5
58,37,46,4
58,37,46,5
57,36,45,5
57,36,45,4
57,36,45,5
57,35,45,4
57,35,45,5
56,35,45,4
56,35,45,4
66,35,44,4
67,35,44,4
67,35,44,4
67,35,44,4
67,35,44,5
66,35,44,4
66,34,44,4
65,34,44,4
65,34,43,4
65,34,43,4
65,34,43,4
65,33,43,3
64,33,43,4
64,49,43,4
64,61,42,4
63,61,42,3
63,60,42,4
63,60,42,3
63,60,41,4
62,59,41,3
62,59,41,3
62,59,41,3
62,59,41,3
61,58,41,4
61,58,41,5
61,57,41,4
61,57,39,3
60,57,41,3
61,57,39,3
61,56,39,3
60,56,39,3
60,56,39,3
60,56,39,3
60,56,39,3
60,56,39,3
59,55,39,3
59,55,39,3
59,54,39,3
58,54,39,3
58,54,39,3
58,54,39,3
57,54,39,3
57,53,38,3
57,53,38,3
57,53,39,3
57,53,38,3
56,52,38,3
56,52,38,3
56,52,38,3
56,51,38,3
56,51,37,3
56,51,37,3
56,51,37,3
55,51,37,3
55,50,37,3
55,50,37,3
54,50,36,3
54,50,36,3
54,49,37,3
53,49,36,3
53,49,36,3
53,49,36,3
53,48,35,3
52,48,35,3
53,48,35,3
52,48,36,3
52,48,35,2
52,48,35,3
51,47,35,3
52,48,35,3
51,47,35,3
51,47,35,4
51,46,34,2
51,46,35,3
51,46,34,3
51,46,34,3
51,46,34,3
50,46,34,3
50,45,34,3
50,45,34,3
50,45,34,2
50,45,34,2
50,45,33,3
53,44,33,3
53,44,33,3
53,44,33,3
52,44,33,3
53,44,33,2
52,43,33,3
52,43,33,2
52,43,32,3
52,43,32,2
51,43,31,2
51,43,31,3
51,42,31,3
51,42,31,2
84,57,31,2
101,70,31,2
100,70,31,2
99,69,31,2
99,69,31,2
99,68,31,2
98,68,31,3
97,68,31,2
97,67,31,2
97,67,31,2
96,67,31,3
96,67,30,2
96,66,30,2
95,66,30,3
95,66,30,2
94,65,30,2
94,65,30,2
94,65,30,2
93,64,30,3
93,64,30,2
92,63,29,2
92,63,29,2
92,63,29,2
91,63,29,2
91,63,29,2
90,63,29,2
90,62,29,2
89,62,29,2
89,62,29,2
89,61,28,2
88,61,29,2
88,61,28,2
88,60,28,2
87,60,28,2
86,60,28,2
86,60,28,2
86,60,28,2
86,59,28,2
85,59,28,2
85,59,27,2
85,58,27,2
84,58,28,2
84,58,27,2
84,57,27,2
83,57,27,2
83,57,27,3
83,57,27,2
83,56,27,2
82,57,27,2
82,56,27,2
81,56,26,2
81,56,27,2
80,56,26,2
80,56,26,2
79,55,26,2
79,55,26,2
79,55,26,2
