9,5,62,52
9,5,62,52
9,5,62,51
39,5,61,51
49,5,62,51
48,5,61,51
48,5,61,51
48,5,61,51
47,5,60,50
48,5,60,50
47,5,60,50
47,5,60,50
46,5,59,50
46,5,59,49
46,5,59,49
46,5,59,49
45,5,59,49
45,5,58,49
45,4,58,48
45,5,58,48
45,5,57,48
44,4,57,47
44,5,57,47
44,5,57,47
44,4,57,47
44,4,56,47
43,4,56,47
43,4,56,46
43,4,56,46
43,4,56,46
43,4,56,46
42,4,56,46
42,4,56,45
42,4,55,45
42,4,55,45
41,4,55,45
41,4,54,45
41,4,54,44
41,4,54,44
41,3,54,44
40,4,54,44
39,4,53,43
39,4,53,43
39,3,53,43
39,4,53,43
40,3,52,43
39,3,54,42
39,4,53,42
39,3,53,42
39,3,53,42
39,4,53,41
39,4,53,41
39,3,52,41
39,3,52,41
39,3,52,41
38,3,51,41
38,3,51,40
38,3,51,39
38,3,51,39
38,3,51,39
38,3,51,39
37,3,51,39
37,4,50,39
37,4,50,39
37,5,50,39
36,4,50,39
36,4,49,39
36,5,49,38
36,4,49,38
36,4,49,38
35,4,49,38
35,4,54,38
35,4,53,38
35,4,53,38
35,4,53,37
35,4,53,37
35,4,52,37
35,4,52,37
35,4,51,36
35,3,51,36
34,3,51,36
34,3,51,36
34,4,51,36
34,4,50,36
34,3,51,36
34,3,50,35
37,4,50,35
49,3,52,35
49,3,51,35
49,4,52,35
49,3,51,35
48,3,51,35
48,3,51,35
48,3,51,35
48,3,50,34
47,4,51,34
47,3,50,34
47,3,50,34
46,3,50,34
46,3,49,33
46,3,49,33
46,3,49,33
46,3,49,33
46,3,48,33
46,3,48,33
45,3,48,33
45,3,48,33
45,3,48,32
45,3,48,32
45,3,47,32
44,3,47,31
44,3,47,31
44,3,47,31
44,3,47,31
44,3,47,31
43,3,46,31
43,3,46,31
43,3,46,31
43,3,46,31
42,3,46,31
42,3,45,30
42,3,45,30
42,3,45,30
41,3,45,30
41,3,45,30
41,3,44,29
41,4,45,30
51,3,44,29
51,3,44,29
51,3,54,29
50,3,55,29
50,3,54,29
50,3,54,28
50,3,54,29
50,3,53,29
49,3,53,28
49,3,53,29
49,5,53,29
49,5,53,29
48,5,52,28
48,5,52,28
48,5,51,28
48,5,51,28
47,5,51,28
47,5,51,28
47,5,51,28
47,5,50,28
46,5,50,28
46,4,50,27
46,5,50,28
46,4,50,27
46,5,49,27
45,4,49,27
45,5,49,27
45,5,49,27
45,4,49,26
45,4,49,26
44,4,49,26
44,5,49,26
44,4,49,26
44,4,48,25
44,4,48,25
43,4,48,25
43,4,48,25
43,4,48,25
43,4,48,25
43,4,48,25
43,4,47,25
42,4,47,25
42,4,46,25
42,4,46,25
42,4,46,25
41,4,46,25
41,3,46,24
41,3,46,24
41,3,45,24
41,3,45,24
40,3,45,24
41,3,45,24
39,4,44,24
39,3,44,24
39,4,44,24
39,3,44,24
39,3,44,24
39,3,44,23
39,3,43,23
39,3,44,23
39,3,43,22
39,3,43,23
39,3,43,22
39,3,43,22
38,3,42,22
38,3,42,22
38,3,42,22
38,3,42,22
37,3,42,22
38,3,42,30
38,3,62,41
51,4,115,47
51,10,114,48
51,10,113,47
50,10,113,47
50,10,112,47
50,9,112,46
49,9,111,46
49,9,110,46
49,9,110,46
48,24,109,45
48,23,109,45
48,24,108,45
48,23,108,45
48,23,108,44
48,23,107,44
47,23,106,44
47,22,105,44
47,22,105,43
46,22,105,43
46,22,103,43
46,22,103,43
46,22,103,43
45,22,103,42
45,22,103,43
46,21,103,42
45,21,102,41
45,21,102,41
44,21,101,41
44,20,101,41
44,21,100,41
44,21,99,41
44,20,99,39
43,20,99,41
43,20,98,39
43,20,98,39
43,19,97,39
43,19,97,39
43,20,97,39
54,19,96,39
53,19,96,39
53,19,96,39
53,19,95,39
52,19,95,39
52,19,94,39
51,19,94,38
51,19,94,38
51,18,93,38
51,18,93,38
51,18,92,38
50,18,92,37
51,18,92,38
50,18,91,37
49,18,91,70
50,18,91,159
50,18,90,275
49,18,89,314
49,17,89,311
48,17,88,309
48,17,88,307
48,17,88,305
48,17,88,304
48,17,87,302
47,17,87,300
47,17,87,298
46,17,86,297
46,16,86,295
46,17,86,294
46,16,85,291
46,16,85,291
46,16,84,289
45,16,83,287
45,16,83,286
45,16,83,284
45,15,83,284
44,15,83,281
44,15,82,280
44,15,81,280
44,16,81,278
44,16,81,276
44,18,80,275
43,18,80,273
43,17,79,272
43,17,79,271
43,18,79,270
42,17,79,268
42,17,78,268
42,17,109,266
41,17,203,278
41,17,203,413
41,17,201,415
41,18,199,412
39,18,199,408
41,18,198,406
39,20,197,403
40,19,195,401
39,19,195,398
39,19,194,396
39,19,193,393
39,19,192,391
39,19,191,389
39,30,190,386
39,30,189,384
39,30,188,382
39,29,187,380
39,29,186,381
39,29,185,471
39,28,184,467
39,29,184,463
39,28,183,460
44,28,182,457
46,28,181,454
57,28,179,451
56,28,179,448
56,28,178,445
56,27,177,443
56,27,177,440
55,27,176,437
54,27,175,434
54,26,174,432
54,26,173,428
54,26,173,427
66,27,172,423
85,26,171,422
84,26,170,419
84,26,170,415
83,25,169,414
83,28,167,412
83,28,167,409
82,28,166,408
81,27,166,404
81,28,165,403
81,27,164,399
80,27,163,398
80,27,163,396
79,27,162,393
79,27,161,391
79,26,161,389
78,26,159,387
78,26,159,385
77,28,158,383
77,28,158,381
76,28,157,378
76,28,156,377
76,27,156,375
135,27,155,373
229,27,154,370
225,27,153,369
224,27,153,366
222,26,152,364
221,26,152,362
220,25,151,359
218,25,150,359
217,25,149,356
216,25,148,355
215,25,147,352
214,25,147,350
212,25,146,349
211,25,146,347
210,25,145,345
208,25,144,344
207,24,143,341
207,39,143,339
205,56,142,338
204,56,142,335
203,56,141,334
202,55,140,332
201,55,140,331
199,54,139,327
199,54,141,327
198,53,151,326
197,53,150,324
195,53,149,322
195,52,148,319
194,52,147,319
193,52,147,317
192,51,146,316
191,51,145,314
190,51,144,312
189,51,143,312
188,50,143,309
188,50,142,307
187,49,142,306
185,49,141,305
184,49,140,304
184,49,140,302
183,49,139,300
182,53,138,299
181,53,137,297
180,52,137,295
179,51,136,295
178,51,135,293
177,51,135,291
176,51,135,291
176,51,134,289
175,56,133,287
174,56,132,286
173,55,132,285
172,55,131,284
172,54,131,282
171,54,131,281
170,54,131,280
169,53,137,278
167,53,137,277
167,53,135,275
167,52,135,350
166,56,135,348
165,83,134,345
164,83,133,344
163,82,132,341
163,82,131,338
162,81,131,337
161,80,130,334
160,80,130,333
159,79,129,330
159,79,128,329
158,79,127,327
158,78,127,325
156,79,126,323
156,78,126,321
156,78,125,319
155,77,125,317
154,77,124,316
153,76,124,314
152,76,123,312
152,75,123,311
152,75,122,309
150,75,121,307
150,74,121,305
149,74,120,304
148,73,120,302
147,73,120,300
147,73,119,299
146,71,119,297
145,71,118,295
145,71,117,295
219,71,117,293
226,71,116,291
224,70,115,289
223,70,115,287
221,69,115,287
220,69,114,285
219,68,113,284
217,68,113,282
216,67,112,280
215,68,112,280
214,67,112,278
213,67,139,277
211,67,149,275
210,66,148,274
209,66,147,271
207,65,147,271
207,65,145,269
206,65,145,268
205,65,143,267
204,64,143,265
203,63,143,265
202,63,142,263
201,63,143,262
199,71,146,261
199,71,146,304
198,70,145,302
197,70,144,300
195,69,143,297
195,69,143,295
194,69,142,295
193,68,141,293
192,67,140,291
191,67,140,290
190,67,139,287
189,66,138,286
188,67,137,285
187,66,137,283
186,66,135,281
185,65,135,280
184,65,135,278
184,64,134,277
183,64,134,275
182,63,133,274
181,63,133,272
179,63,131,271
179,63,131,270
179,63,131,268
178,62,129,267
177,62,129,265
176,61,129,263
175,61,127,263
174,61,127,261
173,60,127,260
172,60,126,259
172,60,125,257
171,60,125,256
170,60,124,255
169,64,129,254
167,64,128,253
167,63,127,251
167,63,127,250
166,63,126,249
165,63,126,248
165,62,125,247
163,62,124,246
163,62,124,244
162,61,124,243
161,61,166,242
161,61,253,241
159,60,283,240
159,60,281,239
158,60,280,238
157,60,277,237
157,59,275,236
156,59,274,235
155,58,272,233
155,58,271,231
154,58,270,231
153,57,268,231
241,57,267,230
315,57,265,228
312,57,263,227
310,56,262,226
307,56,261,225
305,56,259,225
304,56,258,224
302,55,255,222
300,55,255,221
298,55,254,221
295,54,253,220
295,54,251,218
293,53,249,217
291,53,249,216
289,53,248,216
287,53,246,215
287,52,245,214
285,52,243,213
284,51,243,211
282,51,241,211
280,51,240,210
280,51,239,209
278,51,237,208
276,50,237,207
275,50,235,207
273,50,234,205
271,50,233,205
270,50,231,204
269,49,231,203
267,49,230,202
266,48,228,201
263,48,227,199
263,48,226,199
262,48,225,198
260,48,224,198
259,48,223,197
258,47,222,195
256,47,221,195
255,47,220,195
254,46,219,193
253,46,218,192
251,46,217,230
250,45,216,228
249,46,215,227
299,45,214,226
362,45,212,224
359,45,211,224
356,44,211,223
354,44,209,222
352,44,209,220
350,44,296,219
348,44,345,218
345,43,341,217
344,43,339,216
341,43,336,215
339,83,334,214
337,87,332,212
335,86,331,211
333,85,327,210
331,85,327,209
329,85,324,207
327,83,323,207
326,83,321,205
324,83,319,205
322,82,317,204
321,82,315,203
319,81,313,201
317,81,312,201
316,81,310,199
313,79,309,199
312,79,307,198
310,79,305,197
308,79,304,195
307,78,302,195
305,78,300,194
304,78,299,193
302,77,297,192
300,77,295,192
299,83,386,191
297,90,526,196
295,89,645,195
294,89,638,194
293,88,632,193
291,88,627,192
290,88,621,191
287,87,615,190
287,86,611,189
285,86,606,188
284,85,602,187
283,85,597,187
281,85,591,185
280,83,588,185
278,83,583,184
277,83,579,184
275,83,575,182
274,82,571,181
273,82,567,180
271,81,562,180
270,81,559,179
269,80,555,179
267,84,551,178
266,86,547,177
265,119,543,176
263,117,539,176
262,117,536,175
260,116,531,174
259,115,527,173
258,115,524,173
257,114,521,172
255,113,517,172
254,112,513,172
252,112,509,171
252,130,507,170
250,129,503,169
249,128,499,167
248,127,496,167
246,127,494,167
245,126,490,166
243,125,487,165
243,124,483,165
241,124,480,163
240,139,478,163
239,167,475,162
238,166,472,162
237,165,469,161
236,163,465,160
234,163,462,159
233,162,460,159
231,161,457,158
231,159,454,157
230,159,451,157
229,158,448,156
227,157,446,156
227,156,444,155
227,156,440,154
225,155,438,153
224,154,435,164
223,153,433,190
222,152,430,189
221,152,428,188
220,150,425,187
219,149,423,185
217,149,420,184
217,148,417,184
216,147,415,183
215,146,413,181
214,145,411,180
213,145,408,179
211,144,406,178
210,143,403,177
209,142,401,176
208,142,399,176
207,141,396,175
206,140,395,174
206,140,391,173
205,139,390,172
204,138,387,171
203,137,386,170
201,136,384,169
201,135,381,167
199,135,379,167
199,135,377,166
198,134,376,165
197,133,373,165
196,133,371,164
195,132,369,163
194,131,367,162
193,131,365,161
192,130,364,160
192,129,361,159
191,128,359,159
190,127,358,158
189,127,355,157
188,126,354,157
187,126,352,156
187,125,351,155
185,125,349,154
185,124,347,155
184,123,345,174
184,123,344,173
182,122,343,222
181,121,341,220
180,121,339,219
179,120,337,217
179,120,335,216
177,119,334,215
179,125,333,213
181,137,331,211
179,135,329,211
179,135,327,210
178,134,326,283
177,133,324,280
176,133,323,278
175,132,321,277
175,131,319,275
174,131,318,273
173,130,316,271
172,129,314,270
171,128,313,268
171,127,312,267
170,127,310,265
169,126,307,263
167,125,306,262
167,125,305,260
167,124,304,259
166,124,302,257
165,123,301,255
165,171,371,255
163,172,415,253
163,171,412,274
162,169,409,389
161,167,406,384
161,167,403,381
159,166,400,380
159,165,398,377
158,164,395,374
158,163,393,371
157,163,390,369
156,161,387,367
155,160,385,364
155,159,384,362
154,159,380,359
153,158,378,358
153,157,394,355
152,156,422,353
152,156,419,351
151,155,415,349
150,153,413,347
149,153,411,344
211,152,408,343
289,152,405,341
301,151,402,339
299,150,399,336
295,149,398,334
294,148,395,333
292,147,391,331
291,147,390,329
289,146,387,327
287,145,385,325
297,144,382,323
297,147,381,321
295,147,378,319
293,146,376,318
291,145,373,316
289,143,371,314
287,143,369,312
286,143,366,311
284,142,364,309
283,141,362,307
281,140,359,305
280,140,358,304
278,139,356,302
276,138,354,301
274,137,352,299
273,137,350,297
271,135,348,295
270,135,345,294
269,135,344,292
267,134,343,291
265,134,340,290
263,133,338,288
263,132,337,287
262,131,335,285
260,131,333,284
259,130,331,282
257,129,329,281
255,129,327,280
254,128,326,278
253,127,323,276
252,127,322,274
251,126,320,273
249,126,319,272
248,125,317,271
246,124,315,269
245,124,314,268
243,123,312,266
242,123,311,265
241,122,308,263
240,121,307,262
239,121,305,261
238,120,304,260
236,120,302,258
235,119,301,257
234,118,300,255
231,118,298,255
231,117,295,253
230,117,295,252
229,115,294,251
227,115,292,250
227,115,291,248
225,114,289,247
225,114,287,246
223,113,287,245
222,112,285,243
221,112,284,242
220,111,282,241
219,111,281,240
217,111,280,239
216,110,279,237
216,109,277,236
214,109,275,236
213,108,274,234
212,108,273,233
211,107,271,231
210,107,271,230
209,107,270,230
207,106,268,228
207,105,267,227
206,105,265,226
205,103,263,225
204,103,263,224
203,103,262,223
202,103,261,222
201,102,259,221
199,102,258,220
199,101,258,219
198,100,255,217
197,100,255,217
196,99,254,216
195,99,252,214
195,99,251,214
193,98,250,212
193,98,249,211
192,97,248,211
191,97,247,209
190,96,246,209
189,96,245,207
188,96,243,207
187,95,243,206
187,95,242,205
185,94,241,204
185,94,240,203
184,93,239,202
183,93,238,201
182,92,236,199
181,92,236,199
180,91,235,199
179,91,233,198
179,91,231,197
178,90,231,196
177,89,231,195
176,89,230,194
176,89,228,193
175,89,227,192
174,88,227,192
173,88,226,191
172,88,225,190
172,87,224,189
171,87,223,188
169,86,222,188
169,86,221,187
169,86,220,186
167,85,220,185
167,84,219,184
166,83,217,184
166,83,216,183
165,83,216,182
163,83,215,181
163,82,214,180
163,82,213,179
162,82,212,179
161,81,211,178
161,81,210,177
159,80,209,176
159,79,208,175
158,79,207,175
157,79,207,174
157,79,206,173
156,79,205,173
156,78,204,172
155,78,204,171
154,77,203,171
153,77,202,169
153,77,201,169
152,77,199,167
152,76,199,167
151,76,199,167
150,76,198,166
149,75,197,165
149,75,196,164
148,74,195,163
147,74,195,163
147,74,193,162
146,73,193,161
145,73,192,161
145,73,192,159
144,71,191,159
143,71,190,159
143,71,189,158
142,71,188,157
142,71,188,157
141,71,187,156
141,98,186,156
140,97,185,155
139,96,184,154
139,96,184,153
138,96,184,153
137,95,182,152
137,94,181,152
135,94,181,151
135,93,180,150
135,93,179,150
135,92,179,149
134,92,178,148
134,92,177,147
133,91,176,147
132,90,176,146
131,90,175,146
131,89,174,145
131,89,174,145
130,89,173,143
129,88,172,143
129,88,171,143
129,87,171,142
127,87,170,142
127,86,169,141
127,86,167,140
126,85,167,140
126,85,167,140
125,84,167,139
124,83,166,138
124,83,165,137
123,83,165,137
123,83,164,135
123,82,163,135
122,82,163,135
121,81,162,135
121,81,161,134
120,81,161,134
120,79,159,133
120,79,159,132
119,79,159,131
118,79,158,131
118,78,157,131
118,78,157,130
117,78,156,130
116,77,156,129
115,77,155,128
115,76,155,128
115,76,154,127
114,76,153,127
114,75,153,126
113,74,152,126
113,74,152,125
112,74,151,125
112,73,150,124
112,73,149,124
111,73,149,124
111,71,148,123
110,71,147,123
110,71,147,121
109,71,147,121
109,71,146,121
108,71,145,120
108,71,145,120
108,70,144,120
107,70,143,119
107,69,143,119
106,69,142,118
105,70,142,118
105,69,141,117
105,69,141,116
103,68,140,115
103,68,140,115
103,68,139,115
103,67,139,115
103,67,138,114
102,67,137,113
102,66,137,113
101,66,137,113
101,66,135,112
101,66,135,112
100,65,135,111
99,65,135,111
99,64,134,111
99,64,134,110
98,63,133,110
98,63,133,109
97,63,132,109
97,63,131,108
97,63,131,108
96,63,130,107
96,62,130,107
96,62,130,107
95,62,129,106
95,61,128,106
94,61,128,105
94,61,127,105
94,60,127,105
93,60,127,103
93,60,126,103
93,60,126,103
92,60,125,103
92,59,125,103
92,59,124,102
91,59,124,102
91,58,123,102
91,58,123,101
90,58,123,101
89,57,122,99
89,57,121,99
89,57,121,99
89,57,120,99
88,56,120,99
88,56,120,98
88,56,172,98
88,63,190,98
88,62,245,97
86,62,245,97
86,61,244,97
86,61,243,96
86,61,241,96
85,61,240,96
85,60,239,95
84,60,238,95
84,60,236,94
83,59,236,94
83,59,234,94
83,60,233,93
83,60,231,93
83,59,231,93
82,59,230,92
82,58,229,92
81,58,227,92
81,58,227,92
81,57,225,91
80,57,224,91
80,57,223,90
79,57,222,90
79,56,221,89
79,56,220,89
79,56,220,89
79,56,218,88
78,56,217,88
78,56,216,88
78,55,216,88
77,54,215,88
77,54,213,87
77,54,212,87
76,54,211,87
76,53,211,86
76,53,209,86
76,53,209,85
76,53,207,85
76,53,207,84
76,52,206,84
75,52,205,84
75,52,204,84
75,51,203,83
74,51,202,83
74,51,201,83
73,51,199,82
73,51,199,82
73,50,199,82
71,50,198,81
71,50,197,81
71,50,196,81
71,50,195,80
71,49,195,80
71,49,194,80
71,49,193,79
71,49,192,79
70,49,192,79
70,49,190,79
70,48,190,79
69,48,189,78
69,48,188,78
69,48,187,78
69,47,187,77
103,47,185,77
103,47,185,77
103,46,184,76
102,47,184,76
101,46,183,76
101,46,182,76
100,46,181,75
100,45,179,75
99,45,179,75
99,45,178,75
99,67,178,74
100,92,177,73
100,92,176,73
99,92,176,73
99,92,175,73
98,91,174,73
98,90,173,71
97,90,172,71
97,89,172,71
96,89,171,71
96,88,171,71
96,88,170,71
95,88,169,71
95,88,167,71
94,87,167,70
94,86,167,70
93,86,167,70
93,86,166,69
93,85,165,69
92,84,164,69
92,84,163,69
91,83,163,68
91,83,162,68
91,83,161,67
90,83,161,67
89,82,160,67
126,82,159,67
130,81,159,67
129,81,158,67
129,80,158,66
127,80,157,66
127,79,156,66
126,79,156,66
126,79,155,65
125,79,154,65
125,78,153,65
124,78,153,64
123,77,152,64
123,79,152,63
122,79,151,63
121,78,150,63
121,78,150,63
120,78,149,63
120,77,148,62
119,77,147,63
119,77,147,62
118,76,146,62
117,76,146,61
117,75,145,62
116,82,144,61
115,82,144,61
115,81,143,60
114,81,143,60
114,80,142,60
113,79,142,60
113,79,141,60
112,79,140,59
112,79,140,59
111,78,140,59
111,77,139,59
110,77,138,59
110,77,137,58
109,77,137,58
108,76,135,57
108,76,135,57
108,76,135,57
107,75,135,57
107,75,134,57
106,74,134,57
105,74,133,56
105,74,133,56
105,73,132,56
103,73,131,56
103,71,131,56
103,71,130,56
103,71,130,55
102,71,129,55
102,71,129,54
101,71,128,55
101,70,127,54
100,70,127,54
99,70,127,54
99,69,126,53
99,69,126,53
98,69,125,53
98,68,125,53
97,67,124,52
97,67,124,52
97,67,123,52
96,67,123,52
96,67,123,51
95,67,122,51
95,66,121,51
94,65,121,51
94,65,121,51
94,65,120,51
93,65,120,51
93,65,120,50
105,64,119,50
103,63,118,49
103,63,118,50
103,63,117,49
103,63,117,49
102,62,116,49
102,62,115,49
101,62,115,49
101,62,115,48
100,62,115,48
99,61,114,48
105,61,114,48
103,61,113,48
103,60,113,47
103,60,112,48
103,60,112,47
102,60,112,47
101,59,111,47
101,59,111,47
100,58,110,46
100,58,110,46
99,57,110,46
99,57,109,46
99,57,109,46
98,57,108,45
97,57,108,45
97,56,108,45
96,56,108,45
96,56,107,45
96,56,107,44
96,56,106,44
95,55,105,44
94,55,105,44
94,55,105,44
94,54,103,44
94,54,103,43
101,54,103,43
100,54,103,43
99,53,103,43
99,53,103,43
99,53,103,42
98,52,102,42
98,52,102,42
97,52,101,42
97,51,101,42
96,51,101,41
96,51,100,41
96,57,99,41
95,56,99,41
94,56,99,41
94,56,99,41
94,55,99,41
93,55,99,39
93,55,97,39
92,54,97,39
92,54,97,39
92,54,97,39
91,54,97,39
91,53,96,39
91,53,96,39
90,53,96,39
90,52,95,39
89,52,95,39
89,52,94,39
88,52,94,38
88,51,94,38
88,51,93,39
88,51,93,39
87,51,93,38
87,50,93,38
87,50,92,38
86,50,92,37
86,50,92,38
85,50,91,37
85,50,91,37
85,50,91,37
84,49,90,37
83,48,90,37
83,48,90,37
83,48,89,36
83,48,89,36
82,48,89,36
82,48,88,35
82,48,88,35
81,47,88,35
81,47,88,35
80,47,88,35
80,47,88,35
79,46,87,35
79,46,86,35
79,46,87,35
79,46,86,34
78,45,86,34
78,45,85,34
78,45,85,34
78,45,85,34
78,45,85,34
77,45,84,34
77,44,83,34
76,44,83,34
76,44,83,34
76,44,83,33
76,44,83,33
75,44,82,33
75,43,82,33
75,43,82,33
74,43,81,33
74,42,81,32
74,43,81,32
73,42,80,32
73,42,81,31
73,42,80,32
73,41,79,31
71,41,79,31
71,41,79,31
71,41,79,31
71,41,79,31
71,41,79,31
71,41,78,31
71,39,78,31
71,39,78,31
70,39,78,31
70,39,77,31
70,39,77,30
69,39,77,30
69,39,77,30
69,39,76,30
69,39,76,30
69,39,76,30
68,39,75,30
68,38,75,29
68,38,75,29
68,38,75,29
67,38,75,29
67,38,74,29
67,37,73,29
67,38,73,29
66,37,73,29
98,37,73,29
157,37,73,29
156,37,72,28
155,37,71,28
153,37,71,28
153,36,71,28
152,36,71,28
152,35,71,28
151,35,71,28
150,35,71,28
149,35,71,27
148,35,70,27
147,35,70,27
147,35,70,27
146,35,70,27
145,34,69,27
145,34,69,27
143,34,69,26
143,34,68,26
143,34,68,26
142,33,68,26
142,34,68,26
141,34,67,26
140,33,67,26
140,33,67,25
139,33,67,25
139,33,67,25
137,33,66,26
137,32,66,25
135,32,66,25
135,32,65,25
135,32,65,24
135,31,65,25
134,31,65,25
134,31,65,25
133,31,64,25
132,31,65,24
131,31,63,24
131,31,63,24
130,31,63,24
130,31,63,24
129,30,63,24
129,30,62,24
127,30,62,24
127,30,62,24
127,30,62,23
126,30,61,24
126,30,61,23
125,29,61,23
124,30,61,23
124,29,61,23
124,29,61,23
123,29,60,22
122,29,60,22
121,29,60,22
121,28,60,22
121,28,59,22
120,29,59,22
120,28,59,22
119,28,59,22
119,28,58,22
118,28,59,22
118,28,58,22
117,28,58,21
116,27,58,21
116,27,57,21
115,27,57,21
115,27,57,21
114,27,57,21
114,27,56,21
114,26,56,21
113,27,56,21
113,26,56,20
112,26,56,20
112,26,56,20
111,26,56,20
111,25,56,19
110,25,55,19
110,25,55,20
109,25,55,19
109,25,54,19
108,25,54,19
108,25,54,19
107,25,54,19
107,25,54,19
106,24,53,19
105,24,53,19
105,24,53,19
105,24,53,19
103,24,52,19
103,24,52,19
103,24,52,19
103,24,51,19
103,24,51,19
102,24,51,19
102,23,51,18
101,23,51,18
101,23,51,18
100,23,50,18
99,23,53,18
117,23,54,18
115,23,53,18
115,23,53,17
115,23,53,18
114,23,52,17
113,22,52,18
113,22,52,17
112,22,51,17
112,22,51,17
111,22,51,17
111,22,51,17
110,22,51,17
110,21,50,16
109,21,50,17
108,21,50,17
108,21,50,16
108,21,49,16
107,21,50,16
107,21,49,16
106,21,49,16
105,20,49,16
105,20,49,15
105,20,49,15
103,20,48,15
103,19,48,15
103,20,48,16
103,20,48,15
102,19,48,15
102,19,47,15
101,19,47,15
101,19,47,15
100,19,47,15
99,19,46,15
99,19,46,15
99,19,46,15
99,19,46,15
98,19,46,14
98,19,45,15
97,19,45,15
97,19,45,14
97,18,45,14
96,19,45,14
96,18,45,14
96,18,45,14
95,18,45,14
95,18,44,14
94,18,44,14
94,18,44,14
93,17,44,14
93,17,44,14
93,17,44,14
92,17,44,14
92,18,43,13
92,17,43,14
91,17,43,13
91,17,43,13
91,17,43,13
90,17,43,13
89,17,42,13
89,16,42,13
89,17,42,13
88,16,41,13
88,17,41,13
88,16,41,13
88,17,41,13
88,16,41,13
87,16,41,13
86,16,41,13
86,16,41,13
86,16,40,12
86,16,41,12
85,15,39,12
84,15,39,12
84,15,39,12
84,15,39,12
83,15,39,12
83,15,39,12
83,15,39,12
82,15,39,12
82,15,39,12
82,15,39,11
81,15,39,12
81,15,39,11
81,15,39,12
80,15,38,12
80,15,38,12
79,14,38,12
79,14,38,12
79,14,38,11
79,14,38,11
79,14,38,11
78,14,37,11
78,14,37,11
78,14,37,11
77,14,37,11
77,14,37,11
77,14,37,11
77,13,37,11
76,14,36,12
76,13,36,11
76,13,36,10
75,14,36,11
75,13,36,10
75,13,35,10
74,13,35,10
74,13,35,10
74,13,35,10
73,13,35,10
73,13,35,10
73,13,35,11
72,12,35,10
71,12,34,9
71,13,34,10
71,12,34,10
71,12,34,9
71,12,34,10
71,12,34,10
70,12,50,9
70,12,69,9
70,12,68,9
70,12,68,9
69,12,67,9
69,12,67,9
68,12,67,9
69,12,67,9
69,12,66,9
67,11,66,9
67,12,66,9
67,12,65,9
67,12,65,9
67,12,65,9
67,11,65,9
66,11,64,10
66,11,63,8
66,11,63,7
66,11,63,7
65,11,63,9
65,11,62,7
65,11,62,8
65,11,62,9
64,11,62,8
64,11,62,7
64,11,61,8
63,10,61,7
63,11,61,7
63,11,60,7
63,10,60,7
63,11,60,7
63,10,60,7
62,10,60,7
62,10,59,7
62,10,59,7
61,10,59,7
61,10,58,7
61,10,59,7
61,9,57,7
61,10,57,7
61,10,57,7
60,9,57,7
60,10,57,7
60,9,56,7
60,9,57,7
60,9,56,7
59,9,56,7
59,9,56,7
59,9,56,7
59,9,56,7
59,9,56,7
59,9,55,7
58,9,56,7
58,9,55,7
57,9,54,7
57,9,54,7
57,9,54,7
57,9,54,7
57,8,53,7
56,9,53,7
56,8,53,7
56,7,53,7
56,9,53,7
56,7,53,7
56,7,52,7
56,8,52,6
55,7,51,7
56,8,51,6
55,9,51,6
55,7,51,7
54,7,51,7
54,7,50,7
54,7,50,6
54,7,50,6
54,7,50,6
54,7,50,7
53,7,50,6
53,7,50,6
53,7,49,6
53,7,49,6
52,7,49,6
53,7,49,6
52,7,49,6
52,7,48,6
52,7,48,6
51,7,48,6
51,7,48,6
51,7,48,6
51,7,47,7
51,7,47,5
51,7,46,6
51,7,47,6
50,7,47,6
50,7,46,6
50,7,46,6
50,7,46,6
50,7,45,6
50,7,46,5
49,7,45,5
49,7,45,5
49,7,45,5
49,7,45,5
49,7,45,6
48,6,45,5
48,7,44,5
49,7,44,5
48,7,44,5
48,7,44,5
48,6,44,5
48,6,44,5
48,6,44,5
47,7,44,5
47,6,43,5
47,6,43,6
47,7,43,5
47,6,43,5
46,6,42,5
46,6,42,5
46,9,42,5
46,13,41,5
46,30,41,5
45,30,41,5
45,29,41,5
45,29,41,5
45,29,41,5
45,29,39,5
45,28,39,4
45,28,39,5
44,28,39,5
44,29,39,4
44,29,39,5
44,29,39,5
44,29,39,4
44,28,39,4
44,28,39,4
43,28,39,4
43,28,39,4
43,28,39,4
43,27,38,4
43,27,39,4
42,27,38,4
42,27,38,4
42,27,38,4
42,27,38,4
41,27,37,4
42,27,37,4
41,26,37,4
41,26,37,4
41,26,37,4
41,26,37,4
41,26,36,3
41,25,36,4
39,26,36,3
41,25,36,4
39,25,36,3
39,25,36,4
39,25,35,4
39,25,35,4
39,25,35,4
39,25,35,3
39,25,35,4
39,25,35,3
39,25,35,3
39,24,35,3
39,24,34,4
39,24,34,4
38,24,34,3
38,24,34,3
38,24,34,3
38,24,34,3
38,24,34,3
38,23,34,3
38,24,33,4
37,23,33,3
37,23,33,3
37,23,33,3
37,23,33,3
37,23,33,3
37,23,33,3
36,23,33,3
36,22,32,3
36,22,32,3
36,22,31,3
36,23,32,3
35,47,31,3
35,46,31,3
35,46,31,3
35,46,31,3
35,45,31,3
35,45,31,3
35,45,31,3
35,45,31,3
35,44,31,3
34,44,31,3
35,44,30,3
35,44,31,3
39,44,31,3
70,44,30,3
71,43,30,3
71,43,30,3
70,43,30,3
70,42,30,3
69,42,30,3
69,42,30,3
69,41,30,3
68,41,29,3
68,41,29,3
67,41,29,3
67,41,29,3
67,41,29,3
67,39,45,3
66,39,48,3
66,39,48,2
66,39,47,3
65,39,47,3
65,39,47,3
65,39,47,3
64,39,46,3
64,39,46,3
63,39,46,3
63,39,46,3
63,39,46,3
63,38,45,3
63,38,45,3
62,38,45,2
62,38,45,3
62,37,44,3
62,37,44,3
61,37,44,2
61,37,44,3
61,37,44,2
61,36,44,3
60,36,43,2
60,36,43,2
60,36,43,3
59,35,43,2
60,35,42,2
59,35,42,2
59,35,42,2
58,35,42,2
58,35,41,2
58,35,41,3
58,35,41,3
57,35,41,2
57,34,41,2
57,34,41,2
56,34,39,2
56,34,39,2
56,34,39,2
56,34,39,2
56,33,39,2
56,33,49,2
56,33,49,2
55,33,48,2
55,32,48,2
55,32,48,2
54,32,47,2
54,31,47,2
54,31,47,2
54,31,47,2
53,31,47,2
53,31,46,2
53,31,46,2
53,31,46,2
53,31,46,2
52,31,45,2
87,31,45,2
88,30,45,2
88,31,45,2
87,30,45,2
86,30,44,26
86,30,44,26
86,30,44,25
85,30,44,25
85,29,44,25
85,30,43,25
83,29,43,24
83,29,43,25
83,29,43,24
83,29,43,24
82,29,43,24
82,29,42,24
82,28,42,24
81,28,41,24
81,28,41,24
80,28,41,23
79,28,41,23
79,28,41,23
79,27,41,24
79,27,40,24
79,28,40,24
78,27,39,24
