37,21,31,35
37,21,31,36
37,21,30,35
36,21,31,35
36,21,31,35
36,21,30,35
36,21,30,35
38,20,30,35
38,20,30,35
37,20,30,35
37,20,30,34
37,20,30,44
37,20,29,44
37,19,29,44
36,19,29,44
36,19,29,44
36,19,29,43
35,19,29,43
35,19,29,43
35,19,29,43
35,19,28,42
35,19,29,42
35,19,28,42
35,19,28,42
35,19,28,41
35,19,28,41
35,19,28,41
34,19,28,41
34,19,27,41
34,19,27,40
34,18,27,41
34,19,27,39
34,19,27,39
38,18,27,39
38,18,27,39
38,18,26,39
38,18,27,39
38,18,26,39
37,18,26,39
37,18,26,39
37,18,26,39
37,17,28,39
37,18,28,38
36,18,28,38
36,17,28,38
36,18,28,38
39,17,27,38
39,17,27,37
39,17,28,37
39,17,27,37
39,17,27,37
39,17,27,37
38,16,27,37
38,24,27,36
38,24,27,36
38,24,27,36
38,23,26,36
38,23,27,36
37,23,26,35
37,23,26,35
38,23,25,35
38,22,26,35
38,22,25,35
38,22,25,35
38,22,25,34
38,22,25,34
37,22,25,34
37,22,25,34
37,21,25,34
37,21,24,34
36,21,25,34
36,21,24,34
36,21,25,34
37,21,25,33
36,21,24,33
36,21,24,33
36,21,24,32
35,21,24,33
35,21,24,32
35,20,24,32
35,21,24,32
35,22,24,32
35,21,24,31
35,21,23,31
35,21,24,31
34,21,23,31
34,20,23,31
34,21,23,31
34,20,23,31
33,20,23,31
34,20,23,31
33,20,22,30
33,20,22,31
33,20,23,30
33,19,22,30
33,19,22,30
32,20,22,30
32,19,22,30
32,19,22,30
34,19,22,30
34,19,22,29
33,19,22,29
33,19,22,29
33,19,21,29
33,19,21,33
33,18,21,33
33,19,27,33
33,19,45,33
33,19,46,33
32,19,46,33
32,19,46,33
31,19,45,32
32,19,45,31
31,19,45,31
31,19,44,31
31,19,44,31
31,19,44,31
31,19,44,31
31,19,43,31
31,19,43,31
31,19,43,31
30,18,43,31
31,18,42,31
30,18,43,31
30,18,43,30
32,18,42,30
33,18,41,30
32,18,42,30
31,18,41,30
32,18,41,30
31,18,41,30
31,18,41,29
31,18,41,29
31,18,39,29
31,17,39,29
31,17,39,29
31,17,39,29
31,17,39,28
31,17,39,28
31,17,39,28
31,17,39,28
31,17,39,28
31,17,39,28
31,17,39,28
31,17,38,28
30,17,39,28
30,18,38,27
30,19,38,28
30,18,38,27
30,18,38,27
30,18,38,27
30,18,37,27
30,18,37,27
30,18,37,27
30,17,37,27
30,18,36,27
29,18,36,26
29,17,36,26
29,17,36,26
29,17,35,26
29,17,36,25
29,17,35,26
28,17,35,25
29,17,35,25
31,17,35,25
31,17,35,25
31,17,35,26
31,17,35,25
31,17,35,25
31,17,34,25
31,16,58,25
31,17,59,30
31,18,59,30
30,18,58,30
30,18,58,29
30,17,57,30
30,17,57,29
34,17,57,30
34,17,57,29
34,17,57,29
34,17,56,29
33,17,56,29
33,17,56,28
33,16,56,28
33,16,56,34
33,28,56,33
33,29,55,34
32,45,55,33
32,47,54,33
33,46,54,33
71,46,54,33
70,46,54,32
69,45,53,31
68,45,53,32
68,45,53,32
68,45,52,31
67,44,53,31
67,44,52,31
67,44,52,31
67,44,52,31
66,44,51,31
66,44,51,31
66,43,51,31
66,43,51,31
65,43,51,30
65,43,51,30
64,42,50,30
64,42,50,30
64,42,50,30
63,42,51,30
63,41,55,30
63,41,54,30
63,41,54,30
62,41,54,29
62,41,54,29
79,41,53,29
93,41,53,29
92,39,53,29
92,39,53,28
91,39,52,29
91,39,52,28
90,39,51,28
90,39,51,28
89,39,51,28
89,44,51,28
88,43,51,28
88,44,51,28
88,43,51,28
88,43,50,28
87,43,50,28
87,43,50,27
86,42,49,27
86,42,49,27
85,42,49,27
85,41,49,27
85,42,49,27
84,103,49,27
83,105,48,27
83,103,48,27
83,103,48,26
83,103,48,27
82,103,47,26
82,102,47,26
85,101,47,26
85,101,47,26
85,100,47,25
84,99,46,25
83,99,46,25
83,99,46,25
83,98,46,25
83,167,45,25
82,172,45,25
82,170,45,25
81,169,45,25
81,167,45,24
81,167,45,25
80,166,44,24
79,165,44,24
79,164,44,25
79,163,44,24
79,163,43,24
78,162,43,24
78,161,43,24
78,159,43,24
77,159,43,24
77,159,43,24
77,179,43,24
134,225,43,24
184,225,42,23
193,223,42,24
192,222,41,23
190,221,41,23
189,219,41,23
188,218,41,24
187,217,41,24
185,216,39,24
185,215,39,24
184,214,39,24
206,212,39,24
203,211,39,24
201,210,39,24
201,209,39,24
199,207,39,24
198,207,39,23
197,206,39,23
196,224,39,23
195,285,39,22
194,294,39,22
193,291,39,22
192,289,39,23
192,288,39,22
190,287,38,22
190,285,38,22
189,284,38,22
188,281,38,22
187,280,38,22
185,279,37,22
185,277,38,22
184,275,37,22
184,274,37,22
182,273,37,22
181,271,37,22
180,270,36,22
179,269,36,21
179,268,35,22
178,266,35,21
177,263,35,21
176,263,35,21
176,262,35,21
175,261,35,21
174,260,35,21
174,259,35,21
172,257,35,21
172,255,35,20
171,255,34,21
171,254,35,20
169,252,34,20
169,251,34,20
167,249,34,20
167,249,34,20
166,248,34,20
166,246,41,20
165,245,41,20
164,243,41,20
163,243,39,20
163,241,39,20
165,240,39,19
164,240,39,19
163,238,39,19
163,237,39,19
162,235,39,19
161,235,39,19
160,234,39,19
159,231,39,19
159,231,38,19
158,230,38,19
157,229,38,19
157,228,38,19
156,227,37,18
155,226,37,18
155,225,37,18
154,224,37,18
153,223,36,20
153,222,37,20
152,221,36,21
151,220,36,20
151,219,36,21
150,218,35,20
149,217,35,20
148,216,35,19
147,215,35,19
147,214,35,20
146,213,35,19
146,212,35,19
145,211,34,19
145,210,34,20
143,209,34,20
143,208,34,51
143,207,34,51
142,206,34,51
141,206,34,50
141,205,33,49
140,204,33,49
140,203,33,49
139,202,33,49
139,201,33,48
138,199,33,48
137,199,32,50
135,199,31,50
135,197,32,50
135,197,31,50
135,195,31,49
135,195,31,49
134,194,31,49
133,193,31,49
133,192,31,49
132,192,31,48
131,191,30,48
131,190,30,48
130,189,31,48
130,188,31,47
129,187,31,47
129,187,31,47
127,185,31,46
127,185,31,46
127,184,31,46
127,183,31,46
126,183,30,46
126,182,30,45
125,181,30,45
124,180,30,45
124,179,30,45
123,179,29,44
123,178,29,44
122,177,30,44
122,176,29,44
121,176,29,44
121,175,29,43
120,174,29,43
120,174,28,43
119,173,28,43
119,172,28,42
118,172,51,43
118,171,71,43
117,170,71,42
117,169,71,42
116,167,71,42
115,167,70,41
115,167,70,41
115,166,69,41
114,166,69,41
114,165,68,41
113,163,68,40
113,163,67,39
112,163,67,39
112,162,67,39
112,161,67,39
111,161,67,39
110,159,66,39
110,159,66,39
110,159,65,39
109,158,65,39
108,158,65,38
108,157,64,39
108,156,63,38
107,155,63,38
107,155,63,38
107,154,63,38
106,153,63,38
105,152,63,37
105,152,62,37
103,152,62,37
103,151,61,37
103,150,61,36
103,150,61,37
103,149,61,36
102,147,60,36
102,147,60,78
102,147,60,78
101,146,60,78
101,145,59,77
100,145,59,77
99,145,59,76
102,143,59,76
109,143,58,76
109,143,58,75
108,142,57,75
108,142,57,74
107,141,57,74
107,140,57,73
106,140,57,73
105,139,56,73
105,139,56,71
103,138,56,71
103,137,56,71
103,137,56,71
103,136,55,71
102,135,55,70
102,135,55,70
102,135,54,70
101,134,54,69
101,134,54,69
100,133,54,69
99,132,53,69
99,131,53,68
99,131,53,68
99,131,52,67
98,130,52,67
97,130,52,67
97,130,52,67
97,129,51,66
97,129,51,66
96,127,51,66
96,127,51,66
96,127,51,65
95,126,51,65
94,126,50,65
94,126,50,64
93,125,49,63
94,124,49,63
93,124,49,63
93,123,49,63
92,123,49,63
92,123,49,62
92,122,48,62
91,121,48,62
91,121,48,62
91,121,48,62
90,120,47,61
90,120,47,61
89,120,47,61
89,119,47,60
89,119,47,60
89,118,46,60
88,117,46,59
88,117,46,59
88,117,46,59
87,116,45,59
87,115,45,59
86,115,45,58
86,115,45,58
86,115,45,58
85,114,45,57
85,113,44,57
85,113,44,57
85,113,44,56
83,112,44,56
83,112,43,56
83,111,44,56
83,111,46,56
83,111,48,56
82,110,48,55
82,110,48,55
81,109,48,55
81,109,48,54
81,108,47,54
80,108,47,54
81,107,47,53
80,108,46,53
80,107,46,53
79,107,46,53
79,106,46,74
79,105,46,74
79,105,46,73
78,105,49,73
78,103,48,73
78,103,48,71
78,103,48,71
77,103,48,71
78,103,47,71
78,103,47,71
78,102,47,70
77,101,47,70
77,101,47,70
77,101,46,70
76,100,46,69
76,100,46,69
76,99,45,68
75,99,45,67
75,99,45,68
75,99,45,67
75,98,45,67
74,98,45,67
74,97,44,67
73,97,44,66
73,97,44,66
73,96,44,65
73,96,44,65
71,96,44,65
71,96,44,65
71,95,43,65
71,95,43,64
71,94,43,63
71,94,43,63
71,93,43,63
71,94,42,63
70,93,42,63
70,92,41,62
70,92,41,63
70,92,41,62
69,92,41,62
69,91,41,62
69,91,41,61
68,91,41,61
68,90,41,60
68,90,39,60
67,89,39,60
68,89,39,60
67,89,39,60
67,89,39,60
67,89,39,60
67,88,39,59
66,88,39,59
66,88,39,58
66,88,39,58
66,87,39,57
65,86,43,58
65,86,53,57
65,86,53,57
64,86,52,57
64,85,52,57
64,85,52,57
63,85,52,56
63,84,51,56
63,83,51,56
63,83,51,56
63,83,51,56
63,83,51,55
62,83,50,55
62,82,51,55
62,82,50,54
61,82,49,54
62,81,49,54
61,81,49,53
61,81,49,53
61,81,49,53
61,80,48,53
60,80,49,53
60,79,48,52
60,79,48,52
60,79,48,52
59,79,48,51
59,78,48,51
59,78,47,51
59,78,47,51
58,78,47,51
58,78,46,51
58,77,46,50
58,77,46,50
58,77,46,50
57,77,46,50
57,76,46,50
57,76,45,49
57,76,45,49
57,75,45,49
56,75,44,49
56,75,44,48
56,75,45,49
56,74,44,48
56,74,44,48
56,74,44,48
55,73,44,48
55,73,43,47
55,73,43,48
54,73,43,47
54,71,43,47
54,71,43,47
54,71,42,46
54,71,43,46
53,71,42,46
54,71,42,46
53,71,41,46
53,71,41,46
52,70,41,46
54,70,41,45
54,70,41,45
54,69,40,45
53,69,41,45
53,69,39,44
53,68,41,44
53,68,39,44
53,68,39,44
52,68,39,44
52,67,39,44
52,67,39,43
52,67,39,43
51,67,39,43
51,67,39,43
51,67,39,43
51,66,38,42
51,66,39,42
50,66,38,42
50,66,38,42
50,65,38,41
50,65,38,41
50,65,38,41
50,65,38,41
49,64,37,41
49,63,37,39
49,63,37,41
49,63,37,39
48,63,37,39
48,63,36,39
48,63,36,39
48,62,36,39
48,62,36,39
48,62,35,39
47,62,35,39
47,62,35,39
47,61,35,39
47,61,35,38
47,61,35,38
47,61,35,38
47,61,35,38
46,60,35,38
46,60,35,38
46,60,34,38
46,59,34,37
45,60,34,37
46,59,34,37
45,59,33,37
45,59,34,37
45,59,33,37
44,59,33,36
44,58,33,36
45,58,33,36
45,57,33,36
45,57,32,35
44,57,33,36
44,57,32,35
44,57,32,35
44,57,31,35
44,56,32,35
44,56,32,35
43,56,31,35
44,56,31,35
43,56,31,34
43,56,31,35
43,56,31,34
43,55,31,34
42,55,31,34
43,55,31,33
42,55,31,34
41,54,31,33
42,54,30,34
41,54,30,33
41,54,31,33
41,53,31,33
41,53,31,33
41,53,31,32
41,53,31,31
41,52,31,32
39,52,31,32
39,52,30,31
39,52,30,31
39,52,30,31
39,51,30,31
39,51,30,31
39,51,30,31
39,51,30,31
39,51,29,31
39,51,30,31
39,50,29,31
39,50,29,30
39,50,29,31
38,50,29,30
39,50,29,30
38,49,29,30
39,49,29,30
38,49,29,30
38,49,28,30
38,49,29,30
38,49,28,29
37,48,28,29
38,48,28,29
37,48,28,29
37,48,28,29
37,48,27,29
37,48,27,29
36,48,27,29
37,48,27,29
36,47,27,28
36,46,27,28
36,47,27,28
36,46,26,28
36,46,27,28
35,46,27,28
35,46,26,28
35,46,27,28
35,45,26,28
35,45,25,27
35,45,26,27
35,45,25,27
35,45,25,27
35,45,25,27
34,44,25,27
34,44,25,27
34,44,25,27
34,44,25,27
33,44,25,26
33,44,25,26
34,44,25,26
34,44,25,25
33,43,25,25
33,43,24,25
33,43,24,25
33,43,24,25
32,43,24,25
33,43,24,25
32,43,24,25
32,42,24,25
32,42,24,25
32,41,24,24
31,41,24,24
31,41,24,24
31,41,24,24
31,41,23,24
31,41,24,24
31,41,23,24
31,41,23,24
31,41,23,24
31,40,23,24
31,39,22,24
31,39,22,24
31,39,22,23
30,41,22,24
30,39,22,24
30,39,22,24
30,39,22,23
30,39,22,23
29,39,22,23
30,39,21,23
30,39,21,22
30,39,22,22
29,39,21,22
29,39,21,22
29,39,21,22
29,38,21,22
29,38,21,22
29,38,21,22
29,38,21,22
29,38,21,22
30,38,21,22
34,38,20,21
34,37,20,21
34,37,20,22
33,37,20,21
33,37,20,21
33,37,20,21
33,37,20,21
33,36,20,21
32,37,19,21
32,36,19,21
32,36,19,21
32,36,19,21
32,35,19,20
32,35,19,20
31,35,19,20
31,35,19,20
31,35,19,20
31,35,19,19
31,35,19,19
31,35,19,20
31,35,19,20
31,35,19,19
30,34,19,19
30,34,19,19
30,34,19,19
30,34,19,19
30,34,18,19
31,34,18,19
31,34,18,19
30,33,18,19
30,33,18,19
30,33,18,19
30,33,18,19
30,33,19,19
30,33,18,18
30,32,18,19
29,32,18,18
29,32,18,18
29,32,18,18
29,32,18,18
29,31,18,18
29,31,17,18
29,32,17,18
29,31,17,17
29,31,17,18
29,31,17,18
29,31,17,21
28,31,41,24
28,31,41,24
28,31,39,24
28,31,39,23
29,30,39,24
30,31,39,23
34,30,39,23
33,30,39,23
33,30,39,23
33,30,39,22
33,30,38,22
33,30,38,22
32,30,38,22
31,30,38,22
31,30,38,22
32,29,37,22
31,29,38,22
31,29,37,22
31,29,37,21
31,29,37,21
31,29,37,21
31,29,37,21
31,29,37,21
30,28,36,21
31,28,36,21
30,29,36,21
30,28,36,21
30,28,36,21
30,28,37,21
30,28,36,20
30,28,36,21
30,27,35,21
30,27,35,20
29,28,35,20
29,27,35,20
29,27,35,20
29,27,35,19
29,27,35,20
29,27,35,20
29,27,35,20
29,27,38,20
28,27,38,19
28,26,37,19
28,26,37,20
28,26,38,19
29,26,37,19
29,26,37,19
29,26,36,19
29,26,36,19
29,25,36,19
28,25,36,19
28,25,36,19
28,25,36,20
28,25,36,21
28,25,35,21
28,25,35,20
27,25,35,20
28,25,35,20
28,25,35,20
28,25,35,19
27,24,35,19
27,24,34,19
27,24,34,19
27,25,34,19
27,24,34,19
26,24,34,19
27,24,34,19
26,24,34,19
27,24,33,19
26,24,33,19
26,24,33,19
29,24,33,19
29,24,33,19
29,24,33,19
29,23,32,18
29,24,33,19
29,23,32,19
28,23,32,19
28,23,31,19
28,22,31,19
28,22,31,19
28,23,31,19
28,22,31,19
37,22,31,19
46,22,31,19
46,22,31,18
46,22,31,19
46,22,30,18
45,22,31,18
45,22,30,18
45,22,30,18
45,22,30,18
44,21,30,18
44,21,30,18
44,26,30,18
44,26,30,18
44,26,29,17
44,25,29,17
43,25,29,18
43,25,29,17
43,25,29,17
43,25,28,17
42,25,29,17
42,25,28,17
42,25,28,17
42,25,28,17
41,62,28,17
41,73,28,17
41,73,28,17
43,71,28,17
51,71,28,17
50,71,28,16
50,71,28,16
50,71,28,17
49,70,27,16
49,70,27,16
49,70,27,16
48,70,27,23
49,70,27,83
48,69,27,81
48,68,27,80
48,68,26,80
60,74,26,79
60,74,26,79
60,73,26,79
59,73,26,79
59,73,26,78
59,73,25,78
59,71,25,78
58,71,25,77
57,71,25,77
57,71,25,76
57,71,25,76
57,71,25,76
57,70,25,75
58,70,25,75
59,70,24,74
58,69,25,74
58,69,24,74
58,69,24,74
57,68,24,73
57,68,24,73
57,67,24,73
56,67,32,73
57,67,67,71
56,67,66,71
56,66,66,71
5,66,65,71
56,66,65,71
70,66,64,70
74,65,64,70
73,65,63,70
73,65,63,70
71,65,63,69
71,64,63,69
71,63,63,69
71,63,62,68
71,63,62,68
71,63,62,67
70,63,61,67
70,63,61,67
70,62,61,67
69,62,61,67
69,62,60,66
69,62,60,66
68,61,60,66
68,61,59,65
67,60,59,65
67,60,59,65
67,60,59,64
67,60,59,64
67,60,58,63
66,59,58,63
66,59,58,63
65,59,57,63
65,58,57,62
65,58,57,62
65,58,57,62
64,58,57,62
63,57,56,62
63,57,56,61
63,67,56,62
63,137,56,61
63,135,56,61
63,134,55,61
62,134,55,60
62,133,55,60
62,132,54,60
61,131,54,59
61,131,54,59
61,130,53,59
61,130,53,59
60,128,53,58
60,127,53,58
60,127,52,58
60,127,52,57
59,126,52,57
59,126,51,57
59,125,51,57
59,124,51,57
58,124,51,56
60,123,51,56
62,123,51,56
62,122,50,56
61,121,50,56
61,121,50,55
61,120,50,55
61,120,50,54
60,120,49,54
60,119,49,54
60,118,49,54
59,118,49,53
59,117,48,53
68,116,48,53
67,116,48,53
67,115,48,53
67,115,48,52
67,115,47,52
66,114,47,51
66,114,47,51
66,113,46,51
66,113,46,51
65,112,46,51
65,111,46,51
65,111,45,50
64,110,46,50
63,110,45,50
63,109,45,50
63,109,45,49
63,109,45,49
63,108,45,49
62,108,45,49
62,107,44,49
62,107,44,48
61,106,44,48
61,105,43,48
61,105,43,48
61,05,43,48
60,103,43,47
60,103,43,47
60,103,43,47
60,103,42,46
59,103,42,46
59,102,42,46
59,102,42,46
59,101,41,46
58,101,41,46
57,100,41,46
58,99,41,45
57,99,41,45
57,99,39,45
57,99,39,44
56,98,41,44
56,98,39,44
56,97,39,44
56,97,39,44
56,97,39,44
56,96,39,44
55,96,39,44
55,96,39,43
55,95,39,43
54,95,39,43
54,94,39,43
54,94,39,43
54,93,38,42
54,93,38,42
53,93,38,42
53,92,38,41
52,92,38,41
52,92,37,41
52,92,37,41
52,91,37,41
51,91,37,41
51,90,37,41
51,90,37,40
51,89,36,39
51,89,36,39
51,89,36,39
50,89,36,39
50,88,36,39
50,88,36,39
50,87,35,39
49,87,35,39
49,87,35,39
49,86,35,39
49,86,35,39
49,86,35,38
49,85,35,38
48,85,34,39
48,85,34,38
48,83,34,38
48,84,34,38
48,83,34,37
48,83,34,48
47,83,34,48
47,83,34,48
47,82,33,47
46,82,33,48
46,81,33,47
46,81,33,47
45,81,33,47
46,80,32,46
45,80,33,46
45,79,33,46
45,79,32,46
45,79,31,46
45,79,31,46
45,79,31,45
44,78,31,45
44,78,31,45
44,78,31,44
44,77,31,45
44,77,31,44
44,77,31,44
43,76,31,44
43,76,31,44
43,76,31,44
42,75,31,43
43,75,31,43
42,75,31,43
42,74,30,43
42,74,30,43
41,74,30,42
42,74,30,42
41,73,30,41
41,73,31,42
41,73,30,41
41,73,30,41
41,71,30,41
40,71,30,41
40,71,30,41
39,71,30,39
39,71,29,39
39,71,30,39
39,70,29,39
39,70,29,39
39,70,29,39
39,70,29,39
39,70,29,39
39,69,29,39
39,69,28,39
38,69,28,39
38,68,28,39
38,68,28,39
38,68,28,38
38,67,28,38
38,67,27,38
37,67,28,38
37,67,28,38
37,66,29,37
37,66,33,38
36,66,32,37
36,65,33,37
36,65,32,37
36,65,32,37
37,65,31,36
36,65,31,36
37,64,31,36
36,64,31,35
36,63,31,36
36,63,31,35
36,63,31,35
35,63,31,35
35,63,31,35
35,63,31,35
35,62,31,35
35,62,31,35
35,62,31,35
35,61,31,35
34,61,31,34
34,61,30,34
34,61,30,34
34,61,30,34
34,60,30,34
34,60,30,33
34,60,30,35
33,60,30,35
33,59,31,35
33,59,38,35
33,59,38,35
33,59,38,35
33,58,38,35
33,58,37,34
32,58,38,34
32,58,37,34
32,57,37,34
31,57,37,35
31,57,37,35
31,57,37,34
31,56,37,34
31,56,37,34
31,56,36,34
31,56,36,34
31,56,36,34
35,56,36,33
35,56,35,33
35,55,35,33
34,55,35,33
34,55,35,33
34,54,35,33
34,54,35,33
34,54,34,33
34,54,35,32
34,54,34,33
33,53,34,32
33,53,34,31
33,53,34,31
33,52,33,31
33,52,33,31
32,52,33,31
32,51,33,31
32,51,33,31
32,51,33,31
32,51,33,31
31,51,33,31
31,51,33,31
31,51,33,30
31,51,33,30
31,50,33,30
31,50,33,31
31,50,33,30
31,50,31,30
31,49,32,30
31,49,32,30
30,49,31,29
30,49,32,29
30,49,31,29
30,49,31,29
30,49,31,30
30,49,31,30
30,48,31,29
30,49,31,29
29,48,31,28
29,48,30,29
29,47,30,29
29,48,30,29
29,47,30,29
29,48,30,29
29,47,30,28
29,47,30,28
28,47,30,28
28,46,29,28
28,46,29,28
28,46,29,28
28,46,29,28
28,45,29,27
29,46,29,28
31,45,29,27
31,45,29,27
31,45,28,27
31,45,28,27
30,45,28,27
30,44,28,27
30,44,28,26
30,44,28,26
30,44,28,26
30,44,28,26
29,43,28,26
29,44,28,26
29,43,28,25
29,43,27,25
29,43,27,25
29,43,27,25
29,42,27,25
29,42,27,25
28,42,27,25
28,41,26,25
28,41,27,25
28,42,26,25
28,41,26,24
28,41,26,24
28,41,26,25
28,41,25,24
28,41,26,24
28,41,25,24
28,39,25,24
27,39,25,24
27,39,25,24
27,39,25,24
27,39,25,24
27,39,25,23
27,39,25,23
27,39,25,23
27,39,25,23
26,39,24,23
26,39,24,23
26,39,24,23
26,38,24,23
26,38,24,23
26,38,24,23
25,38,24,23
25,38,24,22
25,37,24,22
25,38,25,22
25,37,24,22
25,37,24,22
25,37,24,22
25,37,24,22
25,36,24,22
25,36,24,22
24,36,24,21
24,36,24,21
25,36,24,21
24,35,23,21
24,36,24,21
24,35,24,21
24,38,23,21
24,38,23,21
24,38,23,21
24,37,23,21
24,37,23,20
24,37,23,20
24,37,22,20
24,37,23,20
23,37,22,20
23,36,22,20
24,36,22,19
23,35,22,19
23,36,22,20
23,35,22,22
22,35,23,22
23,35,23,21
22,35,22,21
22,35,23,21
22,35,22,21
22,35,22,21
22,35,22,20
22,34,22,21
22,34,22,21
22,34,22,21
21,34,21,20
22,34,22,21
21,34,21,22
22,34,22,22
21,33,22,21
21,33,21,22
21,33,21,21
21,33,21,21
21,33,21,21
22,33,20,21
21,33,21,21
22,33,20,21
21,32,20,21
21,32,20,21
21,31,20,20
21,31,20,20
21,31,22,20
21,31,21,20
20,31,21,20
21,31,21,20
20,31,21,20
20,31,21,19
20,31,21,19
20,31,20,19
20,31,20,19
20,30,20,19
19,30,20,19
19,30,21,19
20,30,20,20
20,30,25,20
19,30,25,20
19,30,25,19
19,30,24,19
19,30,25,19
27,30,25,19
28,29,24,19
27,29,25,19
27,29,24,19
27,29,24,19
27,29,24,19
27,29,24,19
27,29,24,19
26,29,24,20
26,28,24,19
26,28,24,19
26,28,24,19
26,28,24,19
39,28,23,19
39,28,23,19
39,28,23,19
38,28,23,19
38,28,23,19
38,28,23,19
37,28,23,19
37,27,27,19
37,27,27,18
37,27,26,18
37,27,26,18
36,27,26,18
36,27,25,18
36,27,25,18
36,26,25,18
36,26,25,18
35,26,25,18
35,26,25,17
36,26,25,17
35,26,25,20
35,26,25,24
35,25,25,23
34,26,25,23
35,25,24,23
34,25,25,22
34,25,24,23
35,25,25,22
35,25,24,22
35,25,24,22
35,25,24,22
35,25,24,22
35,25,24,22
34,24,24,22
34,24,24,24
34,24,35,24
34,24,35,24
34,24,38,24
34,24,38,24
33,24,37,24
33,24,37,24
33,24,37,23
33,24,37,24
33,24,37,23
33,24,36,23
32,24,36,22
32,24,36,23
32,23,36,24
32,23,36,23
31,23,35,23
31,23,35,23
31,23,35,23
31,23,35,23
44,22,35,23
51,23,35,22
51,22,34,22
50,22,34,22
50,22,34,22
50,22,34,23
49,22,34,22
49,22,34,22
49,22,34,22
49,22,33,21
48,21,33,22
48,21,33,21
48,21,33,21
48,21,33,21
48,21,33,21
48,21,33,21
47,21,32,21
47,21,32,21
48,21,32,21
47,21,31,21
46,20,31,21
46,21,33,44
46,21,33,43
45,20,33,43
46,20,33,43
46,20,33,42
45,20,32,42
45,20,32,42
45,20,32,42
45,20,32,41
45,19,31,41
44,19,31,41
44,19,31,41
44,19,31,40
44,19,31,39
44,19,31,39
43,19,31,39
43,19,31,39
43,19,31,39
43,19,31,39
44,19,30,39
44,19,30,39
43,19,30,39
43,19,30,39
43,19,30,39
43,19,30,38
42,19,29,38
42,18,30,38
42,18,30,38
41,18,30,38
42,18,29,37
41,18,29,37
41,18,29,37
44,18,29,37
44,18,29,37
43,18,28,36
43,18,28,36
43,18,28,36
43,18,28,36
42,17,28,36
42,17,28,36
42,18,28,35
42,17,28,35
41,17,28,35
41,17,28,35
41,17,28,35
42,17,27,35
41,17,27,35
41,17,27,34
41,17,27,34
41,17,27,34
41,17,27,34
41,17,27,34
39,17,45,34
41,17,57,33
39,16,56,33
39,17,56,33
39,16,56,33
39,16,55,33
39,16,56,33
39,16,55,33
39,16,55,32
39,15,54,32
39,16,54,32
39,16,54,31
39,15,53,31
38,15,54,31
38,16,53,31
38,16,53,31
38,15,52,31
38,15,52,31
38,15,52,31
39,15,51,31
39,15,51,30
39,15,51,30
38,15,51,30
38,15,51,30
38,15,51,30
38,15,51,30
38,15,50,30
38,14,50,30
38,15,50,30
37,15,49,29
37,14,50,29
37,15,49,29
37,15,49,29
37,15,49,29
37,14,49,28
36,14,48,28
36,14,48,29
35,14,48,28
36,14,48,75
36,14,47,75
36,14,48,74
35,14,47,73
35,14,46,73
35,14,47,73
35,14,46,71
35,14,46,71
35,14,46,71
35,14,45,71
34,14,46,71
34,14,45,71
34,13,45,70
34,14,45,70
34,13,45,69
33,13,45,69
34,13,45,69
33,13,44,69
33,13,44,68
34,13,44,68
34,13,44,67
34,13,44,67
34,13,43,67
33,13,43,67
33,12,43,66
33,13,43,66
33,13,43,66
33,13,42,65
33,13,42,65
32,13,42,65
32,13,41,64
31,13,41,64
31,12,41,64
37,13,41,63
37,12,41,63
37,12,41,63
37,13,40,63
36,13,39,63
36,13,41,62
36,13,39,62
36,13,39,62
35,13,39,62
35,13,39,62
35,12,39,61
35,12,39,61
36,12,39,60
37,12,39,60
36,12,39,60
36,12,39,60
36,12,38,59
35,12,38,59
35,12,38,59
35,12,38,59
35,12,38,58
35,16,38,58
35,16,38,58
35,16,37,57
34,15,37,57
34,15,37,57
37,15,37,57
37,15,37,57
36,15,37,57
36,15,36,56
36,15,36,56
35,15,36,56
36,15,35,56
35,15,35,55
35,15,35,55
35,15,35,55
35,15,35,55
35,15,35,54
35,15,35,54
35,15,35,54
36,15,34,54
35,15,34,53
35,15,34,53
35,15,34,53
35,14,34,53
35,15,42,52
35,14,100,52
34,15,99,51
34,14,98,51
34,14,98,51
34,14,97,51
34,15,97,51
38,14,96,51
38,14,96,51
38,14,95,50
38,14,95,50
38,14,95,50
37,14,94,50
37,14,94,50
37,14,93,49
37,14,93,56
37,14,93,56
36,14,92,56
36,14,91,55
36,14,91,55
37,14,91,55
36,13,90,54
37,14,90,54
36,14,89,54
36,13,89,54
35,13,89,54
36,13,88,53
35,13,88,53
35,13,88,53
35,13,88,52
35,13,87,52
35,13,87,51
35,12,86,51
34,13,86,51
35,13,86,51
35,12,85,51
35,13,84,51
35,12,84,51
35,12,84,50
35,12,84,50
34,12,83,50
34,12,83,50
34,12,83,49
34,12,82,49
34,12,82,49
34,12,82,48
34,12,81,48
34,12,81,48
34,12,81,48
34,12,80,48
33,12,79,48
33,12,79,48
33,12,79,47
33,12,79,47
33,12,79,47
33,12,78,47
33,12,78,46
32,11,77,46
32,11,78,46
36,12,77,46
38,12,77,46
38,11,77,45
38,11,76,45
37,11,76,45
37,11,76,45
37,11,75,45
37,11,75,45
37,11,75,44
37,12,74,44
36,12,74,44
36,12,73,44
36,12,73,44
35,12,73,43
35,12,73,43
35,12,71,43
35,12,71,43
35,12,71,42
35,12,71,43
35,12,71,42
35,12,71,42
34,11,71,42
34,11,71,42
34,12,70,41
34,11,70,41
33,11,70,41
34,11,69,41
42,11,69,41
42,11,69,41
41,11,68,39
41,11,68,39
41,11,68,39
41,11,67,39
41,11,67,39
41,11,67,39
39,11,67,39
39,11,67,39
39,11,66,39
39,11,66,39
39,11,66,39
39,10,65,39
39,10,65,38
39,10,65,38
39,10,65,38
39,10,65,38
38,10,64,38
38,10,63,37
38,10,63,37
38,10,63,37
38,10,63,37
38,10,63,37
38,10,63,37
37,9,62,36
37,10,62,36
37,10,62,37
37,10,62,36
37,9,62,36
37,9,61,35
36,10,61,35
36,10,61,35
36,9,61,35
35,9,61,35
35,9,60,35
35,9,60,35
35,9,60,35
35,9,60,35
47,9,60,35
51,9,59,34
51,9,59,34
51,9,59,34
51,9,59,34
50,9,59,34
50,9,58,33
50,9,58,33
50,9,58,33
49,9,57,33
49,9,57,33
49,9,57,33
49,9,56,33
48,9,57,33
48,9,56,32
48,9,56,33
48,9,56,31
48,7,56,31
47,9,56,31
47,9,55,31
47,7,55,31
46,8,55,31
46,9,54,31
46,8,54,31
46,8,54,31
46,8,54,31
45,8,54,31
45,8,54,31
46,8,54,31
46,7,53,30
46,7,53,30
46,7,52,30
46,7,53,30
45,7,52,30
45,7,52,30
45,7,52,31
45,7,52,31
44,8,51,30
44,7,51,30
44,7,51,30
44,7,51,30
44,7,50,30
44,7,50,30
44,7,50,30
43,7,50,30
43,7,50,29
43,7,50,29
43,7,49,29
43,7,49,29
43,7,49,29
43,9,49,30
42,10,49,30
42,10,48,30
42,10,48,29
42,10,48,29
41,10,48,29
41,10,48,29
41,10,48,29
41,10,48,29
41,10,47,29
39,9,47,29
39,9,47,28
39,9,47,29
39,9,47,28
39,10,46,28
39,10,46,28
39,10,46,28
39,10,46,28
39,10,45,28
39,9,45,28
39,9,46,28
39,9,45,27
39,9,45,27
39,9,45,27
38,9,45,27
38,9,44,27
38,9,44,27
38,9,44,27
38,9,44,27
38,9,44,27
37,9,44,26
37,9,44,26
37,9,44,27
41,9,43,26
41,9,43,25
41,9,43,25
41,9,43,26
39,9,42,25
39,9,42,26
39,9,41,25
39,9,42,25
39,8,41,25
39,9,41,25
39,9,41,25
39,9,41,25
39,7,41,25
39,7,41,25
39,9,41,25
39,8,39,24
38,7,41,24
38,9,39,24
38,9,39,24
38,7,39,24
38,9,39,24
38,9,39,25
37,9,39,25
37,9,39,25
37,8,39,25
37,9,39,25
37,9,39,25
37,7,39,25
37,9,39,24
37,7,39,24
37,7,39,24
37,7,39,24
36,8,39,24
36,7,39,24
36,8,39,24
36,9,38,24
36,9,38,24
35,10,38,23
35,9,38,24
35,9,37,24
35,9,38,24
37,10,37,23
37,9,37,23
37,9,37,23
37,9,36,23
37,9,37,23
36,9,36,22
36,9,37,23
36,9,37,22
36,9,36,22
36,9,36,22
35,9,36,22
35,9,35,22
35,9,35,22
35,9,35,22
38,9,35,22
38,9,35,21
38,9,35,21
38,9,35,21
38,9,35,21
37,9,34,21
