61,13,74,65
61,13,73,65
60,13,73,64
60,15,73,64
60,14,73,64
59,14,71,63
59,14,71,63
59,14,71,63
58,14,71,63
58,14,71,62
57,14,71,62
57,14,71,62
57,14,71,62
57,13,70,62
57,13,70,61
56,15,70,61
56,15,70,61
56,15,69,60
56,15,69,60
56,14,68,60
55,15,68,60
56,15,68,60
55,15,68,59
55,14,67,60
54,14,67,59
54,14,67,59
54,14,67,59
53,14,67,58
53,14,66,58
53,14,66,57
53,14,66,57
52,14,65,57
52,14,65,57
52,14,65,56
51,14,64,56
51,13,64,56
51,13,64,56
51,14,63,56
51,13,73,56
50,13,71,55
50,13,71,55
50,13,71,55
50,13,71,55
50,13,71,54
49,13,71,54
49,13,70,54
49,13,70,54
49,13,70,71
48,13,69,71
49,12,69,71
48,12,69,70
48,12,68,70
48,12,68,70
48,12,68,69
47,12,68,69
47,12,67,68
47,12,67,68
46,12,67,68
46,12,66,67
46,12,66,67
46,12,66,67
46,12,66,67
45,12,101,66
45,12,100,66
45,12,99,66
46,15,99,69
46,19,98,68
46,19,98,68
46,19,97,67
45,19,97,67
45,19,96,67
45,19,96,67
45,19,96,66
45,19,95,66
44,18,95,66
44,18,94,65
44,18,94,65
44,19,94,64
44,18,93,65
44,18,93,64
43,18,92,63
43,18,92,63
43,18,92,63
43,18,92,63
42,17,91,63
42,17,90,63
42,17,90,62
42,17,90,62
41,17,89,62
43,17,89,62
53,17,89,61
52,17,88,61
51,17,88,61
51,17,88,61
51,16,87,60
51,17,87,60
51,16,86,60
51,16,86,59
50,16,86,59
50,16,85,59
50,16,85,59
50,16,85,59
49,16,84,58
49,16,83,58
49,15,83,57
49,15,83,57
48,15,83,57
48,15,83,73
48,15,82,84
48,15,82,83
48,15,81,83
48,15,81,83
47,15,81,82
47,15,81,82
47,14,80,81
46,15,79,81
46,14,79,81
46,15,79,80
46,15,79,79
45,15,79,79
45,36,78,79
45,35,78,79
45,35,105,167
45,35,126,192
44,35,125,191
44,34,124,190
44,34,124,188
44,86,123,188
44,97,123,186
43,99,122,185
43,99,121,184
83,98,120,184
82,97,120,183
81,97,131,181
81,96,130,181
81,131,130,180
187,250,129,179
227,342,128,178
224,432,127,177
223,427,127,176
221,423,126,175
220,419,125,174
219,416,124,173
217,414,124,172
216,411,123,171
215,408,123,170
214,405,121,169
213,402,121,167
211,399,123,167
209,398,124,167
209,395,123,166
263,391,122,165
271,390,121,164
270,387,121,163
268,385,120,162
266,383,120,162
263,380,119,161
263,378,119,159
261,376,131,159
259,373,130,158
258,371,129,157
257,369,128,157
255,367,127,156
254,364,127,155
252,363,126,155
251,359,125,153
249,409,125,153
248,534,124,152
247,527,124,152
246,523,123,151
244,519,122,150
243,515,121,150
242,511,121,148
240,507,129,148
239,504,167,147
295,557,167,147
340,668,165,146
341,664,165,145
448,659,163,144
476,775,163,143
472,896,162,143
467,908,161,142
463,910,159,142
461,904,159,141
457,887,158,140
454,876,176,141
451,868,205,216
448,858,203,214
497,847,201,213
604,839,199,211
598,830,199,210
591,823,198,209
587,814,196,207
582,805,195,206
577,797,194,205
592,825,193,204
607,902,192,203
601,910,192,201
596,913,190,199
591,915,190,199
587,917,188,198
582,917,188,197
577,912,186,196
572,897,185,195
568,883,185,194
655,871,184,193
766,878,183,192
757,903,182,191
749,910,181,190
741,913,179,189
733,916,179,188
727,916,178,187
719,910,177,186
713,890,176,185
706,878,176,184
700,870,175,184
694,861,174,183
688,851,173,181
681,842,172,181
675,895,172,179
669,905,170,179
664,911,169,178
658,914,169,177
653,917,167,176
647,918,167,175
642,920,166,175
637,921,166,174
632,921,165,172
627,918,163,172
622,902,163,171
617,883,162,170
612,873,161,169
608,865,161,169
604,857,160,167
600,847,159,167
595,839,159,167
591,831,158,166
587,824,158,165
582,815,157,164
577,807,156,163
573,812,155,162
574,803,154,161
569,793,154,161
565,786,153,159
561,780,152,159
557,773,152,159
553,765,151,158
549,758,150,157
545,751,150,156
541,745,148,156
537,738,147,155
535,732,147,154
543,725,147,153
539,719,146,153
535,713,145,152
531,707,145,152
527,700,143,151
524,696,143,149
519,690,143,149
516,684,142,148
513,678,141,155
510,674,141,154
506,668,145,153
503,662,146,163
499,657,146,162
496,653,144,161
493,647,143,160
490,641,143,159
487,637,142,158
483,633,142,157
481,628,141,157
478,623,140,156
475,618,140,155
472,614,139,154
468,609,138,153
466,605,137,152
463,600,137,152
460,595,135,151
457,592,135,150
455,588,135,149
452,583,134,149
449,579,134,147
447,575,134,147
444,572,132,146
441,568,132,146
439,563,131,145
436,560,131,145
434,556,130,143
431,552,130,143
429,713,129,142
426,775,128,142
423,768,127,141
421,759,127,140
419,751,127,140
415,745,126,139
414,737,126,139
412,729,125,137
409,723,124,137
407,717,124,135
405,711,123,135
403,704,123,135
400,697,122,134
398,692,121,134
396,685,121,133
393,679,120,133
391,673,120,132
389,668,120,131
387,664,119,131
385,657,118,130
383,651,118,129
381,645,117,129
379,641,117,128
377,636,116,127
375,631,115,127
373,625,115,127
371,622,115,126
369,615,114,126
367,611,114,125
365,606,113,124
363,603,112,124
361,598,112,123
359,593,111,123
357,588,111,122
355,585,111,121
353,580,110,121
352,575,110,120
350,572,109,120
348,568,109,119
346,564,108,119
344,560,108,118
343,556,107,118
341,552,107,117
339,548,106,117
337,544,105,116
335,541,105,115
334,537,105,115
332,534,103,115
331,531,103,114
329,527,103,113
327,524,103,113
326,519,103,112
324,517,102,112
323,513,101,111
321,510,101,111
319,507,114,111
318,504,113,110
316,500,112,109
315,497,112,109
313,495,111,108
312,491,110,108
310,487,110,107
309,485,109,107
307,483,109,107
306,480,108,106
304,476,108,105
303,473,107,105
302,472,107,103
300,468,106,103
299,465,105,103
297,462,105,103
295,460,103,103
294,457,103,127
293,455,103,133
291,451,103,131
290,449,103,131
289,447,102,130
287,444,101,129
286,441,101,128
285,439,100,127
284,437,99,127
282,434,99,126
281,432,99,126
280,430,99,125
279,427,98,124
277,425,98,124
275,423,97,123
275,421,97,123
274,419,97,122
272,415,96,121
271,414,96,121
270,412,96,120
269,410,94,120
268,408,94,119
267,405,94,119
265,403,94,118
263,401,93,117
263,399,93,117
262,397,93,116
261,396,92,115
259,393,92,115
259,391,92,115
257,389,91,114
255,387,91,113
255,385,90,113
254,384,90,112
253,381,89,111
252,380,89,111
251,377,88,110
249,376,88,110
248,374,88,109
248,371,88,109
247,370,105,108
245,368,103,108
244,366,103,107
243,365,103,107
242,363,102,106
241,361,101,106
240,359,101,105
239,357,100,103
238,355,99,103
237,353,99,103
236,352,99,103
235,350,98,103
233,348,98,102
233,347,98,102
231,345,97,101
231,344,96,101
230,342,96,100
229,339,96,100
227,338,95,99
227,336,95,99
226,335,94,99
225,334,94,99
224,332,93,98
224,331,93,97
222,329,92,97
222,327,92,97
221,327,92,96
220,325,92,96
219,323,91,96
218,322,90,95
217,321,89,95
216,319,89,94
216,318,89,94
215,317,89,93
214,315,88,93
213,314,88,93
212,312,88,92
211,311,88,92
211,310,87,92
210,308,87,92
209,307,86,91
208,306,86,91
207,304,85,90
206,303,85,90
206,302,84,89
205,300,84,89
204,299,84,89
203,298,83,88
203,295,83,88
202,295,83,88
201,294,83,88
199,293,82,87
199,292,82,87
199,291,82,87
198,289,81,86
197,287,81,86
196,287,80,85
195,286,80,85
195,284,80,84
194,284,79,84
193,282,79,84
193,281,79,83
192,315,78,83
191,335,99,82
190,333,98,83
190,331,98,82
189,329,97,82
188,327,97,81
188,325,96,81
187,323,96,81
186,321,96,80
185,319,95,80
185,317,95,79
184,316,94,79
184,315,93,79
182,312,93,79
182,311,93,79
181,309,92,78
181,307,92,78
180,306,97,78
179,305,97,77
179,303,96,77
178,301,96,77
177,300,96,76
176,298,95,76
176,297,95,76
175,295,94,76
174,294,94,75
174,292,93,75
173,290,93,75
173,289,92,74
172,287,92,74
171,286,91,73
171,285,91,73
170,284,91,73
169,283,90,72
169,281,90,71
167,280,89,71
167,279,89,71
167,277,89,71
166,276,88,71
166,275,88,71
165,274,88,71
164,272,87,71
163,271,87,70
163,270,86,70
163,269,86,69
162,268,85,69
161,267,85,69
161,266,84,97
159,265,84,96
159,263,83,95
159,263,83,94
158,262,83,94
158,260,82,93
157,259,82,93
156,258,82,93
156,257,82,92
155,255,81,92
155,255,80,91
154,254,80,91
154,253,79,90
153,252,79,90
152,251,79,89
152,250,79,89
152,249,79,88
151,248,78,88
150,247,78,88
150,246,78,88
149,245,77,87
148,244,77,86
147,243,76,86
147,242,76,85
147,241,76,85
146,240,76,84
145,239,75,84
145,238,75,83
145,237,75,83
144,236,74,83
143,235,74,83
143,234,74,82
142,233,73,82
142,231,73,82
141,231,73,81
141,231,73,81
140,230,71,80
140,229,71,79
140,227,71,79
139,227,71,79
139,226,71,79
137,225,71,78
137,224,71,78
137,224,70,78
135,223,70,77
135,222,70,77
135,221,69,77
135,220,69,76
134,219,69,76
134,218,69,76
133,217,68,75
133,217,68,75
132,216,67,74
132,215,67,74
131,214,67,73
131,213,67,73
130,212,67,73
130,211,67,73
129,211,66,71
129,210,66,71
129,209,66,71
127,208,66,71
127,207,65,71
127,207,65,71
127,206,65,71
126,205,64,70
126,204,64,70
125,204,63,70
125,203,63,69
124,202,63,69
124,201,63,69
123,199,63,68
123,199,62,67
123,199,62,67
122,198,62,67
122,198,62,67
121,197,61,67
121,195,61,67
121,195,61,66
177,195,61,66
185,194,61,66
184,194,60,65
183,193,60,65
182,192,60,65
181,192,60,64
179,191,59,64
179,190,59,63
178,189,59,63
177,188,59,63
176,188,59,63
175,187,58,63
175,187,58,63
174,185,58,62
172,185,58,62
172,184,57,62
171,184,57,62
170,183,57,61
169,182,56,61
169,182,56,61
167,181,56,61
167,180,56,60
167,179,56,60
166,179,56,60
165,178,55,60
164,177,55,59
163,177,55,59
163,176,54,59
162,175,54,59
161,175,54,58
161,174,54,59
159,174,64,58
159,173,63,58
158,172,63,57
158,172,63,57
157,171,63,57
156,170,62,57
156,169,62,56
155,169,62,56
154,167,61,56
153,167,61,56
153,167,61,56
152,166,71,56
152,166,70,56
151,166,70,55
150,164,70,55
149,163,70,55
149,163,69,54
148,163,69,54
147,162,68,54
147,161,68,53
146,161,67,53
145,160,67,53
144,159,67,53
143,159,67,53
143,159,66,53
143,158,66,52
142,157,66,51
142,157,65,51
141,156,65,51
140,156,64,51
140,155,64,51
139,154,63,52
138,153,63,52
138,153,63,52
137,153,63,51
135,152,62,51
135,152,62,51
135,151,62,51
135,150,62,51
134,150,62,51
134,149,61,50
133,149,61,51
132,148,61,51
131,147,60,50
131,147,60,51
131,147,60,50
130,146,59,50
129,145,59,49
129,145,59,50
128,145,106,49
127,143,103,49
127,143,103,49
127,143,103,48
126,142,103,48
126,142,102,48
125,141,102,48
124,141,101,48
124,140,100,47
123,140,99,47
123,139,99,47
122,139,99,47
122,138,99,47
121,137,98,46
121,137,97,46
120,137,97,46
120,135,96,46
120,135,96,46
119,135,96,45
118,135,95,45
118,134,94,45
118,134,94,45
117,133,94,45
117,133,94,44
116,131,93,44
115,131,93,44
115,131,92,44
115,131,92,44
115,130,91,43
114,129,91,44
113,129,90,43
113,129,90,43
113,128,89,43
112,127,89,43
112,127,88,42
112,127,88,42
111,126,88,42
111,126,88,41
110,125,87,41
110,125,87,41
110,124,86,41
109,124,86,41
109,124,86,41
108,123,85,41
108,123,85,41
107,122,84,41
107,122,83,41
107,121,83,41
106,121,83,40
106,120,83,39
105,120,82,40
105,120,82,39
105,119,82,40
103,119,81,39
103,118,81,39
103,118,81,39
103,118,80,39
103,117,79,39
103,117,79,39
102,115,79,39
102,115,79,39
102,115,79,38
101,115,79,50
101,115,78,50
100,114,78,50
99,114,77,49
99,113,77,49
99,113,77,49
99,112,76,49
99,112,76,48
98,112,76,48
98,111,75,48
97,110,75,48
97,111,75,48
97,110,74,47
96,110,74,47
96,109,74,47
96,109,73,47
96,109,73,46
95,108,73,68
95,108,71,67
94,108,71,67
94,107,75,66
94,107,75,66
94,106,75,66
93,106,74,65
93,105,73,65
92,105,73,65
92,105,73,64
92,103,73,64
92,103,71,63
91,103,71,63
91,103,71,63
91,103,71,63
90,103,71,63
90,102,71,62
89,102,71,62
89,102,115,61
89,102,117,61
89,101,143,61
88,101,142,61
88,100,140,60
88,99,140,60
87,99,139,60
87,99,138,60
87,99,137,59
86,98,137,59
86,98,135,59
86,98,135,59
86,97,135,59
85,97,134,58
85,97,134,57
85,97,133,57
84,96,133,59
84,96,132,59
83,96,131,58
83,95,131,57
83,94,130,57
83,94,130,57
82,94,129,57
82,94,128,57
82,93,127,56
81,93,127,56
81,93,126,56
81,93,126,56
81,92,126,56
80,92,125,55
79,92,127,55
79,91,127,55
79,91,126,54
79,91,126,54
79,90,125,54
79,89,125,53
78,90,124,53
78,89,124,53
78,89,123,53
78,88,123,53
77,88,122,52
77,88,121,52
77,88,121,52
77,88,120,51
76,87,120,51
76,87,120,51
76,86,119,51
76,86,119,51
75,86,118,50
75,85,118,50
75,85,117,50
74,85,116,49
75,85,115,49
74,84,115,49
73,84,115,49
73,84,114,49
73,83,114,49
73,83,113,48
73,83,113,48
72,83,113,48
71,82,112,48
71,82,112,48
71,82,111,47
71,82,111,47
71,81,110,77
71,81,110,77
71,81,109,77
71,80,109,77
70,80,108,76
70,79,108,76
70,79,108,76
69,79,107,75
69,79,107,75
69,79,106,75
69,78,105,74
68,78,105,73
68,78,108,73
68,78,108,73
67,77,107,73
67,77,106,71
67,77,106,71
67,77,106,71
66,76,105,71
67,76,105,71
66,76,103,71
66,75,103,71
66,76,103,70
66,75,103,70
65,75,103,69
65,75,102,69
64,74,102,70
65,74,102,70
64,74,101,69
64,73,100,69
63,73,100,68
63,73,99,68
63,73,99,68
63,71,99,67
63,71,98,67
63,71,98,67
62,71,98,67
63,71,97,66
62,71,97,66
62,71,96,66
62,71,96,65
62,70,96,65
61,71,96,65
61,70,95,64
61,70,95,64
61,70,94,64
61,70,94,63
60,69,94,63
60,69,93,63
60,69,93,66
60,69,93,74
60,68,92,73
59,68,92,73
59,67,91,73
59,67,91,71
59,67,91,71
59,67,91,71
58,67,90,71
58,67,90,71
58,66,89,71
58,66,89,70
57,66,89,70
57,66,88,70
57,65,88,70
57,65,88,69
56,65,87,69
57,65,87,69
56,65,86,68
56,64,86,68
56,64,86,67
56,64,86,67
56,63,85,67
56,63,85,67
56,63,84,66
55,63,84,67
55,63,83,66
55,63,83,65
54,62,83,65
55,62,83,65
54,62,83,64
54,62,83,64
54,62,82,63
54,61,82,63
53,61,81,63
53,61,81,63
53,61,80,63
53,61,80,63
53,60,80,62
52,60,79,62
52,60,79,62
52,60,79,62
52,60,79,61
51,59,78,61
51,59,78,61
51,59,78,61
51,59,78,60
51,59,78,60
51,58,77,60
51,58,77,59
51,58,107,59
50,58,106,59
50,57,127,59
50,57,127,58
50,57,126,58
50,57,125,58
49,57,124,58
49,57,124,57
49,56,124,57
49,56,123,57
49,56,122,57
49,56,121,56
49,56,121,56
48,56,120,56
48,55,120,56
48,56,120,56
48,55,119,56
48,55,118,56
47,54,118,55
47,54,118,55
47,54,117,55
47,54,116,54
47,53,115,54
47,53,115,54
46,53,115,54
46,53,114,53
46,53,113,53
46,52,113,53
45,53,113,52
45,52,112,52
45,52,112,51
45,51,111,51
45,51,111,51
45,51,110,51
44,51,110,51
45,51,109,51
44,51,109,50
44,51,108,50
44,51,108,50
44,50,108,50
44,50,107,50
44,50,107,49
43,50,106,49
43,49,105,49
43,50,105,49
43,49,105,48
43,49,103,48
42,49,103,48
43,48,103,48
42,49,103,48
42,48,103,48
42,48,103,47
41,48,102,47
42,48,102,47
41,48,101,47
41,48,101,46
41,48,100,46
41,47,99,46
41,47,99,45
41,47,99,46
40,47,99,45
40,46,98,45
40,46,98,45
39,46,97,45
39,46,97,45
39,46,96,44
39,46,96,44
39,46,96,44
39,46,95,44
39,45,95,44
39,45,94,43
39,45,94,44
39,45,94,43
39,45,94,43
39,45,93,42
38,44,93,42
39,44,93,42
38,44,92,42
38,44,92,42
38,44,91,41
38,44,91,56
38,43,91,56
38,44,90,55
37,43,97,55
37,43,97,55
37,43,96,54
37,43,96,54
36,43,95,54
37,43,95,53
36,43,94,53
37,42,94,53
36,42,94,53
36,42,94,73
36,42,93,73
35,41,93,71
36,41,93,71
35,41,92,71
35,41,91,71
35,41,91,71
35,41,91,70
35,41,90,70
35,41,90,70
35,39,89,69
35,39,89,69
35,39,89,69
34,39,88,68
35,39,89,68
34,39,88,68
34,39,88,67
34,39,87,67
34,39,87,67
34,39,86,66
34,39,86,67
34,39,86,66
33,39,85,66
33,39,85,66
33,38,85,65
33,39,84,65
33,38,84,65
33,38,83,64
33,38,83,64
32,38,83,63
32,38,83,63
32,38,82,63
32,37,82,63
31,37,82,63
31,37,81,62
32,37,81,62
31,37,81,62
31,37,80,62
31,36,80,61
31,37,79,61
31,36,79,61
31,36,79,60
31,36,79,61
31,36,79,60
31,36,78,59
31,35,80,60
31,35,79,59
31,35,144,59
30,35,163,86
30,35,161,85
30,35,161,84
30,35,159,84
30,35,159,83
30,34,158,83
29,35,157,83
29,35,156,83
29,35,161,82
29,34,159,82
29,34,159,81
29,34,158,81
29,34,158,80
29,34,157,80
29,33,156,79
29,33,155,79
28,33,155,79
28,33,153,78
28,33,153,78
28,33,152,78
28,32,152,78
28,32,151,77
28,32,150,77
28,32,150,76
28,32,149,76
28,32,148,76
28,31,147,75
27,31,147,75
27,31,146,75
27,31,146,74
27,31,145,74
27,31,144,73
27,31,143,73
27,31,143,73
27,31,143,73
27,31,142,73
27,31,147,71
26,31,167,71
26,31,166,71
26,30,164,71
26,30,163,71
25,30,163,70
25,30,162,70
25,30,161,69
25,30,161,70
25,30,159,69
25,29,159,69
25,30,158,68
25,29,158,68
25,29,157,67
25,29,156,67
25,29,156,67
25,29,155,67
25,29,154,67
24,28,153,66
24,29,153,66
24,28,152,66
24,29,152,66
24,28,151,66
24,28,150,65
24,28,149,65
24,28,149,65
24,28,148,64
24,28,147,65
24,28,146,63
24,27,146,63
24,28,145,63
24,27,145,63
24,27,143,63
23,27,143,63
23,27,143,62
23,27,142,62
22,27,142,62
23,27,141,62
22,27,141,61
22,26,140,61
22,26,139,61
22,26,139,60
22,26,139,60
22,26,137,60
22,25,137,60
22,25,137,60
22,25,135,59
21,26,135,59
22,25,135,59
21,25,134,59
22,25,134,58
21,25,133,58
21,25,132,58
21,25,132,57
21,25,131,57
21,25,131,57
21,25,130,57
21,25,130,57
21,25,129,56
21,24,129,56
21,24,128,56
20,24,127,56
20,24,127,55
20,24,127,56
20,24,126,55
20,24,126,54
20,24,125,54
20,24,125,54
19,24,124,54
20,24,124,54
19,24,123,53
19,24,123,53
19,24,122,53
19,23,121,52
19,23,121,52
19,23,121,51
19,23,120,51
19,23,120,51
19,22,119,51
19,23,119,51
19,22,118,73
19,22,118,73
19,22,117,71
19,22,117,71
19,22,116,71
18,22,116,71
19,22,115,71
18,22,115,71
18,22,114,70
18,21,114,70
18,22,113,69
18,22,113,69
18,21,112,69
18,21,112,68
18,21,112,68
18,21,112,68
17,21,111,67
17,21,110,67
17,21,110,67
17,20,109,66
17,21,109,66
17,21,109,66
17,21,108,65
17,20,107,65
17,20,107,65
17,20,107,65
17,20,107,64
17,20,106,64
17,20,105,63
16,19,105,63
16,19,105,63
16,20,103,63
16,19,103,63
16,19,103,62
16,19,103,62
16,19,103,62
16,19,102,61
16,19,102,61
16,19,101,61
15,19,101,61
15,19,101,60
15,19,100,60
15,19,99,60
15,19,99,60
15,18,99,59
15,18,99,59
15,19,98,59
15,18,98,58
15,18,97,58
15,18,97,58
15,18,96,58
15,18,96,57
15,18,116,57
15,18,115,57
15,18,115,57
15,18,114,57
14,18,113,56
15,18,113,57
15,17,113,56
14,17,112,56
14,18,112,56
14,17,111,55
14,17,111,55
14,17,110,55
14,17,110,54
14,17,109,54
14,17,109,54
14,17,108,54
14,17,108,53
14,17,107,53
13,17,107,53
14,16,106,52
14,17,105,60
14,16,105,60
13,16,105,59
13,16,103,59
14,16,103,59
13,16,103,58
13,16,103,58
13,16,103,58
13,16,102,57
13,16,102,57
13,15,102,57
13,16,101,57
13,15,100,57
13,16,100,57
13,15,99,57
13,15,99,57
12,15,98,57
12,15,99,56
13,15,98,57
13,15,98,56
13,15,97,56
13,15,97,56
13,15,96,56
12,15,96,56
12,15,96,55
12,15,95,54
12,15,95,54
12,15,94,54
12,15,94,53
12,14,94,54
12,15,93,68
12,14,93,67
11,14,93,67
12,14,92,67
12,14,92,66
12,14,92,66
12,14,92,66
12,14,91,66
12,14,91,65
11,14,90,65
11,14,90,65
11,14,89,64
11,14,89,64
11,14,89,63
11,14,89,63
11,14,100,63
11,14,99,63
11,13,99,63
11,14,99,63
11,14,98,63
11,13,98,63
11,13,97,63
11,14,97,63
10,13,97,62
11,13,96,62
10,13,96,62
11,13,96,61
11,13,95,61
10,13,94,61
10,13,94,60
10,13,93,60
11,13,93,60
10,13,93,60
10,13,103,60
10,13,103,59
10,13,103,59
9,13,103,63
10,13,102,63
10,12,102,63
10,13,101,62
10,12,101,63
10,12,100,62
10,12,99,62
10,12,99,61
9,12,99,61
9,12,99,61
9,12,98,61
10,12,97,60
9,12,97,60
9,12,96,60
9,12,96,60
9,12,96,59
9,12,96,59
9,12,95,59
9,11,95,59
9,11,95,58
9,11,95,58
9,11,94,58
9,11,94,58
9,11,93,57
9,11,92,57
9,11,93,57
9,11,92,57
9,11,92,56
9,11,91,56
9,11,91,56
9,11,91,56
9,11,90,56
9,11,90,56
9,11,89,56
9,11,89,56
8,11,89,55
8,11,88,55
8,11,88,55
7,11,88,54
9,10,88,54
8,11,88,54
7,10,87,54
7,10,86,53
9,11,86,53
9,10,86,53
7,10,85,53
8,10,85,53
7,10,108,52
7,10,108,51
7,10,107,51
7,10,106,51
7,10,105,51
7,10,105,51
7,10,105,51
7,10,103,51
7,10,103,51
7,10,103,50
7,9,103,50
7,9,103,50
7,9,102,49
7,9,102,49
7,9,101,49
7,9,101,49
7,9,100,49
7,9,100,48
7,9,99,48
7,9,99,48
7,9,99,48
7,9,99,50
7,9,98,77
7,9,98,76
7,9,97,76
7,9,97,75
7,9,96,75
7,9,96,75
7,9,96,74
7,9,96,74
7,9,96,74
7,9,95,73
7,9,95,73
7,9,94,72
7,9,94,71
7,9,94,71
7,8,93,71
7,9,93,71
7,9,93,71
6,8,93,71
7,9,92,70
7,9,92,71
7,8,91,70
6,8,91,70
6,7,91,69
7,7,90,69
6,7,90,69
7,7,90,69
6,8,89,68
7,8,89,68
7,7,89,68
6,7,88,67
7,7,88,67
6,7,88,67
6,7,87,67
6,7,87,66
6,7,87,66
6,7,86,66
6,7,86,65
6,7,86,65
6,7,85,65
6,7,85,65
6,7,85,65
6,7,84,64
6,7,84,64
6,7,83,63
6,7,83,63
6,7,83,63
6,7,83,63
6,7,83,63
6,7,83,63
6,7,82,62
6,7,83,62
6,7,147,62
6,7,147,62
6,7,146,61
6,7,145,61
6,7,144,61
5,7,143,60
6,7,143,61
5,7,142,60
5,7,142,60
5,7,141,60
5,7,141,60
5,7,140,59
5,7,139,59
6,7,139,59
5,7,138,58
5,7,137,58
6,7,137,58
5,7,137,58
5,7,135,57
5,7,135,57
5,7,135,57
5,7,135,57
5,7,134,88
5,7,133,88
5,7,133,87
5,7,132,87
5,7,131,86
5,6,131,86
5,7,130,86
5,6,130,85
5,7,129,85
5,7,129,84
5,7,129,84
5,6,127,83
5,6,127,83
4,6,127,83
5,6,127,82
5,6,126,82
5,6,126,82
5,6,125,81
5,6,124,81
5,6,124,81
4,6,124,80
5,6,123,80
5,6,123,79
5,6,122,79
5,6,122,79
5,6,121,78
4,6,121,79
5,6,120,78
4,6,120,78
4,6,120,78
4,6,119,77
4,6,119,77
5,6,118,76
5,6,118,76
4,6,117,76
4,6,124,76
4,5,123,75
4,6,123,75
4,6,122,75
7,5,122,75
7,5,121,74
7,5,121,73
7,6,121,73
7,5,120,73
7,6,120,73
7,6,119,73
7,5,119,71
7,5,118,71
7,5,118,71
7,5,117,71
7,5,116,71
7,6,116,71
7,5,115,70
7,5,115,70
7,5,115,70
7,5,114,69
7,5,114,69
7,5,113,69
7,5,113,69
6,5,112,68
7,5,112,68
7,5,112,68
7,5,111,68
7,5,111,67
6,5,111,67
6,5,110,66
6,5,110,67
6,5,110,66
6,5,109,66
6,5,108,66
6,5,108,68
6,5,108,88
6,5,107,87
6,4,107,86
6,5,107,86
6,5,106,86
6,5,105,85
6,5,105,85
6,5,105,85
6,5,105,84
6,5,103,83
6,5,103,83
6,5,103,83
6,5,103,83
6,5,103,82
6,5,102,82
5,5,102,81
6,4,102,81
6,4,101,81
5,4,101,81
5,4,100,80
5,4,100,79
5,4,99,79
5,5,99,79
5,4,99,79
5,4,99,79
5,4,98,78
5,4,98,78
5,4,98,78
5,4,97,78
5,4,97,77
5,4,97,76
5,4,96,77
5,4,96,76
5,4,96,76
5,4,96,76
5,4,95,75
5,4,94,76
5,4,94,75
5,4,94,75
5,4,94,74
5,4,93,74
5,4,93,73
5,4,92,74
5,4,93,73
5,4,92,73
5,3,92,73
5,4,91,71
5,4,91,71
5,3,91,71
5,4,91,71
5,4,90,71
5,4,90,71
4,4,90,71
5,3,89,71
4,3,89,70
5,4,89,70
4,3,88,70
4,4,88,70
5,3,88,69
5,3,88,69
4,3,88,69
4,3,87,68
5,3,87,68
4,3,86,68
4,3,86,67
5,3,86,67
5,3,85,67
4,3,85,67
4,3,85,67
4,3,84,66
4,3,84,66
4,3,84,66
4,3,83,71
4,3,83,82
4,3,83,81
4,3,83,81
4,3,105,81
4,3,105,80
4,3,103,79
3,3,103,79
4,3,103,79
4,3,103,78
3,3,103,78
4,3,102,78
3,3,102,78
4,3,101,78
3,3,101,77
3,3,100,77
4,3,106,77
3,3,112,76
3,3,111,76
3,3,110,76
3,3,110,75
3,3,110,75
3,3,109,74
3,3,109,74
3,3,108,74
3,3,107,73
3,3,107,73
3,3,107,73
4,3,106,73
3,3,106,71
3,3,105,71
3,3,105,71
3,3,103,71
3,3,103,71
3,3,103,71
3,3,106,71
3,3,147,71
3,3,146,70
3,3,146,70
3,3,145,70
3,3,143,70
3,3,143,69
3,3,143,69
3,3,142,69
3,3,142,68
3,3,141,68
3,3,140,68
3,3,140,67
3,3,140,67
3,3,139,67
3,3,138,67
3,3,137,66
3,3,137,66
3,3,135,66
3,3,135,66
3,3,135,66
3,3,135,65
3,3,135,65
3,3,134,65
3,3,133,64
3,3,133,63
3,3,132,63
3,3,131,63
3,3,131,63
3,3,131,63
3,2,130,63
3,3,130,62
3,2,129,62
3,3,129,62
3,3,128,62
3,2,127,61
3,3,127,63
3,3,127,62
3,3,126,62
3,2,126,62
3,3,126,62
3,2,125,62
3,3,125,61
3,2,124,61
3,2,124,61
3,2,123,60
2,3,123,60
3,3,122,60
3,2,122,59
3,2,121,59
3,3,121,59
3,2,120,59
3,3,120,58
3,2,120,59
3,3,120,59
3,2,119,58
3,2,118,57
2,2,118,57
3,2,117,57
3,3,117,57
3,2,117,56
3,3,116,57
3,2,115,56
2,2,115,56
3,2,115,56
3,2,115,56
2,2,114,56
3,2,113,56
2,2,113,56
2,2,113,54
3,2,112,55
3,2,112,54
2,2,112,54
2,2,111,54
3,2,111,54
2,2,110,53
3,2,110,53
2,2,109,53
2,2,109,53
3,2,109,52
2,2,108,52
2,2,108,51
15,2,108,52
15,2,107,51
15,3,106,51
15,2,106,51
15,2,105,51
15,2,105,51
15,2,105,51
15,2,103,50
15,2,103,50
15,2,103,50
15,2,103,50
14,2,103,50
14,2,102,50
14,2,102,49
14,2,102,48
14,2,101,48
14,2,101,48
14,2,100,77
14,2,100,76
14,2,99,76
14,2,99,75
14,3,99,74
14,2,99,74
14,2,98,74
13,2,98,73
13,2,97,73
13,2,97,73
13,2,97,73
13,2,96,71
13,2,96,71
13,2,96,71
13,2,96,71
13,2,95,71
13,2,95,71
13,2,94,71
13,2,94,70
13,2,94,70
13,2,94,70
12,2,93,69
13,2,92,69
12,2,92,69
12,2,92,69
12,2,92,68
13,2,91,67
12,2,91,67
12,2,91,67
12,2,90,67
12,2,90,67
12,2,90,85
12,2,89,96
12,2,141,96
12,2,152,95
12,2,150,95
12,2,149,94
11,2,148,94
12,2,147,93
11,2,147,93
12,2,146,92
11,1,145,92
11,2,145,91
11,2,143,92
11,2,143,91
11,2,143,91
11,2,142,90
11,2,142,90
11,2,141,89
11,2,140,89
39,2,140,89
39,2,139,88
39,2,139,88
39,2,138,88
39,2,137,87
38,1,137,87
39,2,135,86
38,2,135,86
38,2,135,86
38,1,135,86
37,2,134,85
37,2,134,84
37,1,133,84
37,2,133,83
37,2,132,83
36,1,131,83
36,2,131,82
35,2,130,82
35,2,129,81
35,2,129,81
35,2,129,81
35,1,127,81
35,2,127,80
35,1,127,80
35,2,127,79
34,2,126,79
34,2,125,79
34,1,125,79
34,1,125,78
34,2,124,78
34,2,123,78
34,1,123,78
33,2,122,77
33,1,122,77
33,1,121,76
33,1,121,76
33,1,121,76
32,2,120,76
33,1,120,75
32,1,120,75
31,2,119,74
31,1,118,74
35,1,118,74
35,1,117,73
35,1,117,73
34,1,116,73
34,2,115,71
34,2,115,71
34,2,115,73
34,1,114,73
34,2,114,71
34,2,114,71
33,1,113,71
33,1,113,71
33,2,112,71
33,1,112,71
33,2,111,70
33,1,111,71
32,1,111,70
32,1,110,70
32,1,109,73
31,2,109,72
31,1,109,71
31,2,150,71
31,1,148,71
31,2,147,71
31,1,147,71
31,1,146,70
31,1,145,70
31,1,145,70
30,1,143,69
31,1,143,70
30,2,142,69
30,1,142,68
30,1,141,68
30,1,140,67
