98,113,237,63
98,112,236,75
97,111,246,73
96,111,245,73
96,110,243,73
96,109,242,73
95,109,241,71
95,109,240,71
95,108,238,71
94,108,237,71
94,107,236,71
93,107,235,71
93,106,234,73
92,106,243,71
92,105,246,71
91,103,245,71
91,103,243,71
91,112,243,71
91,111,241,70
90,110,239,70
89,109,238,69
89,109,237,69
88,108,236,69
88,108,235,69
88,108,239,68
88,107,261,68
87,106,259,68
86,105,258,67
88,105,256,67
89,105,255,67
88,103,254,66
88,103,252,66
87,103,251,66
87,103,249,65
87,102,248,65
86,102,247,66
86,101,253,65
85,101,251,65
85,100,249,64
84,100,248,64
85,99,247,63
85,99,246,63
84,98,243,63
84,98,243,63
83,97,242,66
83,97,241,67
83,96,240,70
82,96,250,69
82,96,250,69
82,96,249,68
81,95,247,68
81,94,246,67
81,94,245,67
81,94,243,67
80,93,242,67
79,93,241,66
79,92,240,66
79,92,239,66
79,92,237,66
78,92,260,65
78,91,259,65
78,91,258,64
77,90,256,64
98,121,255,63
116,121,253,63
115,121,252,63
115,120,251,63
114,120,249,62
113,119,248,62
112,118,246,63
112,117,250,62
111,116,249,62
111,115,248,61
110,115,246,61
109,122,245,61
109,121,243,60
108,120,242,60
108,120,240,60
107,119,239,59
107,118,238,60
106,118,237,62
105,117,252,61
105,116,251,61
103,115,249,61
103,118,248,60
103,123,247,60
103,122,245,60
103,121,243,59
102,121,242,59
102,120,241,59
101,120,240,59
101,119,249,60
100,118,255,60
99,117,254,59
99,117,253,59
99,116,252,59
103,115,250,58
103,114,248,58
103,114,248,57
102,114,246,57
101,113,245,57
101,112,243,59
100,111,246,59
99,111,247,57
99,111,245,57
99,110,243,57
98,142,242,57
98,146,241,56
98,145,240,56
97,143,238,56
97,143,237,56
96,142,236,56
96,142,235,59
96,141,238,59
95,140,246,59
94,139,245,58
94,139,243,58
93,138,242,58
95,137,241,57
94,136,239,57
94,135,238,57
93,135,237,57
93,135,236,62
92,134,235,63
92,133,233,64
91,132,254,63
91,131,253,63
90,131,252,63
90,131,250,62
94,131,249,62
93,131,248,62
93,130,246,62
92,129,244,61
92,129,243,61
91,127,242,61
91,127,241,60
90,127,255,60
90,126,254,60
89,125,252,59
89,125,251,59
108,127,249,59
112,127,248,58
111,126,247,58
110,125,245,58
110,125,243,57
109,124,243,57
108,124,241,60
108,123,255,60
107,122,254,60
107,121,252,59
106,121,251,59
106,122,249,59
105,121,248,58
105,121,246,58
103,120,245,57
103,120,243,71
103,118,243,75
103,118,243,75
102,117,248,74
101,117,246,73
101,116,244,74
101,116,243,73
103,116,242,73
102,115,240,71
101,114,239,71
101,114,238,71
101,113,236,71
99,113,236,71
99,112,254,71
99,112,252,70
98,111,251,70
98,110,249,70
98,113,248,70
97,112,247,69
96,112,246,69
96,111,244,68
96,111,243,67
96,110,241,68
95,110,240,69
94,109,239,69
94,108,249,68
93,108,247,67
93,107,246,67
92,107,244,67
94,106,243,67
93,106,242,66
93,105,240,66
92,105,240,66
92,103,238,65
91,103,237,66
91,103,236,66
90,103,243,66
90,103,241,65
89,102,240,65
89,101,239,64
96,101,238,64
95,100,236,63
94,99,235,63
93,99,234,63
93,99,233,69
93,98,231,70
92,98,231,73
92,98,259,73
92,97,261,71
91,97,259,71
90,96,258,71
90,110,256,71
97,121,255,70
96,121,253,70
96,120,252,70
95,120,251,70
95,119,249,69
94,118,248,70
94,117,247,70
93,117,253,70
93,116,251,70
92,115,250,70
92,115,249,69
93,115,247,68
92,114,246,68
92,113,245,68
91,112,243,67
90,112,242,71
90,112,240,71
90,111,239,71
89,110,249,71
89,110,248,70
88,109,246,70
88,113,245,70
92,122,243,70
91,121,242,69
91,121,241,69
91,120,240,68
90,120,238,68
89,119,237,69
89,118,236,70
89,118,250,70
88,117,248,69
88,116,247,69
88,117,246,69
88,117,244,68
88,116,243,67
87,116,241,67
86,115,240,67
86,115,239,67
86,114,238,66
85,113,237,67
84,113,246,66
84,112,245,66
83,112,243,65
83,111,242,65
91,126,241,65
108,125,239,65
107,124,238,64
106,123,237,63
105,123,235,63
105,121,234,63
103,121,233,63
103,121,241,63
103,120,240,62
103,120,239,62
102,119,238,62
102,121,236,62
102,121,235,61
101,120,233,61
100,120,231,61
99,119,231,61
99,118,230,61
99,118,229,61
98,117,252,61
98,117,249,60
97,115,248,60
97,115,247,60
98,115,246,60
97,114,244,59
96,113,243,59
96,113,241,59
96,113,240,58
95,112,239,59
94,112,238,68
94,111,246,68
94,110,244,68
93,110,243,67
92,110,241,67
93,109,241,67
103,109,239,66
103,108,237,66
103,108,236,66
103,107,235,65
102,107,234,65
101,106,231,65
101,105,244,65
100,105,243,64
99,103,241,63
99,103,240,63
99,103,239,63
98,103,238,63
97,103,236,62
97,102,235,62
97,101,233,62
96,101,231,63
96,101,231,63
95,100,259,63
95,99,258,62
94,99,255,62
94,99,255,62
94,100,254,62
97,110,252,61
97,109,251,61
97,108,249,61
96,107,248,61
96,107,247,66
95,106,246,78
94,106,246,78
94,105,246,77
93,105,245,76
93,103,243,76
92,106,242,76
93,115,240,75
93,114,240,75
92,114,238,74
92,113,237,74
92,112,236,74
91,112,235,75
91,111,233,75
90,111,249,75
89,110,248,74
89,109,246,73
90,124,245,73
102,127,244,73
101,127,242,71
100,126,241,73
99,125,240,71
99,125,238,71
99,124,237,71
98,123,236,71
98,123,246,70
97,122,244,70
96,121,243,70
96,121,242,70
97,122,241,69
96,121,239,68
96,121,238,68
96,120,237,68
95,120,236,67
95,119,234,67
94,118,233,67
94,117,248,67
93,117,246,67
92,116,245,66
92,116,243,66
92,118,242,65
93,117,241,65
92,116,240,65
92,115,238,64
92,115,237,64
91,114,236,63
91,114,235,63
91,113,253,63
89,113,252,63
89,112,249,63
89,112,248,63
89,118,247,62
90,116,246,62
90,115,244,61
89,115,243,61
89,114,241,61
88,114,240,61
88,114,239,61
88,113,243,61
88,112,249,61
87,112,248,60
86,111,247,60
86,111,245,60
86,110,243,60
86,109,242,59
85,109,241,59
85,108,240,59
84,108,239,60
84,108,238,61
83,107,237,61
83,107,245,61
83,105,243,61
82,105,241,60
82,105,240,60
81,103,239,59
81,103,238,59
81,103,237,59
80,103,235,58
79,102,234,59
79,102,233,60
79,101,231,60
79,101,251,59
78,100,249,59
78,99,248,58
78,107,247,58
81,107,245,58
79,106,243,57
79,106,242,57
79,105,241,57
78,105,240,57
78,103,239,57
78,103,237,59
77,103,246,58
77,103,244,58
77,102,243,57
76,102,242,57
79,103,240,57
86,103,240,57
86,102,238,57
85,102,237,56
85,101,236,56
84,100,234,56
83,100,233,56
83,100,249,56
83,99,248,55
83,99,247,54
82,98,245,55
82,102,243,55
85,110,242,54
84,109,241,54
84,109,240,54
83,108,238,53
83,108,237,57
83,107,236,78
82,107,248,79
81,106,248,79
81,105,247,79
81,105,245,79
80,106,244,78
86,108,242,77
85,107,241,77
85,106,240,77
84,105,239,76
83,105,237,76
83,105,236,76
83,103,235,76
82,103,247,75
82,103,245,75
81,103,243,75
81,111,243,74
83,110,241,74
82,110,240,73
82,109,238,73
81,108,237,72
81,108,236,71
81,108,235,71
80,107,233,71
79,106,252,71
79,105,250,71
79,105,249,71
79,105,248,70
79,113,247,70
82,112,245,70
82,112,243,69
81,111,242,69
81,110,241,68
80,110,240,68
79,109,238,68
79,109,246,68
79,108,245,67
79,108,243,67
78,107,242,67
79,111,241,66
89,111,239,66
89,110,238,66
88,110,237,65
88,109,236,65
87,108,235,66
86,108,233,65
87,107,242,65
86,107,243,65
85,106,241,65
85,105,241,64
88,105,240,63
98,105,238,63
98,103,236,63
97,103,235,63
97,103,234,63
96,103,233,62
96,102,231,62
96,102,240,62
95,101,242,62
94,101,240,62
94,100,239,62
93,123,238,61
93,121,237,61
93,120,235,60
92,120,234,60
92,119,233,60
91,119,231,60
91,118,231,65
90,117,230,64
89,117,246,63
89,116,245,63
89,115,243,63
88,122,242,63
105,122,241,62
106,121,239,62
105,120,238,61
105,119,236,61
103,119,235,63
103,118,234,78
103,117,236,83
102,117,242,82
102,115,240,82
101,115,239,81
101,115,238,81
100,115,236,80
99,115,235,79
99,113,233,79
99,113,233,79
98,113,231,85
97,112,230,86
97,112,233,87
97,111,246,86
96,110,244,85
96,110,243,85
95,112,242,84
95,112,240,84
94,111,239,83
94,110,238,83
93,110,236,82
93,109,235,82
92,109,234,82
92,108,233,81
91,108,248,81
91,107,246,80
90,106,244,80
90,106,243,79
90,105,242,79
89,103,240,79
89,103,239,78
89,103,238,78
88,103,236,78
88,103,236,77
88,102,234,77
87,101,241,76
87,101,240,76
86,100,240,76
86,100,238,75
85,100,237,75
85,99,235,74
84,99,234,74
83,98,233,73
83,98,231,73
83,97,231,73
83,97,230,73
82,97,235,73
82,96,241,73
81,96,239,71
81,95,238,71
81,134,237,71
90,142,236,71
89,141,234,71
89,140,233,71
88,139,231,70
88,139,231,70
88,137,229,71
87,137,228,71
87,135,249,71
86,135,248,71
85,135,246,70
85,134,245,70
88,133,243,69
90,133,242,69
89,132,241,69
89,131,240,68
89,131,238,68
88,130,237,67
88,129,236,67
88,129,248,67
87,127,246,67
86,127,245,67
86,126,243,67
86,126,242,66
85,125,240,66
85,125,239,66
84,124,238,65
84,124,237,65
83,123,235,65
83,122,234,66
83,122,252,66
82,121,255,66
82,120,254,65
82,120,253,65
87,120,252,65
89,120,250,64
89,120,249,63
89,118,248,63
88,118,247,63
88,117,244,63
88,117,243,71
87,115,248,71
87,115,248,71
86,115,246,70
85,115,245,70
85,114,243,70
88,113,242,69
88,113,241,69
88,112,240,68
87,112,238,67
86,111,237,67
86,111,236,71
85,110,235,77
85,110,249,77
84,109,248,76
84,109,247,76
83,114,245,76
85,116,244,75
85,115,242,74
84,115,241,74
83,114,240,73
83,114,239,73
83,113,238,79
83,112,236,78
82,112,249,78
81,111,247,77
81,111,246,77
81,110,244,77
81,111,243,76
81,110,241,76
81,109,240,75
81,109,239,75
80,108,238,75
79,108,236,74
79,108,236,74
79,107,244,74
79,106,243,73
78,105,242,73
78,105,241,73
78,108,240,72
85,108,238,71
84,107,236,71
84,106,235,71
84,105,235,71
83,105,233,71
82,103,231,70
82,103,243,70
82,103,245,70
81,103,244,69
81,103,243,69
81,102,241,68
81,102,240,68
81,101,238,68
80,101,238,67
79,100,236,67
79,99,236,67
79,99,234,67
79,99,235,67
79,98,252,67
78,97,251,66
78,97,249,66
77,97,248,66
101,140,247,65
105,139,246,65
103,138,244,65
103,137,243,65
103,135,241,64
103,135,240,74
102,135,239,80
101,134,246,79
100,133,243,79
100,132,243,79
99,132,241,78
99,131,240,78
99,130,239,77
98,129,237,77
98,129,236,77
97,128,235,76
97,127,234,76
96,127,231,76
96,126,254,75
95,126,253,75
94,125,252,75
94,155,250,74
108,154,249,74
107,153,248,73
107,152,246,73
106,152,245,73
105,151,243,71
105,150,241,71
103,149,244,71
103,148,251,71
103,147,249,71
103,147,248,71
102,146,246,70
106,145,244,69
105,144,243,69
105,143,242,69
103,143,240,68
103,142,239,68
103,141,238,67
103,140,240,67
102,140,241,67
101,139,240,67
101,138,238,66
101,137,237,66
100,137,236,65
99,135,234,65
99,135,233,65
98,135,231,65
98,134,231,65
97,133,229,65
97,133,255,65
96,132,258,64
96,131,257,63
96,131,255,63
95,131,254,63
98,130,253,63
97,129,252,63
97,129,249,62
96,127,249,62
96,127,248,62
96,127,246,63
94,126,248,62
94,126,249,62
94,125,248,62
94,124,246,61
93,124,245,61
96,124,243,61
96,123,243,60
96,122,241,60
95,121,240,60
94,121,238,60
94,121,237,60
94,120,236,60
93,120,249,59
92,119,248,59
92,118,246,59
92,135,245,59
92,135,243,58
91,135,242,58
90,134,241,57
90,133,240,57
89,132,238,57
89,131,237,58
89,131,236,58
88,130,252,58
88,130,250,57
88,129,249,57
87,128,248,57
87,127,246,57
87,127,245,57
86,126,243,56
85,126,242,56
85,125,241,56
85,124,239,56
84,124,238,60
84,123,243,60
83,123,242,60
83,122,240,59
83,121,240,59
108,124,238,59
114,123,236,58
113,123,235,58
113,122,234,57
112,121,233,57
111,121,231,57
111,120,231,57
110,120,243,57
110,119,241,57
109,118,240,56
108,118,238,56
109,118,237,56
108,117,236,56
108,116,234,55
107,116,233,55
107,115,231,56
106,115,231,70
105,114,230,69
105,113,249,69
103,113,248,69
103,112,246,68
103,112,244,68
103,111,243,67
102,111,242,67
102,110,240,66
101,109,239,66
101,109,238,66
100,108,236,67
99,108,249,67
99,107,251,67
98,107,249,66
98,106,248,66
98,106,246,65
97,105,245,65
97,105,243,65
96,103,242,64
96,103,241,63
95,103,240,63
95,103,238,64
94,102,246,64
94,102,255,63
93,101,255,63
93,101,254,63
93,139,252,63
97,138,251,62
96,137,249,62
96,135,248,62
96,135,247,62
95,135,246,61
94,134,244,62
94,133,243,62
94,133,251,62
93,131,249,62
93,131,249,61
92,131,247,61
94,130,246,60
93,129,244,60
92,129,243,60
92,127,242,60
91,127,240,59
91,126,239,62
90,126,238,67
90,125,249,66
89,125,248,66
89,124,246,65
89,123,245,65
88,123,243,65
88,122,242,64
88,121,241,64
88,120,239,63
87,120,238,71
87,120,237,76
86,119,236,80
86,119,261,79
85,118,259,79
85,117,257,79
84,117,255,78
89,119,255,78
93,118,253,78
93,117,252,77
93,116,250,77
92,115,249,76
92,115,248,76
91,115,246,76
90,114,255,76
90,114,255,76
89,113,255,75
89,112,254,75
89,112,252,74
96,112,251,73
96,112,249,73
96,111,248,73
95,111,247,71
94,110,245,71
94,109,244,73
93,109,250,72
93,108,251,71
93,108,249,71
92,107,248,71
92,107,247,71
102,108,246,71
101,107,243,70
101,106,243,70
100,107,241,69
99,105,240,71
99,105,239,71
99,104,248,71
98,103,258,70
97,103,257,70
97,103,255,69
97,121,254,69
121,145,253,69
120,144,251,68
119,143,249,67
119,142,249,68
118,141,248,67
117,141,246,75
116,140,268,75
115,139,267,74
115,138,265,74
114,138,263,73
114,137,262,73
113,135,260,73
112,135,259,71
112,135,257,71
111,134,255,71
111,133,255,71
110,132,253,71
110,132,259,71
109,131,258,71
108,130,255,71
108,211,255,71
116,238,253,71
115,236,252,70
115,234,251,70
114,231,249,69
114,231,248,69
113,230,247,71
112,228,250,73
112,227,267,71
111,226,265,71
110,224,263,71
110,223,262,71
111,222,261,71
110,220,259,71
109,220,257,70
109,218,255,70
108,217,255,69
108,216,253,71
107,215,284,70
107,213,284,70
105,212,283,69
105,211,281,69
114,245,280,69
159,259,278,68
158,255,276,67
157,254,275,67
156,254,273,67
155,252,271,67
154,250,270,67
153,249,292,66
153,248,290,66
152,246,287,66
151,245,286,65
151,252,285,65
150,250,283,64
149,248,281,64
148,247,280,63
147,246,278,63
147,244,277,65
146,243,277,68
145,242,303,67
144,240,301,67
143,239,299,67
143,239,297,67
143,241,295,66
143,239,293,66
142,238,291,65
141,237,290,65
141,235,288,65
140,234,287,66
139,233,286,65
138,231,290,65
137,231,287,64
137,229,286,64
136,227,284,63
135,227,283,63
135,225,281,63
134,224,280,63
134,223,279,62
133,222,277,63
132,221,275,63
131,220,276,63
131,219,275,63
130,217,273,62
141,238,271,62
167,323,270,62
167,323,269,61
165,322,268,61
164,319,266,61
163,317,264,67
163,316,263,69
162,313,262,75
161,312,280,74
159,310,278,74
159,307,277,73
158,305,275,73
157,304,273,73
156,303,271,71
156,300,270,71
155,299,269,71
154,297,267,71
153,295,265,89
153,294,310,91
152,292,310,90
151,291,307,89
150,289,305,89
149,287,304,89
199,286,302,88
201,284,300,88
199,283,299,88
198,281,295,87
197,280,295,86
196,279,294,86
195,277,324,85
194,275,322,85
193,274,319,85
192,271,318,83
190,271,316,83
190,269,314,83
189,268,312,83
188,267,311,82
187,265,308,82
185,263,307,81
185,263,305,83
184,261,305,82
183,259,303,82
182,258,301,81
181,256,300,81
190,255,298,80
191,254,295,80
190,253,295,79
189,252,293,79
188,250,291,82
187,249,290,82
186,248,294,82
184,247,295,81
184,245,295,81
183,244,293,81
247,352,291,79
244,350,289,79
242,347,287,78
241,345,286,79
239,343,285,78
238,341,283,79
236,338,281,89
235,335,327,88
233,334,327,88
231,332,324,88
231,330,322,87
230,327,321,86
229,327,319,86
227,324,317,86
226,323,315,85
225,320,313,85
224,319,312,85
223,318,309,91
222,315,315,89
220,313,312,89
219,312,311,89
219,339,309,88
217,345,307,88
216,344,305,88
215,342,304,87
214,339,302,87
212,337,300,86
211,334,299,86
210,333,305,86
209,331,315,85
207,327,313,85
207,327,312,84
206,325,309,84
205,323,307,83
204,321,305,83
203,319,304,82
202,318,303,82
201,316,300,82
199,314,299,82
199,312,315,83
198,310,323,82
197,309,319,81
196,307,318,81
195,305,316,81
254,304,315,80
265,302,313,79
263,300,311,79
261,299,309,79
259,295,307,79
258,295,305,92
257,294,321,91
255,291,319,91
253,291,318,89
252,289,316,89
251,287,313,89
249,286,312,88
248,284,310,88
247,283,308,87
245,281,306,87
243,280,304,87
242,278,304,91
241,277,332,90
240,275,329,89
239,274,327,89
237,301,326,88
236,299,323,88
235,297,321,88
233,295,319,87
231,294,318,86
231,291,316,86
230,290,314,87
229,288,335,88
227,287,335,88
226,285,333,88
225,284,332,87
224,282,329,86
223,280,327,85
222,279,325,85
220,278,323,85
220,275,321,84
218,274,319,83
217,273,318,90
216,271,332,89
215,270,329,88
214,268,327,88
213,267,326,88
211,265,323,88
211,263,322,87
210,263,319,86
209,261,318,86
207,260,316,85
206,259,315,85
206,258,315,87
204,255,332,86
204,255,329,85
203,254,327,85
201,252,325,84
199,251,323,84
199,249,321,83
199,248,319,83
198,248,317,83
197,246,316,82
195,245,313,84
195,244,323,87
194,243,327,87
193,241,327,86
192,240,324,85
191,239,323,85
212,248,319,85
210,247,318,84
209,245,317,84
207,244,315,83
207,243,313,83
206,241,312,83
204,240,321,83
204,239,319,82
202,237,317,81
201,236,315,81
199,235,313,80
199,234,312,80
198,233,310,79
197,231,307,79
196,231,306,80
195,229,305,87
194,228,303,103
193,227,331,102
192,226,327,101
191,225,326,100
190,224,324,100
189,223,322,99
188,222,319,98
187,221,318,98
186,220,316,97
185,219,315,97
184,217,313,98
184,217,312,97
183,216,311,96
182,214,308,96
181,234,307,96
180,245,306,95
181,243,304,95
179,242,302,94
179,240,300,93
178,239,299,93
177,238,297,92
176,236,295,98
175,235,322,98
175,233,319,97
174,231,318,97
173,231,316,96
172,230,315,96
172,228,312,95
171,227,311,95
169,226,308,94
169,224,307,94
167,224,305,94
167,223,304,94
167,221,312,94
166,220,309,93
165,219,307,93
164,218,306,92
164,218,304,92
163,217,302,91
162,216,301,91
161,215,299,91
161,214,297,90
159,213,295,89
159,211,299,89
159,211,301,89
158,210,299,89
157,208,297,88
156,207,295,88
155,206,294,87
155,206,293,87
154,204,291,86
153,204,290,86
153,203,287,85
152,202,286,86
152,201,307,85
151,199,306,84
150,199,304,84
149,198,302,83
148,197,300,83
147,196,297,82
147,195,295,82
146,194,295,82
146,193,293,81
145,192,291,81
145,192,290,91
143,191,307,91
143,190,305,90
142,189,304,89
142,189,302,89
185,203,300,88
184,217,298,88
183,216,295,88
183,214,295,87
181,213,293,86
179,212,291,86
179,211,294,86
178,209,295,85
177,207,294,85
176,207,292,84
176,206,290,83
174,205,289,83
173,204,287,83
172,203,286,82
171,201,284,82
171,199,282,81
169,199,281,81
169,199,295,80
167,197,294,80
167,196,292,79
166,195,291,79
165,194,289,79
164,193,287,78
163,192,286,78
163,191,284,78
162,190,283,78
161,189,281,77
160,188,280,77
159,187,287,77
159,186,286,77
158,185,284,76
157,184,282,76
166,184,281,76
165,183,279,75
164,182,278,75
163,181,275,74
162,180,275,74
161,179,273,78
161,179,276,80
159,178,291,80
159,177,290,79
158,176,287,79
157,176,287,79
157,175,285,78
156,173,283,78
155,173,281,77
153,173,280,77
153,172,279,77
152,171,277,76
152,170,286,76
151,169,284,75
150,167,283,75
150,167,281,75
149,184,280,75
148,184,278,74
147,182,275,73
146,181,275,73
146,179,273,71
145,179,271,72
144,178,270,77
143,177,284,76
143,176,281,76
142,175,280,76
142,207,279,75
141,216,277,75
140,215,275,74
140,214,274,73
139,212,272,73
138,211,271,73
137,210,270,76
137,208,268,82
135,207,277,81
135,206,275,81
135,205,274,80
137,231,273,79
137,230,271,79
135,229,270,79
135,227,268,78
134,226,267,78
134,225,265,78
133,224,263,78
132,222,278,77
132,221,277,77
131,220,275,77
131,219,274,76
130,217,272,76
143,224,271,75
143,222,269,75
142,222,267,75
141,220,265,74
140,219,265,73
140,217,263,80
139,216,277,80
138,215,275,79
137,214,273,79
135,212,271,78
135,211,270,78
135,210,268,78
134,209,267,77
134,207,265,76
133,207,263,77
132,206,263,76
131,205,268,76
131,204,275,76
130,203,274,76
129,201,271,76
130,210,270,75
129,208,269,75
127,207,267,74
127,206,266,73
127,205,263,73
126,203,263,73
126,203,262,73
125,201,279,73
124,199,279,71
124,199,278,71
123,198,276,71
123,199,274,71
122,198,272,71
122,196,271,70
121,195,270,70
121,194,268,70
120,193,267,69
120,192,265,70
120,192,287,69
119,190,284,69
118,190,282,68
117,188,281,68
117,187,280,67
117,187,278,67
116,185,275,67
115,184,274,67
115,184,273,66
115,183,271,67
114,182,272,71
114,181,290,70
113,180,288,69
112,179,287,68
112,178,285,69
115,177,283,68
114,176,282,68
113,175,280,67
113,175,279,67
112,174,277,67
112,173,275,70
111,172,278,74
111,172,280,74
110,171,278,73
110,169,277,73
109,167,275,71
115,167,273,71
115,167,271,71
114,167,271,71
114,166,269,71
113,165,268,71
112,164,266,71
112,163,271,71
112,162,269,71
111,162,267,71
110,161,265,70
120,160,263,70
120,210,263,69
120,208,261,69
119,207,260,69
118,206,259,68
118,205,257,69
117,204,255,71
116,202,282,71
115,201,280,71
115,199,279,71
115,199,277,70
114,201,275,70
113,199,274,70
113,199,273,69
112,198,271,69
112,197,269,69
111,195,268,69
110,194,268,70
110,193,275,69
109,192,274,69
109,192,272,68
108,190,271,68
199,210,270,67
198,209,268,67
196,207,267,67
195,206,265,67
194,205,263,66
192,204,262,75
192,203,267,75
190,201,265,74
189,199,263,73
188,199,263,73
215,251,262,73
218,249,259,71
216,248,258,71
216,246,257,71
214,245,255,71
213,243,254,71
211,241,253,70
210,240,270,70
209,239,268,70
207,237,267,69
207,236,265,69
206,235,263,68
205,233,263,68
204,231,261,68
203,231,259,68
201,230,258,67
199,229,257,67
199,227,268,69
198,226,274,68
197,225,272,67
196,224,271,67
195,223,269,67
195,221,267,67
193,220,266,66
192,219,263,66
192,217,263,66
190,217,262,65
189,216,260,65
188,215,271,64
187,213,271,64
186,212,269,63
185,211,268,63
215,210,267,63
283,325,265,63
280,361,263,62
278,358,262,62
275,355,260,62
274,353,259,63
273,351,257,71
271,348,275,71
270,346,273,71
268,344,271,71
267,342,270,71
265,340,269,71
263,338,267,70
262,335,265,70
261,335,263,69
259,332,262,69
258,330,261,69
256,329,262,74
255,327,267,73
254,324,265,73
252,323,263,72
251,321,262,71
249,319,261,71
248,317,259,71
247,316,258,71
245,314,256,71
244,312,255,71
243,310,253,76
242,308,266,76
241,307,271,75
239,305,269,75
238,304,268,75
237,302,267,74
235,300,265,73
234,299,263,73
233,297,262,73
231,295,261,71
231,293,259,71
229,292,258,81
228,291,293,81
227,289,291,80
226,287,289,79
225,286,287,79
224,285,286,79
223,283,284,78
222,281,283,78
221,280,281,78
219,279,280,77
218,277,278,77
217,275,277,81
216,274,281,80
215,273,280,80
214,271,278,79
213,270,276,79
211,269,275,78
211,267,273,78
209,266,271,77
208,263,270,77
207,263,269,77
207,262,267,78
206,261,295,80
205,259,302,79
204,258,300,79
203,257,299,79
201,255,295,78
202,254,295,78
252,252,293,77
250,252,291,77
249,250,289,76
248,249,288,76
246,248,287,77
245,247,300,77
243,245,297,77
242,243,295,76
240,243,294,76
240,253,292,76
238,289,290,75
236,287,288,75
235,285,287,74
234,283,285,73
231,281,284,74
231,280,283,90
230,278,306,89
229,277,304,88
228,275,302,88
227,274,300,88
225,271,298,87
224,271,295,87
223,269,295,86
222,267,293,86
221,265,291,86
220,263,290,85
219,263,322,85
217,262,341,84
216,260,339,83
216,258,336,83
214,257,334,83
213,255,332,82
211,254,330,82
211,253,327,82
209,252,326,81
208,251,324,81
207,249,323,83
206,248,337,82
205,247,335,82
205,245,332,81
204,243,331,81
202,254,329,81
201,253,327,80
199,251,324,79
199,249,322,79
199,248,321,79
198,247,319,78
196,245,317,79
195,243,323,79
195,242,322,78
194,241,319,78
193,240,318,78
192,239,315,77
191,237,314,77
190,236,312,76
189,236,310,76
188,234,308,81
187,233,307,91
187,231,307,99
185,231,321,99
185,230,319,98
184,228,317,97
183,227,315,97
182,226,313,97
181,225,311,96
180,224,310,96
179,223,307,95
179,222,306,95
178,221,304,94
177,220,317,94
176,219,315,93
176,218,313,93
174,217,312,92
174,216,309,92
173,214,307,91
172,214,305,90
172,213,304,90
170,211,302,89
170,211,301,89
169,210,299,89
167,209,318,88
167,207,316,88
166,206,314,87
166,206,312,87
165,205,311,87
164,204,309,86
163,203,307,85
163,201,305,85
162,201,304,85
161,199,302,84
160,199,300,84
159,198,310,83
159,197,307,83
158,196,306,83
158,195,304,82
157,194,302,81
156,193,300,81
155,192,299,81
155,192,297,80
154,191,295,81
153,190,294,80
153,189,302,80
152,188,300,79
151,187,299,79
151,187,297,79
150,185,295,78
149,184,294,78
148,184,292,77
147,183,290,77
147,182,289,77
147,181,287,76
146,180,286,76
145,179,304,76
144,179,302,75
143,178,300,75
143,177,299,75
143,176,297,74
142,176,295,73
142,174,293,73
141,174,291,73
141,173,290,71
140,172,287,71
139,172,295,75
139,171,301,75
138,170,300,74
137,169,297,74
137,167,295,73
136,169,294,73
135,169,292,71
135,167,291,71
134,167,289,71
134,166,287,71
133,166,286,71
133,165,287,71
132,163,289,71
131,163,287,70
131,162,286,70
130,162,284,69
129,161,282,69
129,160,281,69
128,159,280,68
127,159,278,68
127,158,276,67
127,158,275,67
126,157,291,67
126,156,288,67
125,156,287,66
125,155,285,66
124,154,284,66
124,153,281,65
123,153,280,66
122,152,278,65
122,151,277,65
