29,31,50,60
29,31,49,60
31,31,49,59
39,31,49,59
39,31,48,59
39,31,49,58
39,31,48,59
39,31,48,86
39,31,48,85
39,31,48,84
39,30,48,83
39,30,48,83
39,30,54,83
38,30,53,83
38,30,53,82
38,29,52,82
38,30,52,81
37,29,52,81
37,29,51,81
37,29,51,80
37,29,51,80
36,29,51,79
37,29,51,79
36,28,51,79
36,28,50,79
36,28,50,78
36,28,50,78
36,28,49,78
35,28,50,77
35,28,49,77
35,28,49,77
35,28,48,76
35,27,49,76
35,27,48,75
35,27,48,75
34,27,48,75
35,27,48,75
34,27,48,75
34,27,47,74
34,27,47,73
34,27,47,73
34,26,47,73
34,26,46,73
34,26,46,71
33,25,46,71
33,25,46,71
33,25,46,71
32,25,46,71
33,25,45,71
32,25,45,71
32,26,45,70
32,26,45,70
31,26,45,70
31,26,44,69
33,25,44,69
44,25,44,69
44,25,44,68
43,25,44,68
43,25,44,67
43,25,44,68
43,25,43,67
42,25,43,67
42,25,43,67
42,25,43,66
41,25,43,66
41,25,43,66
41,24,43,66
41,25,42,65
41,24,42,65
41,24,42,64
41,24,41,65
39,24,41,64
39,24,41,63
39,24,41,63
39,24,41,63
39,24,41,63
39,24,39,62
39,23,41,62
39,23,39,62
39,23,39,62
41,23,39,61
42,23,39,61
41,23,39,61
41,22,39,61
41,22,39,61
41,22,39,60
41,22,39,60
41,22,39,60
39,22,39,60
39,22,39,60
39,22,38,59
39,22,38,59
39,22,38,59
39,21,38,59
39,22,38,58
39,21,38,58
39,21,38,58
39,21,37,58
39,21,37,57
39,21,37,57
39,21,37,59
39,20,37,59
39,21,36,59
38,20,36,58
38,20,36,58
38,20,36,58
38,20,36,57
39,20,35,57
38,19,35,57
38,20,35,57
38,19,35,56
38,19,35,57
38,19,35,57
38,19,35,56
37,19,35,56
37,19,35,56
37,19,35,56
36,19,34,55
36,19,34,55
36,19,34,55
36,19,34,54
36,19,34,54
36,19,33,54
35,18,34,54
35,19,33,54
35,18,33,53
35,18,33,52
35,18,33,53
35,18,33,53
35,18,33,52
35,18,33,52
34,18,32,51
34,17,32,51
34,18,32,51
34,17,32,51
33,17,32,51
34,17,31,51
34,17,31,51
34,17,31,50
33,17,31,50
33,18,31,50
33,28,31,50
33,27,31,50
32,27,31,49
32,27,31,49
34,27,31,49
34,27,31,49
33,27,31,48
34,26,31,48
33,26,30,48
33,26,30,48
33,25,30,48
33,26,30,48
33,25,30,47
33,25,53,47
32,25,56,47
31,25,56,47
32,25,56,46
31,25,56,46
31,24,55,46
31,24,55,46
31,24,55,46
31,24,54,45
31,24,54,45
31,24,54,45
31,24,53,45
31,24,53,45
31,24,53,45
31,24,54,45
30,24,54,44
30,24,53,44
30,23,53,44
31,23,53,44
31,23,53,44
31,23,52,43
31,22,52,43
31,22,51,43
30,23,51,43
30,22,51,43
30,22,51,42
30,23,51,42
30,22,51,42
30,22,51,42
30,22,50,42
30,22,50,41
30,22,50,41
30,22,49,41
30,21,49,41
29,21,49,41
29,21,49,41
29,21,49,39
29,21,49,39
29,21,48,39
29,21,48,39
28,21,48,39
29,21,47,39
28,21,47,39
29,20,47,39
29,20,47,39
29,20,46,39
29,20,47,39
29,19,46,39
28,19,46,38
28,19,46,38
28,19,46,38
28,19,45,38
28,19,45,38
28,19,45,38
28,19,45,37
28,19,45,37
27,19,44,37
31,19,45,37
31,19,44,37
31,19,44,37
31,19,44,36
30,19,44,36
30,19,44,36
31,19,43,36
30,19,45,36
30,19,63,36
30,19,79,36
30,19,79,36
29,19,78,35
29,19,78,35
29,19,78,35
29,19,77,35
29,19,77,35
29,18,77,35
29,18,76,35
29,18,76,34
28,18,76,34
28,19,75,34
28,22,75,34
28,23,74,34
28,25,74,34
28,25,74,34
28,25,73,34
42,25,73,33
42,24,73,33
41,24,71,33
41,24,72,33
41,24,71,33
41,24,71,32
41,24,71,33
41,24,71,33
39,24,71,32
39,27,70,32
39,27,70,32
39,27,70,31
39,27,70,31
39,27,69,31
39,26,69,31
39,26,69,31
39,26,68,31
39,25,68,31
38,26,68,31
38,26,67,31
38,25,67,31
38,25,67,31
38,26,67,31
38,25,67,31
37,25,66,30
37,25,66,30
37,25,65,30
37,25,65,30
37,25,65,30
37,25,65,30
36,25,64,30
36,25,64,29
36,26,64,29
36,30,63,29
35,37,63,29
35,42,63,29
35,41,63,29
35,41,63,29
35,41,62,28
39,39,62,28
39,39,62,28
39,39,62,28
39,39,61,28
39,39,61,28
38,39,61,28
39,39,61,28
38,39,60,28
38,44,61,28
38,97,60,27
38,112,59,27
38,118,60,28
44,117,59,27
45,116,59,27
45,115,58,27
45,115,58,27
44,114,58,26
44,114,57,27
44,113,57,29
44,112,57,29
44,147,57,29
44,145,57,28
44,143,56,28
43,143,56,28
43,142,56,28
56,142,56,28
56,141,56,28
55,140,56,28
55,140,55,27
55,139,55,27
54,138,55,27
54,137,54,27
54,135,55,34
53,135,54,33
53,135,53,33
53,135,53,33
53,134,53,33
52,134,53,32
52,133,53,32
52,132,52,33
51,131,52,32
51,131,52,32
51,131,51,31
51,131,51,32
51,131,51,31
50,130,51,31
50,130,51,31
50,129,51,31
50,128,50,31
50,127,50,31
49,127,50,31
49,126,50,31
49,126,49,31
49,125,49,30
49,125,49,30
48,124,49,30
48,123,48,30
48,123,48,30
48,123,48,29
48,122,48,29
47,121,48,29
47,121,48,29
87,121,47,29
87,120,47,29
86,120,47,29
85,119,47,29
84,119,46,29
84,118,46,28
83,117,46,28
83,117,46,29
82,116,46,28
82,115,45,28
82,115,45,28
82,115,45,28
81,114,45,28
81,114,45,28
81,113,44,28
79,113,45,28
79,112,44,27
79,112,44,27
79,111,44,27
79,110,44,27
78,110,43,28
78,110,43,28
78,109,43,27
77,109,43,35
77,109,43,35
77,108,42,35
76,107,42,34
76,107,42,34
76,107,42,34
75,109,42,34
75,112,42,34
75,112,41,33
74,111,41,34
74,110,41,33
73,110,41,33
73,109,39,33
73,109,41,33
120,109,39,33
131,108,39,32
130,107,39,32
129,107,39,31
128,106,39,31
127,105,39,31
126,105,39,31
126,151,39,31
125,149,39,31
124,149,39,31
124,147,39,31
124,147,39,31
123,146,39,31
122,145,39,30
121,144,39,30
121,143,39,30
120,143,38,30
120,143,38,30
119,142,38,30
119,141,68,30
118,140,67,29
117,140,67,29
117,139,67,29
117,139,66,29
115,137,66,29
115,137,65,28
115,135,65,29
114,135,65,28
114,135,65,28
113,135,63,28
112,134,99,33
112,133,121,36
112,133,120,35
111,131,120,35
110,131,119,35
110,130,118,35
110,130,117,35
109,129,117,35
109,129,115,34
108,127,115,34
108,127,115,34
107,126,114,34
106,126,114,33
105,125,113,33
105,125,112,33
105,124,112,33
105,124,111,33
103,123,110,32
111,122,110,32
110,121,110,31
110,121,109,31
110,120,109,31
109,120,108,31
108,120,108,31
108,130,108,31
107,129,107,31
107,129,106,31
106,127,105,31
105,127,105,31
120,127,103,30
120,126,103,30
119,125,103,30
118,124,103,30
117,124,103,30
117,123,102,30
116,123,102,74
115,143,101,73
115,167,101,73
115,167,100,71
114,165,99,71
113,165,99,71
113,163,99,71
112,163,98,70
112,162,98,70
111,161,97,70
111,159,97,69
110,159,97,69
109,158,96,68
109,158,96,68
109,157,96,67
108,156,95,67
108,155,95,67
107,155,94,67
106,153,94,67
106,153,93,66
105,153,93,66
105,152,93,65
105,151,92,65
103,150,92,65
103,149,91,64
103,149,91,64
103,147,91,63
102,147,89,63
102,147,89,63
101,146,89,63
101,145,89,63
100,145,88,63
99,143,88,62
99,143,88,62
99,143,88,62
99,142,87,61
98,141,87,61
98,141,86,61
98,140,86,60
97,140,86,60
96,139,85,60
96,139,84,60
96,138,84,59
95,137,83,59
94,136,83,58
94,135,83,58
94,135,83,58
93,135,83,58
93,135,83,57
93,134,82,57
92,133,82,57
92,132,82,57
92,132,81,56
91,131,81,56
91,131,81,56
91,130,81,56
90,129,80,56
90,129,79,55
89,128,79,55
89,127,79,54
88,127,79,54
88,127,79,54
88,126,78,54
88,126,78,54
87,125,77,53
87,124,77,53
87,124,77,53
86,123,77,53
86,123,76,53
85,122,76,52
85,122,76,52
84,121,76,51
84,121,75,51
83,121,75,51
83,120,75,51
83,120,74,51
83,119,73,51
82,119,73,50
82,118,73,50
81,118,73,50
81,117,73,50
81,116,71,49
80,116,71,49
80,115,71,88
79,115,71,88
79,114,71,87
79,114,71,86
79,113,71,86
79,113,70,85
78,113,70,85
78,112,70,84
78,112,69,83
77,112,69,83
77,111,69,83
77,110,69,83
76,110,68,82
76,109,68,82
76,109,67,81
76,108,67,81
75,108,67,81
75,108,67,80
75,107,66,80
74,107,66,79
74,106,66,79
74,105,66,79
73,105,66,79
73,105,65,78
73,103,65,78
71,103,65,77
71,103,64,77
71,103,64,76
71,103,63,76
71,103,63,76
71,102,63,75
71,102,63,75
71,101,62,75
70,100,63,75
70,100,62,74
69,100,62,74
69,99,62,73
69,99,62,73
68,99,62,73
69,99,99,73
68,98,102,73
67,97,100,71
67,97,99,71
67,97,99,71
67,96,99,71
67,96,99,71
66,96,98,71
66,95,98,70
66,95,97,70
66,94,97,70
65,94,97,69
65,93,96,69
65,93,96,69
64,93,95,68
64,93,95,68
64,92,94,67
63,92,94,67
63,92,94,67
65,91,93,67
65,91,93,67
65,91,92,66
65,90,92,66
64,89,91,66
63,89,92,65
63,89,91,65
63,89,91,65
63,88,90,65
63,88,89,64
63,88,89,64
62,88,89,63
62,87,88,63
62,87,88,63
61,86,88,63
61,86,88,63
61,86,87,62
61,85,87,62
61,85,86,62
60,85,86,62
60,84,86,62
60,84,85,61
60,83,85,61
59,83,85,61
59,83,84,61
59,83,84,60
59,82,83,60
58,82,83,60
58,82,83,60
58,81,82,59
57,81,83,59
57,81,82,59
57,80,82,58
57,80,81,58
57,79,81,58
57,79,80,57
56,79,80,57
56,79,79,57
56,79,79,57
56,78,79,57
56,78,79,57
56,78,79,57
56,78,83,56
56,77,97,56
55,77,96,56
55,76,96,56
54,76,96,56
54,76,95,55
54,76,95,55
54,75,94,54
53,75,94,54
53,75,93,54
53,75,93,54
53,74,92,53
52,74,92,54
52,73,92,53
52,73,92,53
51,73,91,53
51,73,91,53
51,73,90,52
51,71,92,52
51,71,91,52
51,71,91,51
51,71,90,51
51,71,90,51
50,71,89,51
50,71,89,51
50,70,89,50
50,70,88,50
49,70,88,50
49,70,88,50
49,70,88,51
49,69,87,51
48,69,86,51
48,69,86,51
48,68,86,50
48,67,85,50
48,67,85,50
48,67,85,50
48,67,84,50
48,67,84,49
48,67,83,49
47,67,83,49
47,66,83,49
47,66,83,49
47,66,82,48
46,65,82,48
46,65,81,48
46,65,81,48
46,65,81,47
46,64,81,47
47,64,80,47
46,63,79,47
47,63,79,47
46,63,79,46
46,63,79,47
46,63,79,46
46,63,78,46
46,63,78,45
45,62,77,46
45,62,78,45
45,62,77,45
45,62,77,45
45,61,76,44
45,61,76,45
44,60,76,44
44,60,76,44
44,60,75,44
44,60,75,44
44,60,75,44
44,60,74,44
44,63,74,43
43,62,74,43
43,62,73,43
43,62,73,43
43,62,73,43
43,61,73,43
43,61,72,42
43,61,71,42
42,60,71,43
42,60,71,43
42,60,71,43
42,60,71,43
42,60,71,42
41,59,70,42
41,59,70,42
41,59,69,42
41,59,70,41
41,58,69,41
41,58,69,41
41,58,69,41
41,58,69,41
39,57,68,41
39,57,68,41
39,57,67,41
39,57,67,39
39,56,67,39
39,56,67,39
39,56,67,39
39,56,66,39
39,56,66,39
39,56,66,39
39,56,65,39
39,56,65,39
39,55,64,39
38,55,64,39
38,54,64,38
38,54,63,39
38,54,63,38
37,54,63,38
37,53,63,38
37,53,63,37
37,53,63,38
37,53,62,37
37,53,63,37
37,52,62,37
37,52,62,37
37,52,62,36
37,51,61,36
37,51,61,36
36,51,61,36
36,51,61,36
36,51,60,35
35,51,60,35
35,51,60,35
35,51,60,35
35,50,60,35
35,50,59,35
35,50,59,35
35,49,59,35
35,49,59,35
35,49,58,34
35,49,58,35
35,49,58,34
35,48,57,34
34,48,57,34
34,48,57,34
34,48,57,34
34,48,57,33
33,48,56,33
33,47,56,33
33,47,56,33
38,47,56,33
39,47,56,33
39,47,56,32
39,46,56,33
39,46,55,32
38,46,55,32
38,46,55,31
38,46,55,31
38,46,55,31
38,48,54,31
37,48,54,31
37,48,54,31
37,47,53,31
37,47,54,31
37,46,53,31
37,47,53,31
36,46,52,30
36,46,53,30
36,46,52,31
35,46,52,30
35,45,52,30
35,45,51,30
35,45,51,30
35,45,51,30
35,45,51,30
35,44,51,30
35,44,51,29
35,44,51,29
34,44,50,29
35,44,50,29
34,44,50,29
34,43,49,29
34,43,49,29
34,43,50,28
34,43,51,29
33,43,51,28
33,43,51,28
33,42,51,28
33,42,50,28
33,42,50,28
33,42,51,28
32,41,51,28
31,41,50,27
32,41,50,28
31,41,50,27
31,41,50,27
31,41,50,27
31,41,49,27
31,39,49,27
31,39,49,27
31,39,49,27
31,39,48,26
31,39,48,26
37,39,48,26
37,39,48,26
37,39,48,26
37,39,82,26
36,39,86,26
36,39,85,25
36,39,85,27
36,39,84,27
36,39,84,27
35,38,83,27
35,38,83,26
35,38,83,26
35,38,82,27
36,38,82,26
35,38,81,25
35,38,81,26
35,37,81,26
35,37,80,25
35,37,80,25
34,37,79,25
34,37,79,25
34,36,79,25
34,36,78,25
34,36,78,25
34,36,78,25
34,36,78,25
39,36,77,25
44,35,77,24
44,35,77,24
43,35,76,24
43,35,76,24
43,35,76,24
43,35,76,24
43,35,75,24
42,35,75,24
42,34,74,24
41,34,74,24
42,34,73,24
44,34,73,24
46,34,73,24
46,34,73,24
46,34,73,24
46,33,71,23
46,33,71,23
45,33,71,23
45,33,71,24
45,33,71,30
45,33,71,30
44,32,71,30
44,32,71,30
44,32,71,29
44,32,70,29
44,32,70,29
44,32,70,29
43,32,70,29
43,31,70,29
43,31,69,29
43,31,68,29
43,31,68,28
42,31,68,29
42,31,68,28
42,31,67,28
41,31,67,28
41,31,67,28
41,30,67,28
41,31,67,28
41,30,66,28
41,30,66,27
41,30,66,27
39,30,66,27
39,30,65,27
39,30,65,27
39,30,65,27
39,30,64,26
39,29,63,26
39,29,63,26
39,29,63,26
39,29,63,26
38,29,63,26
39,29,63,25
38,29,63,25
38,29,62,25
38,28,62,25
38,29,62,26
38,28,62,26
37,28,61,27
37,28,61,26
37,28,61,26
37,28,60,26
37,28,60,26
37,28,60,26
37,28,60,26
37,27,60,25
36,28,59,25
36,27,59,25
36,27,59,25
35,27,59,25
35,27,58,25
36,27,58,25
35,27,58,25
35,27,58,25
35,27,57,25
35,26,57,25
35,26,57,25
35,26,56,25
34,26,56,25
34,26,56,24
34,26,56,25
34,26,56,24
34,25,56,24
34,25,55,24
33,25,55,24
33,25,55,24
33,25,55,24
33,25,54,24
33,25,54,24
33,25,54,24
34,25,54,24
34,25,54,24
33,24,53,23
33,24,53,23
33,24,53,23
33,24,53,23
33,24,52,23
32,24,52,23
32,24,51,23
32,24,51,22
31,24,51,22
31,24,51,22
31,24,51,22
32,24,51,22
32,23,50,22
31,24,50,22
31,23,50,22
31,23,50,22
31,23,50,22
31,23,49,22
31,23,49,21
31,22,49,21
31,22,49,21
30,22,49,21
30,22,49,21
30,22,48,21
39,22,48,21
39,22,48,21
39,22,48,21
39,22,48,20
39,22,47,20
39,22,47,20
39,22,48,28
39,22,47,33
38,21,47,33
38,21,47,33
38,21,47,33
38,21,46,32
38,21,46,31
37,20,46,32
37,21,46,31
37,21,46,31
37,21,45,31
37,20,45,31
36,21,45,31
36,20,45,31
36,20,45,31
36,20,44,31
35,20,44,31
35,19,44,30
35,19,44,31
35,19,44,30
35,19,43,30
35,19,44,30
35,19,44,30
34,19,43,30
35,19,43,29
34,19,43,29
34,19,42,29
34,19,43,29
34,19,43,29
34,19,42,29
34,19,42,29
33,19,42,29
33,19,41,29
33,19,41,28
33,19,41,28
33,19,41,28
33,18,41,28
33,18,41,28
33,18,40,28
31,18,39,28
32,18,39,28
32,18,39,27
31,18,39,27
31,18,39,27
31,18,39,27
31,17,39,27
31,17,39,27
31,17,39,26
31,17,39,27
31,17,39,26
31,17,39,26
31,17,39,26
31,17,39,26
30,17,38,26
30,17,38,26
30,17,38,25
30,17,38,25
30,17,38,25
31,17,37,25
60,16,38,25
59,16,37,25
58,16,37,25
57,16,37,25
57,16,37,25
57,16,37,24
57,16,36,25
56,16,36,24
56,16,37,25
56,16,36,25
56,16,35,24
56,16,36,24
56,16,35,24
55,16,35,24
55,15,35,24
55,15,35,24
54,15,35,24
54,15,35,24
54,15,35,24
53,15,35,24
53,15,34,24
53,15,34,24
53,15,34,23
53,15,34,23
52,15,34,23
51,15,34,23
53,16,34,22
53,17,34,23
53,17,33,23
52,17,33,22
52,16,33,22
51,16,33,22
51,16,33,22
51,43,33,22
51,51,33,68
51,96,33,67
51,107,32,66
50,106,32,65
50,105,31,65
50,105,31,65
50,103,31,64
49,103,31,64
49,103,31,63
49,143,31,63
49,157,31,63
49,156,31,63
48,155,42,63
48,154,63,62
48,153,62,62
48,153,62,61
48,152,61,61
48,152,61,61
47,150,61,61
47,150,60,60
47,149,60,60
46,148,60,60
46,147,59,59
46,147,59,59
46,146,59,59
45,145,58,59
46,145,58,59
45,143,58,58
45,143,57,58
45,143,57,57
45,142,57,57
59,141,57,57
59,141,57,57
59,140,57,56
58,140,56,56
58,139,56,56
57,138,56,56
57,138,56,56
57,137,56,55
57,135,56,55
56,135,55,55
56,135,55,55
56,134,54,55
56,134,54,54
56,134,54,54
55,133,54,53
55,132,53,53
55,131,53,53
54,131,53,53
54,131,53,52
54,130,53,52
53,129,52,52
53,128,52,52
53,128,51,51
53,127,51,51
53,127,51,51
52,126,51,51
52,126,51,51
52,126,51,50
51,124,51,50
51,124,50,50
51,124,50,50
51,123,50,49
50,122,49,49
50,122,49,49
50,121,49,49
49,121,49,49
57,121,49,48
57,120,48,48
57,120,48,48
57,119,48,48
57,118,48,47
56,118,47,47
56,117,47,47
56,117,47,47
56,116,47,46
55,115,46,46
55,115,47,46
55,115,46,46
71,114,46,46
71,114,46,46
71,113,46,46
71,113,45,45
70,113,45,45
70,112,45,45
70,112,45,93
69,111,45,93
69,111,64,92
69,110,75,91
68,110,74,91
68,109,74,91
67,109,73,89
67,108,73,89
67,108,73,89
67,107,71,88
66,107,71,88
66,106,71,88
66,106,71,88
65,106,71,87
65,105,71,87
65,103,71,86
65,103,70,85
64,103,70,85
63,103,70,85
63,103,69,85
63,102,69,83
63,102,68,83
63,102,68,83
63,101,68,83
62,101,67,82
62,100,67,82
61,99,67,82
61,99,67,81
61,99,66,81
61,99,66,81
61,98,66,79
60,98,65,80
60,97,65,79
60,97,65,79
59,97,65,79
59,96,64,79
59,96,64,78
59,96,63,78
59,96,63,78
58,95,63,77
58,94,63,77
57,94,63,77
57,94,63,76
57,93,62,76
57,93,62,76
57,93,62,75
57,92,61,75
56,92,62,75
56,91,61,75
56,91,61,74
56,91,61,74
56,91,60,73
56,90,60,73
55,90,60,73
55,89,70,71
54,89,69,71
54,89,69,71
54,88,68,71
54,88,68,71
53,88,67,71
53,88,67,71
53,88,67,70
53,87,67,70
52,86,67,70
52,86,66,70
51,85,66,69
51,85,66,69
51,85,65,68
51,84,65,68
51,84,65,67
51,84,64,67
50,83,64,67
51,83,63,67
50,83,63,67
50,83,63,66
50,82,63,66
49,82,63,66
49,82,62,66
49,81,62,65
49,81,62,65
49,80,62,65
48,80,61,65
48,79,61,64
48,79,61,63
48,79,61,63
52,79,61,63
52,79,60,63
52,78,60,63
52,78,60,76
51,78,60,75
51,77,59,75
51,78,59,78
51,77,59,77
51,77,59,77
50,76,58,77
50,76,58,76
50,76,57,76
50,75,57,76
49,75,57,75
49,75,57,75
49,75,57,74
49,74,56,74
48,74,56,74
48,73,56,73
48,73,56,73
48,73,55,73
48,73,55,72
47,73,55,71
47,71,55,71
47,71,55,71
47,71,55,71
47,71,54,71
46,71,54,71
46,71,54,71
46,71,53,70
45,70,53,70
46,70,53,69
45,70,53,69
45,69,53,68
45,69,52,69
45,69,52,68
45,69,52,68
44,68,51,67
44,67,51,67
44,67,51,67
44,67,51,67
44,67,51,66
44,67,51,66
43,66,51,66
43,67,51,65
43,66,51,65
43,66,51,65
43,66,50,65
43,66,50,64
42,65,50,64
42,65,50,63
41,65,49,63
42,64,49,63
41,64,49,63
41,63,49,63
41,63,49,62
41,63,48,62
40,63,48,62
41,63,48,62
41,63,48,62
39,62,48,61
39,62,48,61
39,62,47,61
39,62,47,60
39,62,47,60
39,61,47,60
39,61,46,60
39,61,46,60
39,61,46,59
39,60,46,59
38,60,46,59
38,60,46,59
38,59,45,58
38,59,45,57
38,59,45,57
38,59,45,57
37,58,44,57
37,59,44,57
37,58,44,57
37,58,44,57
37,57,44,56
37,58,44,56
37,57,44,56
37,57,44,56
37,57,43,56
36,57,43,55
36,56,43,55
35,56,43,55
35,56,42,55
35,56,42,54
37,56,42,54
37,56,42,54
37,56,41,54
37,55,41,53
36,54,41,53
36,54,41,53
36,54,41,52
36,54,41,52
35,54,41,52
35,54,41,51
35,53,41,51
35,53,41,51
35,53,41,51
35,53,40,51
35,52,39,51
35,52,39,50
35,52,39,50
35,52,39,50
35,51,39,50
35,51,39,50
34,51,39,49
34,51,39,49
34,51,39,49
34,50,39,49
34,50,39,49
34,50,39,48
33,50,38,48
33,50,38,48
33,49,38,48
33,50,38,48
33,49,38,48
33,49,38,47
32,49,37,47
32,48,37,47
32,48,37,47
32,48,37,46
31,48,37,46
31,48,37,46
31,48,36,46
31,47,36,46
31,48,36,45
37,47,36,45
36,47,36,45
36,47,35,45
36,47,35,45
36,46,35,44
35,46,35,44
35,46,35,44
35,46,35,44
35,46,35,44
35,45,35,44
35,46,35,44
35,45,35,43
35,45,34,43
35,45,34,43
35,45,34,43
34,44,34,42
34,44,34,42
34,44,34,42
34,44,33,42
34,44,77,42
33,44,111,42
33,44,109,42
33,44,108,42
33,43,108,41
33,43,107,41
33,43,107,41
32,42,106,41
32,42,105,41
31,42,105,39
31,42,103,40
31,41,103,39
31,41,103,39
31,41,103,39
31,41,103,39
31,41,102,39
31,41,102,39
31,41,101,39
33,41,101,39
35,41,100,39
35,41,99,39
35,39,99,39
35,39,99,39
35,40,98,38
35,39,98,38
34,39,98,38
34,39,97,38
34,39,97,37
34,39,96,37
33,39,96,37
34,39,96,37
33,39,96,37
33,39,94,36
33,38,94,37
33,39,94,37
33,38,93,36
32,38,93,36
32,38,93,36
32,38,93,35
31,38,92,35
31,37,92,35
31,38,91,35
31,37,91,35
31,37,90,35
31,37,90,35
31,37,90,35
31,37,89,34
31,36,89,34
31,36,88,34
31,36,88,34
31,36,88,34
31,35,88,34
31,35,88,34
31,35,87,34
31,35,86,34
30,35,86,33
30,35,86,33
30,35,85,33
30,35,85,33
30,35,85,32
30,34,84,33
30,34,84,32
29,35,84,31
30,34,83,32
29,34,83,31
29,34,95,32
29,34,94,31
29,34,94,31
29,34,94,31
28,33,93,31
28,33,93,31
39,33,92,31
39,33,92,31
38,33,92,31
38,33,91,31
38,32,91,31
37,32,91,31
37,32,90,30
37,32,90,30
37,32,89,30
37,32,89,30
37,31,89,30
36,31,88,30
36,31,88,30
36,31,88,29
36,31,87,29
36,31,87,29
35,31,86,29
35,31,86,29
35,31,86,29
35,31,85,30
35,30,85,30
35,30,84,30
35,30,84,30
35,30,83,30
35,30,83,30
34,30,83,30
34,30,83,29
34,30,82,30
34,29,82,29
34,29,82,29
33,29,81,29
33,29,81,30
33,29,81,30
33,29,80,36
32,29,79,36
33,29,79,36
32,29,79,36
32,28,79,35
32,29,79,36
31,28,78,35
31,28,78,35
31,28,78,35
31,28,77,35
31,28,77,35
31,28,77,35
31,28,77,34
31,27,76,34
31,28,76,34
31,27,76,34
31,27,76,34
30,27,75,33
30,27,75,34
34,27,75,33
33,27,74,34
33,27,74,33
33,27,73,33
33,27,73,33
33,26,73,33
32,26,73,33
32,26,71,32
32,26,71,32
32,26,71,32
31,25,71,31
31,25,71,31
31,25,71,31
31,25,71,31
31,25,71,31
31,25,70,31
31,25,70,31
31,25,69,31
31,25,69,31
30,25,69,30
31,25,69,30
30,25,68,30
30,24,68,30
30,24,68,30
30,24,67,30
30,24,67,30
30,24,67,30
30,24,67,29
29,24,67,29
29,24,67,29
29,24,66,29
29,24,66,29
29,24,65,29
29,24,65,43
29,26,65,42
29,26,65,42
28,25,64,42
29,25,64,42
28,25,64,42
28,25,64,41
28,25,63,41
28,25,63,41
28,24,63,40
28,24,63,39
28,24,63,39
27,25,63,39
27,28,62,39
27,45,62,39
27,48,62,39
27,47,62,39
27,48,61,39
27,47,61,39
31,47,61,38
31,47,61,39
31,47,60,39
31,47,60,38
31,46,60,38
31,46,60,38
31,45,59,38
31,46,59,38
31,45,59,38
31,45,59,38
31,44,59,37
31,44,58,37
30,44,58,37
30,44,58,37
30,44,57,36
30,44,57,36
29,43,57,36
30,43,57,35
29,43,56,36
29,43,56,35
29,43,56,39
29,43,71,38
29,42,83,39
29,42,83,38
29,41,82,38
29,41,82,38
29,41,81,38
28,41,81,37
28,41,81,37
29,41,80,37
28,41,80,37
28,39,79,37
28,41,79,37
28,39,79,37
28,39,79,63
28,39,78,67
27,39,78,67
27,39,77,66
28,39,77,66
28,39,77,65
28,39,76,65
28,39,76,64
28,38,78,64
28,39,82,63
27,38,81,63
27,38,81,63
27,38,80,63
27,37,79,63
27,37,79,62
27,37,79,62
27,37,79,62
26,37,79,62
28,37,78,61
27,36,78,61
28,36,78,61
28,36,77,61
27,36,77,60
27,36,77,60
27,36,76,60
27,35,76,59
27,35,76,59
27,35,75,59
27,35,75,59
26,35,75,58
26,35,74,58
26,35,74,58
26,35,73,57
26,34,73,57
26,34,73,57
26,34,73,57
26,34,71,56
25,34,71,56
25,33,71,56
25,33,71,56
25,33,71,56
25,33,71,56
25,33,71,55
24,33,70,55
25,33,70,55
28,32,70,54
27,32,70,54
28,32,69,54
28,32,69,53
27,31,69,53
27,31,68,53
27,31,68,53
27,31,67,53
27,31,67,52
26,31,67,51
26,31,67,52
26,31,66,51
28,31,67,51
28,31,66,51
28,30,66,51
28,31,66,51
28,30,65,51
28,30,65,69
28,30,71,71
28,30,112,70
28,30,130,71
28,29,129,70
27,29,129,70
27,29,127,69
27,29,127,69
27,29,126,68
27,29,125,68
26,29,125,67
26,29,125,67
26,29,124,67
26,28,123,67
26,28,123,66
26,28,121,66
26,28,121,66
26,28,121,66
25,28,120,65
25,27,120,65
25,27,120,65
25,27,119,64
25,27,118,63
25,27,118,63
24,27,117,63
25,26,116,63
24,26,116,88
24,27,115,91
24,27,115,90
24,27,115,89
24,27,114,89
24,27,114,88
24,26,113,88
24,26,113,88
24,26,112,87
24,26,112,87
24,26,111,86
23,25,111,85
24,25,110,85
23,25,110,85
23,25,109,84
23,25,109,84
23,25,108,83
23,25,108,83
22,25,108,83
27,25,107,82
26,25,106,82
26,24,106,82
26,24,105,81
25,24,105,80
25,24,105,81
25,24,103,80
25,24,103,79
25,24,103,79
25,24,103,79
25,24,103,79
25,24,102,78
25,24,102,78
35,24,101,77
34,23,101,77
34,23,100,77
34,23,100,77
34,23,99,76
34,23,99,76
33,23,99,76
33,23,98,75
33,22,98,75
33,22,97,75
33,22,97,75
33,22,97,74
32,22,96,74
31,22,96,73
31,22,96,73
31,22,96,73
31,21,95,71
31,22,95,71
31,21,94,71
31,21,94,71
31,21,93,71
31,21,93,71
31,21,93,71
31,21,92,71
30,21,92,70
31,21,92,70
31,20,91,70
31,20,91,69
31,20,91,69
31,20,90,68
31,24,90,68
31,24,89,68
30,23,89,67
30,23,89,67
30,23,88,67
30,22,88,67
30,23,88,66
30,23,88,66
30,22,88,66
38,22,87,66
37,22,86,65
37,22,86,65
37,22,86,65
37,22,85,64
36,22,85,64
36,22,85,63
36,21,84,63
35,21,84,63
36,21,83,63
35,21,83,63
35,21,83,63
35,21,82,63
35,21,82,62
35,20,82,62
35,21,81,62
34,20,81,61
35,20,81,97
34,20,81,97
34,20,80,96
34,20,79,96
34,20,79,96
34,20,79,95
33,19,79,95
34,19,79,94
33,19,78,94
33,19,78,93
33,19,78,93
34,19,78,92
33,19,77,92
33,19,77,92
33,19,77,91
33,19,76,91
33,19,76,90
32,19,76,90
32,19,76,89
32,19,75,89
31,19,75,89
32,19,75,88
31,18,75,88
31,18,74,88
31,18,74,88
31,18,73,87
31,18,73,87
31,18,73,86
31,18,73,86
31,18,73,85
30,18,71,85
30,19,71,85
30,18,71,84
30,18,71,83
30,19,71,83
31,18,71,83
30,18,70,83
30,18,70,82
30,18,71,82
30,18,70,82
30,18,70,81
30,18,69,81
29,18,69,81
30,19,71,80
29,19,71,79
29,19,70,79
29,19,70,79
29,19,70,79
38,19,69,79
37,18,69,78
37,19,68,78
37,19,69,78
36,18,68,77
36,19,68,77
35,18,67,77
35,19,67,76
35,19,67,76
36,18,67,76
35,18,66,75
35,18,66,75
35,18,66,75
38,18,66,75
44,18,65,74
44,18,65,74
43,18,65,73
43,18,65,73
43,17,64,73
43,18,64,73
42,17,63,71
43,17,71,71
42,17,71,71
42,17,71,71
41,17,71,71
41,17,70,71
41,17,70,71
42,17,70,70
42,17,70,70
42,16,69,70
41,16,69,70
41,17,69,69
41,16,68,69
41,16,68,68
41,18,67,68
39,17,67,68
39,18,67,67
39,18,67,67
39,17,67,67
39,17,66,67
39,17,66,67
39,17,66,67
39,17,66,66
39,17,65,66
39,17,65,65
39,17,64,65
39,17,64,65
39,17,64,65
39,17,63,65
38,17,63,63
39,17,63,64
38,17,63,63
39,17,63,63
40,17,62,63
39,17,62,63
39,17,62,62
39,17,62,62
39,16,62,62
39,17,62,62
39,16,61,62
39,16,61,61
39,16,60,61
39,16,60,61
39,16,60,60
39,16,60,60
38,15,60,60
38,15,60,60
38,15,60,60
38,15,59,60
37,15,59,59
38,15,59,59
37,15,58,58
37,15,79,58
37,15,97,58
37,16,96,58
37,16,96,57
36,15,95,57
36,16,94,57
37,15,94,57
37,15,94,57
36,15,93,57
37,15,93,56
37,15,92,56
35,15,92,56
35,15,91,56
35,16,91,56
35,15,91,55
35,15,91,55
35,15,89,54
35,15,89,54
35,15,89,54
34,15,89,54
37,15,88,53
37,15,88,54
36,15,88,53
36,15,88,53
36,15,87,53
35,14,86,52
35,15,86,52
35,14,86,52
35,15,85,52
35,17,85,51
35,17,84,51
35,16,84,51
35,17,83,51
35,16,83,51
35,16,83,51
35,16,83,50
35,16,82,50
35,16,82,50
35,16,82,50
35,16,81,49
34,15,81,49
34,19,81,49
34,19,80,49
