92,86,373,210
115,85,371,209
114,85,369,207
113,85,366,207
113,83,364,206
112,83,362,205
112,83,359,204
111,83,364,204
110,83,361,202
110,82,359,201
109,83,357,199
109,88,355,199
121,87,352,199
121,86,350,197
120,86,348,196
120,85,346,195
119,85,344,194
118,85,344,193
117,83,359,193
116,83,358,192
115,83,356,191
115,102,354,190
120,101,352,189
118,101,349,188
117,100,347,187
117,99,345,186
116,99,342,185
115,98,341,184
115,98,339,183
114,97,337,182
114,96,335,182
113,101,334,181
113,103,332,179
112,102,330,179
112,102,327,182
111,101,326,181
110,100,324,179
110,100,322,179
109,99,319,178
109,99,319,177
108,98,317,176
108,97,316,176
107,108,313,174
107,107,312,173
106,107,310,173
105,106,308,221
105,105,306,246
105,105,305,243
103,103,303,242
103,103,303,241
103,103,300,239
102,102,300,238
102,103,297,236
109,103,295,235
109,103,295,233
109,102,293,231
108,102,291,231
108,101,289,229
107,100,287,228
106,100,286,227
105,99,285,225
105,99,284,224
103,99,282,223
103,99,280,222
103,98,279,221
103,98,278,220
103,97,276,219
102,96,275,217
101,96,273,216
101,96,271,215
100,95,271,214
99,95,269,213
99,94,268,211
99,94,267,211
98,94,265,210
98,93,263,208
98,93,263,207
98,92,261,207
97,91,260,206
97,91,259,205
96,91,258,204
96,91,256,203
95,89,255,201
95,89,254,201
94,92,253,199
95,102,252,199
105,101,250,198
105,101,249,196
103,99,248,195
103,99,247,195
103,99,246,194
103,98,244,193
102,97,301,192
101,97,299,191
100,97,297,190
100,99,295,189
100,99,294,188
99,98,292,187
99,98,291,187
98,97,289,234
97,97,287,231
97,96,286,231
97,96,285,230
96,95,324,227
96,95,321,227
95,94,319,225
95,95,318,224
94,96,316,223
102,96,314,222
101,96,312,221
100,94,310,219
100,94,309,218
99,93,307,217
99,93,305,216
98,93,338,215
98,92,335,214
97,92,333,212
97,91,331,211
96,91,329,211
102,90,327,209
101,89,325,207
100,89,323,207
100,88,321,206
99,88,319,206
99,88,318,214
99,88,369,212
98,87,367,211
97,86,364,210
97,95,362,209
97,96,359,207
103,95,357,207
103,94,355,206
102,94,353,205
102,94,350,204
101,93,348,203
101,92,347,201
100,92,344,199
99,91,342,199
99,91,340,198
98,94,339,197
103,100,335,196
105,99,335,195
103,99,333,194
103,98,331,193
103,98,329,192
103,97,327,191
102,97,326,190
102,96,326,189
101,96,323,188
101,95,321,187
99,95,319,187
99,95,318,186
99,94,317,185
98,93,315,184
98,93,313,183
97,93,312,182
97,92,309,182
96,92,314,181
96,91,332,179
96,90,329,179
95,90,327,178
94,89,325,177
99,89,323,176
103,89,322,176
103,88,319,174
103,88,318,174
102,87,316,173
102,87,314,172
101,87,359,172
100,86,366,171
99,85,363,170
99,85,361,169
99,89,359,167
103,88,356,167
102,88,354,167
102,88,352,167
101,87,350,171
100,86,348,171
99,86,345,169
99,86,355,167
99,85,354,167
98,84,352,167
98,84,350,167
97,89,347,166
109,88,345,164
108,88,344,163
108,88,341,163
107,87,339,162
106,86,337,161
106,86,335,160
106,86,363,160
103,85,359,159
103,84,358,158
103,88,355,158
103,100,353,157
103,99,351,156
102,99,348,156
102,98,347,155
102,97,345,155
101,96,342,155
100,96,340,154
99,96,339,153
99,96,337,153
99,95,335,152
98,106,334,152
98,108,331,150
97,107,329,150
96,107,327,150
97,106,326,216
96,105,323,215
95,105,321,214
95,103,319,211
94,103,319,210
94,103,317,210
93,103,316,207
93,102,313,207
92,102,312,206
92,101,310,205
92,101,309,204
91,100,307,203
90,99,305,201
90,99,304,199
89,99,302,199
89,98,301,199
89,98,299,198
88,97,297,195
88,97,295,195
88,96,295,194
94,96,293,193
93,96,291,192
93,95,290,201
92,95,287,199
92,94,287,199
91,94,286,198
91,93,309,197
90,92,307,196
89,92,305,195
89,93,304,194
89,97,302,194
91,97,300,192
91,96,298,191
90,96,297,190
89,96,295,189
89,95,294,189
88,94,292,187
88,94,341,187
88,93,339,185
88,93,335,185
87,92,334,184
86,103,333,183
105,103,330,182
103,102,327,181
103,102,326,180
103,101,324,179
102,101,322,178
102,100,319,177
101,99,318,176
101,99,317,176
100,98,315,175
99,101,313,174
105,100,311,173
105,99,309,172
103,99,307,171
103,98,305,170
103,98,304,169
102,97,302,167
102,96,305,167
101,96,303,167
100,96,301,166
100,95,300,165
99,95,298,164
117,95,295,163
116,94,295,163
115,94,293,162
115,93,291,171
114,92,290,170
114,92,287,169
113,92,323,167
112,91,321,167
112,90,319,166
111,90,317,165
111,96,315,165
110,95,313,163
109,95,312,163
109,94,310,252
108,93,307,254
108,93,306,252
108,92,304,250
107,92,304,249
106,91,301,248
105,91,300,246
105,96,298,244
105,96,295,242
103,95,295,242
103,94,293,243
103,94,291,289
103,93,290,286
102,93,287,285
101,93,315,283
100,92,313,281
100,92,311,280
99,91,308,278
99,91,307,275
98,90,305,275
98,89,304,273
98,89,302,271
97,88,300,270
96,88,299,269
96,88,295,267
96,87,295,265
96,87,294,263
95,86,292,263
94,86,291,262
94,92,289,260
93,92,287,259
93,91,286,258
93,91,285,255
92,91,284,349
91,90,282,365
91,89,280,361
91,89,290,359
91,89,380,358
89,88,376,355
89,88,373,353
88,88,371,351
107,87,369,348
109,87,366,346
109,86,365,344
108,86,362,342
108,86,359,340
107,85,358,338
106,85,355,336
106,84,353,334
105,83,352,332
105,83,349,331
103,106,347,327
103,105,345,327
103,103,343,324
103,103,340,323
102,103,339,320
101,102,335,318
101,102,334,317
100,101,332,315
99,100,331,313
99,100,327,312
99,99,327,310
98,101,325,308
98,100,323,307
98,99,321,305
97,99,319,303
96,99,318,302
96,98,316,300
96,97,315,299
95,97,313,297
94,96,312,295
94,96,310,294
94,96,308,293
94,99,306,291
99,99,305,289
99,98,304,288
98,98,302,287
97,98,300,285
97,97,299,284
96,96,297,282
96,96,295,281
96,96,295,280
95,95,293,278
94,95,291,277
94,95,290,275
113,95,287,274
112,94,287,273
112,93,286,271
111,93,284,270
111,92,283,269
110,92,281,268
109,91,280,266
109,91,278,263
108,90,277,263
108,91,275,263
107,95,274,261
106,94,273,259
105,94,271,258
105,93,270,257
103,93,268,255
103,92,267,254
103,92,265,253
103,91,327,252
103,90,326,251
102,90,323,249
101,93,321,248
101,93,319,247
100,92,317,245
99,92,316,243
99,91,314,295
99,91,312,292
98,90,310,291
98,90,315,289
97,89,348,287
97,89,344,286
96,88,343,284
96,96,341,282
96,112,338,281
97,111,336,280
96,110,335,278
96,110,332,275
95,109,330,275
95,108,327,273
94,108,332,271
94,107,406,270
93,107,402,268
93,105,399,267
92,106,397,265
98,105,394,263
97,105,391,263
96,103,389,261
96,103,387,259
95,103,384,258
95,102,382,257
94,102,380,255
94,101,377,254
93,101,375,253
93,100,373,251
103,103,371,250
120,103,368,249
118,103,366,248
117,103,363,307
117,102,361,305
116,101,359,303
115,101,356,301
114,99,354,299
114,99,352,297
113,99,350,295
113,110,348,294
112,109,346,291
112,108,344,290
111,108,342,287
111,107,339,286
110,107,337,284
109,106,335,283
109,105,334,281
108,105,332,280
108,103,330,278
107,110,327,276
107,109,326,275
107,108,323,273
106,107,322,271
105,107,321,270
105,106,319,269
105,105,317,267
103,105,316,265
103,103,313,263
103,103,312,263
102,103,310,261
103,103,308,260
107,103,306,258
106,102,305,257
105,102,303,255
105,101,301,254
103,101,300,253
103,100,325,251
103,99,323,249
103,99,321,249
102,99,319,248
102,99,317,246
123,98,316,245
122,97,313,243
121,96,312,242
120,96,310,241
120,96,307,240
119,95,305,239
118,94,306,238
117,94,304,236
117,93,303,235
116,103,301,233
115,103,299,233
115,103,297,231
114,103,295,280
114,102,294,321
113,101,292,319
113,101,291,317
112,99,289,315
112,99,287,312
110,99,286,311
110,105,285,308
110,103,283,307
109,103,281,304
108,103,280,303
108,103,278,301
107,102,276,300
107,101,275,297
106,101,293,295
105,100,291,294
105,99,289,292
103,99,287,291
103,99,285,289
105,98,283,287
103,97,283,286
103,97,280,284
103,96,279,283
102,96,277,281
102,96,275,280
102,95,351,278
101,94,348,277
100,94,346,275
100,94,344,274
100,94,342,272
100,93,339,271
99,93,337,269
99,93,335,268
99,92,333,267
98,92,332,265
98,92,329,263
97,91,381,263
96,90,379,261
96,89,376,260
96,94,374,259
96,97,371,258
105,97,369,255
105,96,367,255
103,96,364,253
103,95,362,252
103,95,359,251
103,94,358,249
102,94,355,248
101,93,353,247
100,92,351,246
100,93,350,245
103,92,348,243
102,92,345,242
101,92,344,241
100,91,341,240
100,90,339,238
99,90,337,237
99,89,338,236
99,89,341,235
98,89,339,234
98,88,337,231
97,97,335,231
97,96,334,231
97,96,332,230
96,95,329,228
96,94,327,227
96,94,326,226
96,93,324,225
95,93,323,225
94,92,321,223
94,92,319,222
93,91,317,222
93,95,316,220
93,94,314,220
95,94,313,218
94,93,311,217
93,93,309,216
93,92,307,216
92,92,306,215
92,91,304,213
92,91,303,213
91,90,301,211
91,89,300,211
90,91,298,210
91,101,297,209
99,100,295,207
99,99,294,207
98,99,292,206
98,98,290,205
97,98,289,204
97,97,287,203
96,97,306,202
96,96,305,201
95,96,303,199
95,95,301,199
94,96,300,199
94,95,297,198
94,95,295,197
93,94,295,216
93,93,293,229
92,93,291,227
92,92,289,226
92,92,315,225
91,92,312,224
90,91,311,222
90,91,309,222
90,99,307,220
91,99,305,219
91,98,303,217
90,97,302,281
90,97,300,304
89,96,298,302
88,96,295,300
88,95,306,298
88,95,304,295
88,94,302,295
87,94,301,292
86,93,299,291
88,93,297,290
88,92,295,287
88,92,294,307
88,91,293,387
86,91,291,384
86,90,289,381
86,90,295,377
86,89,332,376
85,89,331,373
85,88,327,371
84,90,326,368
88,89,324,366
101,89,322,364
100,89,319,362
99,88,319,359
99,88,317,358
98,87,316,355
98,86,313,354
97,86,330,352
96,86,327,350
96,85,326,348
96,86,325,345
96,87,322,344
98,86,320,342
97,86,319,339
97,85,317,338
96,85,315,335
96,84,313,335
95,84,312,332
95,83,312,330
94,83,309,329
94,83,307,327
94,82,306,326
93,101,304,323
92,100,303,322
92,99,301,321
91,99,300,319
91,99,297,316
91,98,295,316
89,98,295,313
90,97,299,312
89,96,297,310
88,96,295,309
88,96,294,307
88,97,292,305
93,96,290,304
92,96,289,302
92,96,287,301
91,95,286,299
91,94,285,298
91,94,283,295
90,93,313,295
89,93,310,294
89,92,309,292
89,92,307,290
88,96,305,289
88,95,303,287
88,95,301,286
88,94,300,285
87,93,298,284
86,93,295,282
86,92,295,281
86,92,293,280
85,92,291,278
84,91,290,277
84,91,287,275
84,103,287,274
118,103,285,272
117,102,284,271
117,102,281,269
115,101,280,268
115,100,279,267
114,100,277,265
114,99,329,263
113,99,326,263
112,98,324,262
112,108,322,259
111,107,319,259
112,107,318,257
110,105,316,255
110,105,313,254
109,103,312,253
109,103,310,252
109,103,344,251
108,103,342,249
107,102,339,248
106,102,337,247
105,108,335,245
106,107,333,244
105,107,331,243
105,106,329,241
103,105,326,240
103,103,324,239
103,103,323,238
103,103,320,237
102,103,318,236
101,102,317,235
101,109,315,233
118,108,312,231
117,107,311,231
116,107,309,230
115,106,307,229
115,105,305,227
114,105,316,227
113,103,373,225
113,103,370,224
112,103,368,223
113,103,365,222
115,103,363,220
114,102,359,220
113,102,358,219
113,101,355,217
112,101,353,216
111,99,351,216
110,99,349,214
110,99,347,214
109,98,345,212
109,98,344,211
109,97,341,210
108,97,338,209
108,96,337,208
107,96,335,225
106,96,333,224
106,95,331,223
105,94,358,221
105,94,374,220
103,93,371,219
103,93,369,217
103,96,367,217
103,95,365,216
103,94,362,215
102,94,359,213
101,93,358,211
101,92,355,211
100,92,353,210
99,92,352,209
99,91,350,207
98,91,347,207
98,90,345,206
98,96,344,205
120,96,341,204
120,96,339,203
119,95,337,202
118,94,335,201
117,93,333,199
116,93,331,199
116,92,331,198
115,92,329,197
114,92,327,196
114,94,325,195
113,96,323,195
112,95,321,194
112,94,319,193
112,93,318,192
111,93,316,191
110,92,315,190
110,92,313,189
109,91,371,189
109,91,369,188
108,90,366,187
108,92,364,186
107,92,361,185
106,91,359,184
106,91,357,184
105,90,355,187
105,89,352,185
103,89,350,185
103,88,348,184
103,88,346,183
103,88,344,182
102,88,342,181
101,89,339,180
101,88,338,179
101,88,335,178
100,88,334,191
99,87,332,207
99,86,331,206
99,86,327,205
98,85,327,204
98,85,324,203
97,84,323,201
97,85,321,199
96,87,319,199
96,86,318,198
96,86,316,197
95,86,315,196
95,84,313,196
94,85,311,195
94,84,310,194
93,83,308,193
93,83,307,192
92,82,305,191
92,82,304,190
92,99,302,189
94,99,300,188
93,98,299,187
93,98,297,186
93,97,295,209
92,97,294,207
92,96,293,206
91,96,291,205
91,95,289,204
90,95,288,203
89,94,287,202
89,96,285,199
96,98,284,199
98,97,283,199
97,97,281,259
97,97,280,326
96,96,278,323
96,96,277,321
95,94,275,319
94,94,300,317
94,94,297,315
93,93,295,313
93,107,294,312
93,107,292,310
97,105,290,307
96,105,288,306
96,103,287,304
96,103,285,302
95,103,284,301
94,103,317,299
94,102,358,297
93,102,355,295
92,101,353,294
92,107,351,292
93,106,349,290
93,105,346,289
93,105,344,287
92,104,342,286
92,103,340,284
91,103,338,283
91,103,335,281
90,102,334,280
89,102,332,278
89,101,331,276
89,114,327,275
97,113,327,273
96,113,325,271
96,112,323,270
95,112,321,270
94,111,319,268
94,110,317,266
93,110,316,265
93,109,313,263
92,108,312,262
92,108,310,261
92,109,308,259
92,108,307,258
92,108,305,257
91,107,304,255
90,107,302,254
90,106,300,252
89,105,298,251
89,105,299,250
88,103,297,249
88,103,295,248
88,103,294,247
88,103,292,245
87,102,291,243
86,102,289,243
86,101,287,250
85,100,286,249
85,99,284,247
84,99,313,246
84,99,355,244
83,98,353,243
83,98,351,242
83,100,349,240
83,99,347,240
82,98,344,238
81,98,343,273
81,97,339,295
81,97,338,294
80,97,335,292
80,96,335,291
80,96,349,289
79,95,347,287
79,94,345,286
79,99,343,285
79,99,341,282
83,99,338,281
82,99,336,280
82,98,335,278
81,97,332,276
81,97,331,275
80,96,329,273
80,96,327,272
79,95,326,271
79,95,323,269
79,94,322,268
80,95,319,267
84,95,318,265
83,94,316,263
83,94,315,262
83,93,313,260
82,93,312,259
82,92,310,258
81,92,332,257
81,91,330,255
80,91,327,254
80,90,327,253
82,134,324,252
103,133,322,250
103,132,319,249
102,131,318,248
101,131,316,246
100,130,314,245
99,129,312,243
99,128,323,242
99,127,322,241
98,127,319,240
98,126,318,239
117,125,316,237
120,124,313,236
119,124,312,235
118,124,310,233
117,123,307,231
116,121,306,231
115,121,327,230
115,120,326,228
114,120,323,227
114,120,322,226
113,118,319,225
120,118,318,224
120,117,316,222
119,116,313,221
118,115,312,220
117,115,310,219
117,114,308,218
115,114,305,217
115,113,304,216
115,127,303,214
114,126,300,214
113,125,299,213
112,125,297,211
112,124,295,211
111,124,294,209
110,123,291,208
110,122,323,207
110,121,322,206
109,120,319,205
108,146,317,205
114,167,316,204
122,165,313,202
121,165,312,224
120,163,310,350
120,162,307,345
119,161,305,342
118,159,312,339
117,159,310,337
117,158,307,335
116,167,305,333
118,167,303,331
151,166,301,327
149,165,300,327
147,164,297,324
147,163,295,322
146,161,294,319
145,161,295,318
144,159,293,316
143,159,291,314
143,158,289,312
160,157,287,310
159,156,286,308
158,155,284,306
157,154,283,305
156,153,281,302
155,152,280,301
154,152,297,299
153,151,295,297
152,150,294,295
152,159,291,294
152,159,290,291
151,158,287,290
151,157,286,288
150,156,284,287
148,155,283,285
147,154,281,283
147,153,280,281
146,152,278,280
145,152,276,278
144,151,274,277
145,150,272,275
144,149,271,274
143,147,270,273
142,147,268,271
141,146,267,269
141,145,310,268
140,145,344,266
139,143,340,265
139,224,339,263
179,270,335,262
178,268,333,260
177,266,331,259
176,263,329,257
175,263,327,255
174,261,325,254
172,259,323,253
171,257,321,252
170,255,319,251
169,254,317,249
188,254,315,248
186,252,312,247
185,251,311,245
184,249,309,243
183,248,307,243
181,247,305,241
181,245,303,240
179,243,301,238
178,242,300,237
177,263,298,236
242,262,295,235
252,259,294,233
250,258,292,231
248,255,291,231
247,254,289,230
245,253,287,229
243,251,327,227
241,249,326,226
240,248,323,225
239,306,322,224
238,320,319,223
236,318,317,221
235,315,315,220
231,313,313,219
231,311,311,218
230,309,309,217
229,307,316,216
227,305,313,215
227,303,312,214
225,301,310,212
249,299,307,211
248,297,306,285
246,295,304,333
244,294,302,330
243,291,300,327
241,290,312,325
240,287,309,323
239,286,307,321
237,358,305,319
236,354,303,316
234,352,301,314
233,349,299,312
231,347,297,311
230,344,295,309
229,342,294,307
227,340,361,304
226,337,363,302
225,335,361,302
224,334,359,300
249,331,355,297
248,329,353,295
246,327,351,294
244,326,348,292
243,323,346,291
241,321,344,289
240,319,342,287
239,317,339,286
237,315,337,284
236,313,335,282
234,311,333,281
233,309,331,280
231,307,329,359
231,305,327,373
229,304,324,370
227,302,323,368
226,300,321,364
225,298,319,361
224,295,318,359
223,295,316,357
221,293,313,355
220,291,312,352
219,290,310,350
217,287,307,348
216,287,306,345
215,285,304,343
214,284,308,340
213,281,306,339
211,280,305,335
210,278,302,335
293,277,300,332
289,275,299,330
287,274,295,327
285,271,295,327
283,271,294,324
281,269,323,322
280,268,334,319
278,266,332,318
276,263,329,316
275,263,327,314
273,261,325,312
271,260,323,311
270,259,321,395
268,258,319,390
266,255,317,387
265,255,366,384
263,253,364,381
262,252,361,378
259,251,359,376
259,318,356,373
257,315,353,371
255,313,351,368
254,311,348,366
252,309,347,364
251,307,344,361
249,305,355,359
248,302,353,355
247,300,350,354
245,299,348,352
244,295,345,349
243,294,343,347
241,293,340,345
240,291,339,343
238,289,336,341
237,287,335,339
236,286,359,335
234,284,357,334
233,282,355,332
231,280,352,330
231,279,350,327
229,277,347,326
228,275,345,324
227,274,342,322
225,272,340,319
224,271,338,319
223,269,337,316
221,268,335,314
220,266,333,312
220,263,332,311
218,263,329,309
217,262,327,307
216,259,325,305
215,259,323,304
214,257,321,302
212,255,333,300
211,254,344,298
210,252,341,295
209,251,339,295
207,249,336,294
207,248,334,291
206,247,332,290
205,246,329,289
204,244,327,287
202,243,325,285
201,242,331,284
199,240,327,282
199,239,327,280
199,238,324,279
198,237,323,277
196,235,320,276
195,234,318,274
195,233,316,326
193,231,314,323
192,231,312,321
192,230,382,319
190,227,378,316
189,227,375,314
188,225,372,312
187,224,370,311
186,223,367,308
185,222,365,307
184,221,362,304
184,220,359,303
183,219,358,301
182,218,427,299
181,217,423,295
179,215,419,295
179,219,415,293
178,218,413,291
177,217,411,290
176,216,407,287
175,214,404,287
174,213,401,284
173,212,399,283
172,211,396,281
172,210,393,279
171,209,391,278
170,207,388,276
169,207,385,274
167,205,384,273
167,204,380,271
167,204,377,270
166,203,376,269
165,201,381,268
164,199,391,266
163,199,389,263
163,198,387,263
161,197,384,261
161,196,381,259
159,195,379,259
159,194,376,257
158,193,373,255
158,192,370,254
157,192,368,253
156,191,366,252
156,189,363,250
154,188,361,248
153,187,359,248
152,186,356,246
152,185,354,245
151,184,352,243
150,184,349,242
149,183,348,241
149,182,396,240
148,181,393,238
147,179,390,237
147,179,387,236
146,178,385,235
145,177,382,233
144,176,380,231
143,175,376,231
143,175,374,230
143,174,371,229
142,173,369,227
141,172,366,226
140,171,364,225
140,170,361,224
139,169,359,223
138,167,358,222
137,167,355,239
137,167,352,370
135,166,350,376
135,165,348,372
135,164,364,369
134,163,361,368
133,163,359,364
133,162,356,361
135,161,355,359
134,160,352,357
133,159,349,354
132,159,347,352
131,158,345,350
131,157,345,348
130,157,347,345
129,156,344,344
129,155,342,340
139,179,340,338
138,177,338,335
137,176,335,334
135,175,334,332
135,174,332,330
135,173,329,327
134,172,332,326
133,171,329,324
132,170,327,322
131,169,326,319
131,167,323,318
130,167,321,316
129,166,319,314
129,165,318,312
127,164,316,311
127,163,314,309
127,162,332,307
126,161,329,305
125,160,327,304
125,159,325,301
124,163,323,300
124,161,321,297
123,160,319,295
122,159,316,294
122,158,315,293
121,158,312,291
120,157,312,289
120,156,311,287
120,155,309,286
119,155,307,284
118,153,305,283
118,153,304,281
118,152,302,280
117,152,300,278
117,150,298,276
116,150,295,275
115,149,297,274
115,148,295,271
114,147,294,270
114,147,293,269
113,146,291,267
113,145,289,266
112,145,287,263
112,144,286,263
111,143,284,262
111,143,283,261
110,142,369,259
110,141,366,258
109,140,364,257
109,140,361,255
108,139,359,254
108,139,356,252
107,138,353,251
107,137,352,249
106,135,349,248
105,135,347,247
105,135,356,245
103,134,353,244
103,134,352,243
103,134,349,242
103,133,347,241
122,132,344,239
121,131,342,238
120,131,339,237
120,130,337,236
119,129,335,235
118,129,334,233
117,128,332,231
116,127,329,231
116,127,327,230
195,167,325,228
192,167,323,227
191,166,321,226
190,165,319,225
188,163,318,224
188,162,316,223
186,162,376,221
185,160,371,220
184,159,369,219
183,159,366,218
182,158,364,217
180,157,361,216
179,156,359,215
179,155,357,213
178,154,355,213
177,153,352,211
176,153,369,210
175,152,366,209
174,151,364,208
172,150,361,207
172,149,359,207
170,148,356,205
169,147,354,204
169,146,352,203
167,145,349,202
167,145,347,201
166,144,345,199
164,143,342,199
163,142,339,198
163,141,338,198
162,141,335,196
161,140,334,195
161,139,332,194
159,138,330,193
159,137,327,192
158,137,326,192
157,135,323,191
156,135,322,190
155,210,319,189
154,208,318,188
153,207,316,187
153,205,314,186
152,204,312,185
151,203,311,184
150,201,308,183
150,199,327,183
148,199,325,182
147,198,323,181
147,196,319,179
149,195,318,179
153,194,316,178
153,194,315,255
152,192,312,258
151,190,310,255
150,190,308,254
149,189,307,252
148,188,305,251
147,187,302,249
147,185,301,248
146,184,299,246
145,184,297,244
143,182,295,243
143,182,294,323
142,180,292,321
142,179,290,319
141,178,327,317
140,177,325,315
140,176,322,312
139,176,319,311
141,174,318,308
140,174,315,306
139,173,314,305
138,172,312,302
137,171,310,300
137,169,307,299
135,167,332,295
135,167,329,295
135,167,327,293
134,166,325,291
133,165,323,289
132,164,321,287
131,163,319,286
131,162,317,284
130,161,315,282
129,160,321,281
129,159,319,280
127,159,318,278
127,158,315,276
127,157,313,275
126,157,312,273
125,155,309,271
125,155,307,270
124,153,305,268
123,153,304,267
123,152,357,265
122,151,354,263
121,150,352,262
121,150,348,261
120,149,347,259
122,148,344,258
121,147,342,255
121,146,339,255
120,146,337,253
120,145,335,252
119,143,355,251
118,143,352,249
118,142,350,248
117,142,348,246
117,141,345,244
132,140,343,243
131,139,340,242
130,139,338,241
129,138,335,240
129,137,334,238
127,137,332,237
127,135,329,236
126,135,327,234
125,134,326,233
125,134,323,231
124,133,321,230
123,132,319,229
123,131,317,228
121,131,315,227
121,131,313,226
120,130,322,224
120,129,319,223
120,128,318,222
119,127,316,220
118,127,313,220
117,126,312,219
117,126,310,217
116,125,308,216
115,124,306,215
115,124,304,215
114,123,357,213
113,122,354,211
113,122,352,211
113,121,349,210
112,121,347,209
112,120,344,207
111,120,342,207
110,120,340,206
110,119,338,205
109,119,335,204
108,118,334,203
108,117,332,201
108,117,330,201
107,137,327,199
107,135,326,199
106,135,323,198
105,135,322,197
105,134,319,195
103,133,318,195
103,133,316,195
103,132,315,194
103,131,312,193
103,130,311,192
102,129,309,192
102,129,307,191
103,127,306,189
103,127,304,189
103,127,302,188
102,126,300,187
102,125,299,185
101,125,316,185
101,124,313,184
100,124,312,183
99,123,309,182
99,122,307,182
99,121,306,181
98,121,304,179
98,120,302,179
97,120,300,178
97,119,299,177
96,118,297,177
96,118,335,176
96,117,333,175
95,116,331,174
95,116,329,174
98,115,327,173
97,115,324,172
97,114,323,171
96,114,321,170
96,113,319,169
95,113,317,169
94,113,316,167
94,112,318,167
94,112,316,167
93,111,314,166
93,111,312,166
92,110,311,165
92,110,308,163
92,109,306,163
92,109,305,236
91,108,303,234
90,107,301,233
90,107,332,231
89,107,330,230
89,106,327,229
89,105,326,227
88,105,323,227
89,105,321,225
88,103,319,224
88,103,318,222
88,103,316,221
87,103,314,220
87,103,312,219
86,102,335,217
86,102,334,217
85,101,331,216
85,101,329,214
85,100,327,213
84,99,325,211
84,99,323,211
83,99,322,211
83,99,319,237
83,98,318,236
82,97,316,235
82,97,323,231
82,97,320,231
81,96,319,230
81,113,317,229
81,121,315,227
80,121,313,227
80,120,312,225
79,119,309,224
79,118,307,223
79,118,306,221
78,117,304,220
78,116,326,219
78,115,323,217
77,115,321,217
77,114,319,216
77,114,318,215
77,113,316,213
76,112,314,212
76,112,312,211
76,111,310,210
75,111,308,209
75,110,308,207
75,110,312,207
74,109,311,206
74,108,309,204
74,108,307,204
83,107,305,203
83,107,304,201
82,107,302,199
82,105,300,199
81,105,298,198
81,105,295,198
80,103,295,195
79,103,294,195
79,103,292,195
79,103,291,193
91,102,289,192
90,102,287,192
90,101,286,190
89,100,284,189
89,99,283,188
88,99,281,188
88,99,280,187
88,99,284,186
88,98,283,185
