22,27,61,33
22,27,61,33
22,27,60,32
22,27,60,31
22,27,60,31
22,26,60,32
22,26,59,31
22,26,59,31
21,26,59,31
22,26,59,31
21,26,59,31
21,25,59,33
21,25,58,34
21,25,58,33
21,25,57,33
21,25,57,33
21,25,57,33
21,25,57,33
21,25,56,32
20,25,56,32
20,25,56,32
21,24,56,32
21,24,56,32
20,24,56,32
20,24,56,31
20,24,55,31
20,24,55,32
19,24,55,32
19,24,55,32
19,24,54,32
19,24,54,31
21,24,54,31
21,24,53,31
21,23,53,31
21,24,53,31
21,24,53,31
21,24,53,31
21,23,53,31
21,23,52,31
21,24,52,31
21,24,51,30
20,24,51,31
20,24,51,30
20,24,51,30
22,24,51,30
23,24,51,30
23,24,51,30
23,24,50,30
23,23,51,30
23,24,50,29
23,23,50,29
22,24,50,30
22,23,50,30
23,23,51,30
22,24,51,30
22,23,50,30
22,23,50,30
23,23,50,30
24,23,49,29
23,23,50,30
28,23,49,29
28,22,49,29
28,23,49,29
28,22,48,29
28,22,49,29
28,23,49,88
28,26,48,96
27,25,48,95
28,25,48,95
27,25,48,94
27,25,47,93
27,25,48,93
27,25,47,93
26,25,47,92
27,25,46,92
26,24,47,92
26,25,46,90
26,24,46,91
26,25,66,90
26,26,66,89
26,25,65,89
26,25,65,89
26,25,64,89
25,25,64,88
25,25,63,88
25,25,63,88
25,24,63,87
25,25,63,87
25,25,63,87
25,24,62,86
25,24,62,86
24,24,62,85
24,24,62,85
25,24,62,84
25,24,61,84
24,24,61,84
24,24,61,83
24,24,61,83
24,23,60,83
24,24,60,82
24,23,60,82
24,23,60,81
24,23,60,81
24,23,60,81
24,24,60,80
23,24,59,81
24,24,59,80
23,24,58,79
24,24,58,79
23,24,58,79
23,24,58,78
23,24,57,79
22,24,57,78
22,23,57,78
23,24,57,77
22,24,57,77
22,24,57,77
22,23,57,76
22,23,56,76
22,23,56,76
22,23,56,76
22,23,56,76
22,23,56,75
22,23,55,75
21,22,55,75
22,23,54,74
22,22,54,74
22,23,54,73
22,22,54,73
22,22,54,73
21,22,53,71
21,22,53,73
21,26,53,71
21,26,53,71
21,26,53,71
21,26,52,71
21,26,52,71
21,26,52,71
21,26,51,70
21,26,51,70
20,25,51,70
20,25,51,69
20,25,51,69
21,25,51,69
20,34,50,69
20,34,50,69
20,34,50,68
20,34,50,68
20,34,50,67
20,34,50,67
21,33,49,67
20,33,49,67
20,33,49,66
20,32,49,67
20,33,48,67
20,33,49,111
19,33,59,110
20,32,59,109
20,33,59,109
19,32,58,108
19,31,58,108
19,31,57,107
19,31,57,106
19,31,57,106
20,31,57,105
21,31,56,105
19,31,57,103
19,31,56,103
20,31,56,103
20,31,56,103
19,31,56,103
19,31,55,102
19,30,55,101
19,31,54,101
19,30,54,101
19,30,54,100
20,30,54,99
20,30,54,99
19,30,54,99
19,29,53,98
19,29,53,98
19,29,53,98
19,29,53,97
19,29,52,97
19,29,52,96
19,29,52,96
19,29,51,96
19,29,51,95
19,28,51,95
19,28,51,95
19,28,51,94
19,28,51,94
19,28,51,94
19,28,50,93
19,28,50,93
19,29,50,92
19,29,50,92
18,29,49,92
18,28,49,91
18,28,49,91
18,28,49,91
18,28,49,90
18,28,49,89
19,28,48,89
19,27,48,89
18,27,48,89
18,27,48,88
19,27,48,88
18,27,47,88
18,27,47,88
18,27,47,88
18,27,47,86
18,27,47,86
18,27,47,86
18,27,46,86
18,26,46,85
18,26,46,85
18,26,46,85
18,26,46,84
17,26,45,83
18,26,45,83
18,25,45,83
17,27,45,83
17,27,45,83
17,27,45,82
17,27,45,82
17,27,44,81
17,27,44,81
17,27,44,81
17,27,44,81
17,27,44,80
17,26,44,80
17,27,43,79
16,27,43,79
17,26,43,79
17,26,42,78
16,26,43,79
16,26,43,78
16,26,42,78
17,25,42,78
17,26,42,77
16,25,42,77
16,25,42,77
16,25,42,77
16,25,41,76
16,25,41,76
16,25,41,76
16,28,41,75
16,28,41,75
16,27,39,75
15,27,41,75
15,27,39,75
15,27,39,74
15,27,39,73
15,27,39,73
16,27,39,73
17,26,39,72
16,26,39,72
16,26,39,71
16,26,39,71
16,26,39,71
16,25,39,71
15,25,39,71
15,25,39,71
16,25,38,70
18,25,38,70
19,25,38,70
18,25,38,70
18,25,38,70
18,25,38,69
18,25,37,69
18,25,37,68
18,24,37,68
18,25,37,68
17,24,37,67
17,25,37,68
18,25,37,67
17,25,37,67
18,25,36,67
17,25,37,67
17,25,36,67
17,25,36,66
17,25,38,66
20,24,37,65
20,24,37,65
19,24,37,65
19,25,37,65
19,24,36,64
19,24,36,64
20,24,36,64
19,24,37,63
19,24,35,63
19,24,35,63
19,24,35,63
19,24,35,63
19,24,35,63
19,24,35,62
19,23,35,62
19,24,41,62
19,24,42,62
19,23,41,61
19,25,41,61
18,25,41,61
19,25,41,61
18,25,41,61
22,25,41,60
22,25,41,60
22,25,39,60
22,24,39,59
22,24,39,59
22,24,39,59
27,31,39,60
46,48,39,59
46,48,39,59
46,49,39,58
46,49,39,58
46,49,39,57
45,48,39,57
45,48,38,57
45,48,38,57
44,48,38,57
52,47,38,57
51,47,38,56
51,47,38,56
51,47,38,56
51,47,37,56
50,46,38,56
50,47,38,56
49,46,38,56
50,46,37,55
49,46,37,55
49,45,37,54
49,45,37,54
49,45,37,55
48,45,36,54
48,45,37,54
48,45,37,54
48,44,37,54
48,44,37,53
47,44,37,53
47,44,37,53
47,44,36,53
47,43,36,52
47,43,36,52
46,43,36,53
46,43,35,51
46,43,35,51
46,42,35,51
46,42,35,51
46,42,35,51
46,42,35,51
45,41,35,51
45,42,35,50
45,41,35,50
44,41,35,50
44,41,34,50
44,41,34,50
44,40,34,49
44,41,34,49
44,39,34,49
44,39,34,49
44,39,34,48
44,39,34,48
43,39,33,48
43,39,36,48
43,42,47,48
43,48,47,48
43,48,47,48
43,48,47,48
42,48,47,48
42,47,46,47
41,47,46,47
41,47,46,47
41,46,45,47
41,47,45,46
41,46,45,46
41,46,45,46
41,46,45,47
41,46,47,46
41,49,46,45
39,51,46,45
39,50,46,45
39,50,46,45
39,50,46,45
39,49,45,45
39,50,45,45
39,49,45,45
39,49,45,44
39,49,45,44
38,49,45,44
39,49,44,44
38,48,45,44
39,75,44,44
44,74,44,44
62,99,44,44
61,103,44,44
61,102,44,43
60,101,43,43
60,101,43,43
60,101,42,42
60,99,43,42
59,99,43,42
59,99,42,42
59,98,56,42
59,98,70,42
58,98,70,41
58,97,69,41
57,97,69,41
57,96,68,41
57,96,68,41
57,96,67,40
57,95,67,40
57,95,67,40
56,94,67,40
56,94,66,39
56,94,66,39
56,93,66,39
56,93,66,39
56,92,66,39
55,92,65,39
55,92,65,39
54,91,65,39
54,91,65,39
54,90,64,39
53,90,63,38
54,89,63,39
53,90,63,38
54,89,63,38
53,88,63,38
53,89,63,38
53,88,62,38
52,88,62,37
52,88,62,38
51,87,62,37
51,87,62,38
52,87,61,37
52,86,61,38
52,86,61,37
51,85,61,36
51,85,60,37
51,84,60,36
51,84,60,36
51,84,59,35
51,83,60,36
50,83,59,35
51,83,59,36
70,87,59,35
70,86,58,35
69,86,58,35
68,86,58,35
68,85,58,35
68,85,57,35
67,84,57,35
67,84,57,35
67,83,57,35
67,83,57,35
66,83,56,34
66,82,56,34
66,82,56,34
65,82,56,34
65,82,55,33
65,82,56,34
65,81,56,33
64,80,55,33
64,80,54,34
63,80,54,33
64,101,54,33
63,101,54,33
63,100,54,33
62,99,54,32
62,99,53,33
62,99,53,33
62,97,53,33
62,98,52,32
61,97,52,32
61,96,52,31
71,96,52,31
70,95,52,31
70,95,51,31
69,95,51,31
69,95,51,31
69,94,51,31
69,94,51,31
68,94,51,31
68,93,51,31
67,93,51,31
67,92,51,31
67,92,51,31
67,91,51,31
66,91,51,31
66,91,51,31
66,90,51,31
65,90,50,31
65,89,50,30
65,89,50,30
65,92,50,30
64,92,50,30
64,91,49,30
64,93,49,30
64,93,49,30
110,107,49,30
119,115,49,30
118,114,49,30
117,113,48,29
116,112,48,29
115,112,47,29
115,112,48,29
115,111,48,35
114,110,47,34
114,110,47,34
113,110,47,34
112,109,47,34
112,109,47,33
112,108,46,33
111,107,46,33
110,107,46,33
110,106,46,33
109,106,45,33
109,105,46,33
110,129,45,33
110,128,45,32
109,127,45,32
108,126,45,31
108,126,44,31
108,125,44,31
107,125,44,32
106,124,44,31
106,123,43,31
105,123,43,31
105,122,43,31
117,147,43,33
116,147,43,34
116,147,43,33
115,146,43,33
115,145,43,33
114,144,42,33
113,143,42,32
113,143,42,33
112,142,42,33
112,141,42,31
112,141,42,31
111,140,42,32
110,140,42,32
110,139,41,31
109,138,41,31
109,137,41,31
108,137,41,31
108,135,40,32
107,135,39,31
107,135,39,31
106,134,39,31
105,134,39,31
105,133,39,31
105,132,39,31
103,131,39,31
103,131,39,30
103,131,39,31
103,132,39,30
111,131,38,30
111,131,39,30
110,130,39,30
110,130,38,30
109,129,38,30
109,127,38,29
108,127,38,29
108,127,38,29
107,126,38,30
107,172,38,29
106,170,38,29
105,169,37,28
105,167,37,29
105,167,37,29
105,183,38,28
103,207,37,28
103,206,37,28
103,205,36,28
103,204,36,28
102,203,36,28
102,201,36,28
101,199,36,27
100,199,35,27
100,198,35,27
99,198,35,27
99,196,35,27
99,195,35,27
98,195,35,27
98,194,35,27
98,193,35,27
97,192,35,26
97,191,35,27
97,190,34,26
97,190,35,71
96,189,35,71
96,188,35,71
95,187,35,70
94,186,35,70
94,185,35,70
94,184,35,69
93,184,35,69
93,183,35,69
93,182,34,68
92,181,34,68
93,231,35,67
92,250,37,67
91,248,37,67
92,247,37,67
91,245,37,67
90,244,37,66
90,243,37,66
89,275,37,66
90,274,36,66
89,271,36,65
89,271,36,65
89,269,36,65
118,268,36,65
131,267,36,64
130,265,36,63
129,263,36,63
128,262,35,63
127,261,35,63
127,259,35,62
127,258,35,62
126,257,35,62
125,255,35,62
125,254,35,61
124,253,34,62
124,252,34,61
123,251,35,61
123,249,39,60
122,248,39,60
121,247,39,60
121,246,39,60
120,244,39,59
120,243,39,59
119,242,39,59
119,241,38,59
118,240,38,58
117,238,38,58
117,238,50,58
117,248,66,58
116,271,67,57
115,270,67,57
115,268,66,57
114,267,66,56
113,265,65,56
113,263,65,56
113,263,65,56
112,261,65,56
112,259,64,56
111,258,63,55
111,257,63,55
110,255,63,55
110,254,63,54
109,253,63,54
109,251,62,54
108,251,62,53
108,249,62,53
107,248,62,53
155,271,62,54
178,317,61,53
177,314,61,52
176,313,61,51
175,311,60,52
174,309,60,51
173,307,60,51
172,305,59,51
172,304,59,51
171,302,59,51
225,301,59,50
233,299,59,51
231,297,58,50
229,295,58,50
227,295,58,109
227,293,58,107
225,291,59,106
224,289,60,106
224,353,59,105
222,351,58,103
220,348,58,103
220,345,58,103
218,344,57,103
217,341,57,102
216,339,57,102
215,337,57,101
214,335,56,101
213,334,56,100
211,332,56,99
211,330,56,99
209,327,56,99
209,327,55,98
208,325,55,98
207,323,55,97
206,321,54,97
205,319,55,96
204,317,54,96
203,316,54,96
202,314,53,95
201,313,53,94
199,312,53,94
199,310,53,94
198,307,52,93
197,307,52,93
196,305,52,92
195,304,52,92
194,302,51,92
194,300,51,91
193,299,51,91
192,297,51,90
191,295,51,89
191,295,51,89
190,294,50,89
189,292,50,89
188,290,50,88
187,289,50,88
186,287,50,88
185,286,49,88
184,285,49,86
184,284,49,86
183,282,49,86
182,281,49,85
181,280,48,85
180,279,48,85
179,277,48,84
179,275,48,84
178,275,47,83
177,273,47,83
177,272,47,83
176,271,47,83
175,270,46,82
174,268,47,82
174,268,47,81
173,266,46,81
173,265,46,81
172,263,46,81
171,262,46,80
170,262,46,79
169,259,45,79
169,259,45,79
167,258,45,79
167,257,45,79
167,255,45,79
166,254,46,78
165,254,75,78
165,252,75,77
163,251,74,77
163,249,73,77
162,248,73,76
162,248,73,76
161,247,71,76
161,245,71,76
159,244,71,75
159,243,71,89
158,242,71,88
157,240,71,88
157,240,71,103
156,238,70,102
155,237,70,102
155,236,70,101
153,235,69,100
153,233,68,100
152,231,68,99
152,231,67,98
151,230,67,98
150,228,67,97
149,227,67,97
149,227,66,96
147,225,66,96
147,225,66,95
147,224,65,95
146,222,65,95
145,222,65,94
145,220,64,94
143,220,64,93
143,219,63,93
143,217,63,92
142,217,63,92
142,216,63,92
141,214,63,91
140,214,63,91
140,213,62,90
139,211,62,89
138,211,62,89
138,210,61,89
137,209,61,88
137,207,61,88
135,207,61,88
135,207,60,88
135,206,60,87
149,221,60,87
147,219,60,86
147,218,59,86
146,217,59,85
146,216,59,85
145,215,59,84
143,214,58,84
143,213,58,83
143,211,58,83
142,211,58,83
142,210,57,83
141,209,57,82
140,207,56,82
140,206,56,81
139,206,56,81
139,205,56,81
138,204,56,81
137,203,56,80
137,202,55,79
135,201,56,79
135,199,55,79
135,199,55,79
134,199,55,79
134,198,55,78
133,198,54,78
132,196,54,77
132,195,54,77
131,195,53,76
131,194,53,76
131,193,53,76
130,192,52,76
129,192,53,75
129,191,52,75
129,190,52,75
127,189,51,74
127,189,51,74
126,188,51,74
126,187,51,73
126,186,51,73
125,185,51,73
125,184,50,72
124,184,50,71
124,183,50,71
124,183,50,71
123,182,49,71
122,181,49,71
122,180,49,71
121,179,49,71
121,179,49,70
120,178,48,70
120,177,48,70
120,177,48,69
119,176,48,69
119,175,48,69
118,175,48,68
118,174,48,68
117,173,47,67
116,173,47,67
116,172,46,67
116,172,46,67
115,170,46,66
115,170,46,67
114,169,46,66
114,167,46,66
114,167,45,66
113,167,45,65
113,167,45,65
112,166,45,65
112,165,45,65
112,165,46,65
111,164,60,63
110,163,59,63
110,162,59,63
109,162,59,63
109,161,59,63
109,161,58,62
108,159,57,62
108,159,58,62
107,159,57,62
107,158,57,62
107,157,57,62
107,157,57,61
105,156,56,61
105,156,56,61
105,155,56,60
105,155,56,60
103,154,55,60
103,153,55,59
103,153,55,59
103,152,55,59
103,152,54,58
102,151,53,58
102,150,54,58
102,150,53,57
101,148,53,57
101,148,53,57
100,147,52,57
99,147,52,56
99,147,51,56
99,146,52,56
99,146,51,56
98,145,51,56
98,144,51,56
98,143,51,56
97,143,51,56
97,143,51,55
96,142,50,55
96,142,50,54
96,142,50,54
96,141,50,54
95,140,49,54
95,140,49,54
95,140,49,53
94,139,49,53
94,138,49,53
93,137,48,53
93,137,48,53
93,137,48,52
93,135,48,52
92,135,48,52
92,135,48,52
92,135,48,51
91,134,47,51
91,134,47,51
91,134,47,51
90,132,46,51
90,132,46,50
89,131,46,50
89,131,46,50
89,130,45,50
88,130,46,50
88,130,45,49
88,129,46,49
88,129,45,49
87,127,45,48
87,127,45,49
87,127,44,49
86,127,45,48
86,127,45,48
86,126,44,48
85,126,44,48
85,125,44,48
85,125,44,48
84,124,43,47
83,124,43,47
83,124,43,47
83,123,43,47
83,122,43,47
83,122,42,46
82,122,42,46
82,121,42,46
81,121,42,46
82,120,42,46
81,120,41,46
81,120,41,45
81,119,41,45
80,119,41,45
79,118,41,45
79,118,41,44
79,117,39,44
79,117,40,44
79,116,39,44
79,115,39,44
78,116,39,43
78,115,39,44
78,114,39,43
78,114,39,43
78,114,39,43
77,114,39,43
77,113,39,43
76,112,39,43
76,112,38,42
76,112,38,42
76,112,38,42
75,111,38,42
75,111,38,42
75,110,38,41
75,125,38,41
74,123,37,41
74,123,38,41
73,122,37,41
73,122,38,41
73,121,38,39
73,120,38,41
72,120,38,39
71,120,37,39
71,119,37,39
71,119,37,39
71,118,37,39
71,117,36,39
71,117,36,39
71,116,36,39
71,115,36,39
71,115,36,39
70,115,36,39
70,114,35,39
69,114,36,38
70,113,35,38
69,113,35,38
68,112,35,38
68,112,35,38
68,112,35,38
68,111,35,37
68,110,36,37
67,110,35,37
67,110,35,37
67,109,35,36
67,109,35,36
67,109,35,37
66,108,35,36
66,108,34,36
66,107,34,36
65,107,34,36
66,106,34,36
65,106,34,35
65,105,34,35
65,105,33,35
65,105,33,35
63,105,33,35
63,103,33,35
63,103,33,35
63,103,33,35
63,103,33,35
63,103,33,34
63,102,32,34
62,102,32,34
62,102,31,34
62,101,32,34
62,100,31,34
62,101,39,34
61,100,39,33
61,99,39,33
61,99,38,33
60,99,39,33
61,99,39,33
75,99,38,33
78,98,39,33
77,97,38,33
76,97,38,33
76,97,38,32
76,97,38,32
76,96,43,32
76,97,79,32
75,96,93,32
75,96,92,31
74,95,92,31
74,94,91,31
74,95,91,31
73,94,90,31
73,94,90,31
73,94,89,31
72,93,89,31
71,93,89,31
71,93,88,31
71,92,88,31
71,92,88,31
71,91,88,31
71,91,86,30
70,91,87,31
70,91,85,31
70,90,86,31
69,90,85,30
69,89,85,30
69,89,85,30
69,89,83,30
68,89,84,30
68,89,83,29
67,89,83,30
67,88,83,29
67,88,83,30
67,88,82,29
67,87,81,29
66,87,81,29
66,86,81,29
66,86,81,29
65,86,80,29
65,86,80,29
65,85,79,29
65,85,79,29
64,85,79,29
64,85,79,28
63,84,78,28
63,83,78,28
63,83,78,28
63,83,78,28
63,83,78,28
63,83,77,28
63,82,77,28
62,82,76,28
62,82,76,28
62,81,76,27
61,81,75,28
61,81,76,27
61,81,75,27
61,80,75,27
61,81,75,73
60,80,74,71
60,79,73,71
60,79,73,71
60,79,73,71
60,79,73,71
59,78,73,70
59,78,71,70
59,78,71,70
59,78,71,69
59,78,71,69
58,78,71,68
58,78,71,68
58,77,71,68
57,76,71,67
57,76,70,67
57,76,70,67
57,76,70,67
56,75,70,67
57,76,69,66
56,75,69,66
56,75,68,66
56,75,68,65
56,75,67,65
56,74,68,64
56,74,67,64
56,74,67,64
55,73,67,64
55,73,67,63
55,73,67,63
54,73,66,63
55,73,66,63
54,71,66,63
54,71,65,62
54,71,65,62
53,71,65,62
53,71,64,62
53,71,64,62
53,71,65,61
52,71,64,61
53,71,63,61
52,70,63,60
52,70,63,60
52,69,63,60
52,70,63,59
51,69,63,60
51,69,62,59
51,69,62,59
51,69,62,59
51,69,62,59
51,68,61,58
50,68,61,58
50,67,61,57
50,67,61,57
50,67,60,57
50,67,60,57
50,67,60,57
49,67,60,57
49,66,60,56
49,66,60,56
49,65,59,56
48,66,59,56
49,66,58,56
48,65,59,56
49,65,58,55
48,65,58,55
48,65,57,54
48,63,57,55
48,63,57,55
48,63,57,54
48,63,57,54
47,63,57,53
47,63,57,53
47,63,56,53
46,63,56,53
46,62,56,52
47,63,56,53
46,62,56,52
46,62,56,52
46,62,55,52
46,61,55,51
46,61,55,51
45,61,54,51
45,61,54,51
45,61,54,50
45,60,54,50
45,60,54,50
45,60,54,50
45,60,53,49
44,60,53,76
44,60,53,75
44,59,53,74
44,59,52,73
44,59,52,73
44,59,51,73
44,59,52,71
43,58,51,71
43,58,51,71
43,58,51,71
43,57,51,71
43,57,51,71
43,57,50,71
43,57,50,70
42,57,50,70
42,57,50,70
42,56,50,69
42,56,50,69
42,56,50,69
41,56,49,69
42,56,49,68
41,56,49,67
41,56,49,67
41,56,49,67
41,55,48,67
41,55,48,67
41,55,48,67
39,54,48,66
39,55,48,66
39,54,48,66
39,54,47,65
39,54,48,65
39,54,47,65
39,53,47,65
39,53,47,64
39,53,46,64
39,53,46,63
39,53,46,63
38,53,46,63
38,53,46,63
39,52,46,63
38,52,46,63
38,51,45,62
38,51,45,62
38,51,44,62
38,51,45,61
38,51,44,61
38,51,45,61
37,51,45,60
38,51,44,60
37,51,44,60
37,51,44,60
37,50,44,60
37,50,43,59
36,50,43,59
37,50,43,59
36,50,43,59
36,49,43,59
36,49,43,58
36,49,43,58
36,49,42,57
36,49,42,57
35,48,42,57
35,48,42,57
35,48,42,57
35,48,41,57
35,48,41,57
35,48,41,56
35,48,41,56
35,47,41,56
35,47,41,56
35,47,39,56
35,47,39,55
34,47,39,55
34,46,39,55
34,46,39,54
34,46,39,54
34,46,39,54
34,46,39,54
34,46,39,53
33,46,39,53
33,46,39,53
33,45,39,53
33,45,39,53
33,45,38,52
33,45,39,52
33,45,38,52
32,44,38,51
33,44,38,51
33,44,38,51
32,44,38,77
32,44,38,83
32,44,38,82
31,44,38,81
31,44,37,81
31,43,37,81
31,43,37,80
31,43,37,79
31,43,37,79
31,43,37,79
31,43,36,79
31,42,37,79
31,42,36,78
31,43,36,78
31,42,36,78
31,42,35,77
31,42,35,77
31,42,35,77
31,41,35,77
31,41,35,76
30,41,35,76
30,41,35,75
30,41,35,75
30,41,35,75
30,40,35,74
30,41,35,74
30,41,35,74
30,39,34,73
30,40,34,73
30,39,34,73
29,39,34,71
29,39,34,71
29,39,33,71
29,39,33,71
29,39,33,71
29,39,33,71
29,39,33,71
29,39,33,71
28,39,33,70
28,39,32,70
29,39,32,70
28,38,32,69
28,38,32,69
28,38,32,69
28,39,31,68
28,38,31,68
28,38,31,67
28,38,31,67
28,38,31,67
28,37,31,67
27,37,31,67
27,37,31,66
28,37,31,66
27,37,31,66
27,37,31,66
27,36,31,65
27,36,31,65
27,37,30,65
27,36,31,65
27,36,30,64
26,36,30,64
26,36,30,63
26,36,30,63
26,35,30,63
26,35,30,63
26,35,30,63
26,35,29,62
26,35,30,63
25,35,29,62
25,35,29,62
25,35,29,61
25,35,29,62
25,35,29,61
25,35,29,61
25,34,28,61
25,34,28,60
25,34,29,60
25,34,28,60
25,34,29,60
25,34,28,59
25,34,28,59
25,33,28,59
25,34,28,59
24,33,28,58
24,33,27,58
24,33,28,58
24,33,28,57
24,33,28,58
24,33,28,58
24,33,27,57
24,33,27,63
24,33,27,63
24,32,27,63
24,32,27,63
24,31,27,62
24,32,27,62
24,32,27,62
23,31,27,61
23,31,26,61
23,31,26,61
23,31,26,61
24,31,26,61
23,31,25,60
23,31,26,60
23,31,26,60
23,31,26,60
23,31,25,59
22,31,25,59
22,31,25,59
22,30,25,59
23,30,25,59
22,30,25,58
22,30,25,58
22,30,25,58
22,30,25,57
22,30,25,57
21,30,25,57
22,30,24,57
22,30,24,57
21,30,24,56
22,29,24,56
21,30,24,56
21,29,24,56
21,29,24,56
21,29,24,55
21,29,24,55
21,29,24,55
21,29,24,55
21,29,24,54
21,28,24,54
21,29,24,54
21,28,24,54
20,28,24,54
20,28,23,53
21,28,23,53
20,28,23,53
20,28,23,53
20,28,23,52
20,28,23,52
20,28,23,52
20,27,23,52
20,27,22,51
19,27,22,51
19,27,22,51
19,27,22,51
20,27,22,51
19,27,22,50
19,27,22,50
19,26,22,50
19,27,22,50
19,27,22,50
19,27,22,49
19,27,22,49
19,26,22,49
19,27,22,49
19,26,22,49
19,26,21,48
19,26,22,48
19,25,21,48
19,26,21,48
19,26,21,48
18,25,21,48
18,25,22,48
18,25,21,48
18,25,21,47
18,25,21,47
18,25,21,47
18,25,20,47
18,25,21,46
18,25,21,46
18,25,21,46
18,25,21,46
18,25,20,46
17,24,20,45
18,25,20,45
17,24,20,45
18,24,20,45
17,24,20,45
18,24,19,45
17,24,20,44
17,24,19,44
18,24,19,44
17,24,20,44
17,24,19,44
17,24,20,44
17,24,19,43
16,24,19,43
17,24,19,43
17,24,19,43
17,23,20,43
17,24,19,42
17,24,19,42
17,24,19,42
16,24,19,42
17,24,19,42
17,23,19,42
16,23,19,41
16,23,19,41
16,23,19,41
16,23,19,41
16,23,19,41
16,22,19,41
16,22,19,41
16,22,19,41
15,22,19,39
16,22,18,39
16,22,18,39
16,22,18,39
16,22,18,39
15,22,18,39
15,21,18,39
15,22,18,39
15,22,50,39
15,22,56,39
15,22,55,39
15,21,55,39
15,22,55,39
15,21,55,39
15,21,54,39
15,21,54,38
15,21,54,38
15,21,54,38
15,21,54,38
15,21,53,38
15,21,53,38
15,21,53,38
15,20,52,37
15,20,52,37
15,20,52,37
15,20,51,37
15,20,51,37
15,20,51,37
14,20,51,36
14,20,51,36
15,20,50,36
14,20,50,36
14,20,50,36
14,20,50,35
15,19,50,36
15,20,49,35
14,19,49,35
14,19,49,35
14,19,49,35
14,20,49,35
14,19,48,35
14,19,48,35
14,19,48,35
14,19,48,34
14,19,48,35
14,19,47,34
14,19,48,34
14,19,47,34
14,19,47,34
14,19,47,34
14,18,47,34
14,18,46,34
14,19,46,33
14,18,46,33
13,19,46,33
14,18,46,33
13,18,46,33
13,18,45,33
13,18,46,33
13,18,45,32
13,18,45,32
13,18,45,32
13,18,44,32
13,18,44,32
13,18,44,32
13,18,44,32
13,18,44,31
13,17,44,31
13,18,43,31
13,17,43,31
13,18,44,31
13,18,43,31
13,17,43,31
13,17,43,31
13,17,42,31
13,17,42,30
13,17,42,30
13,17,41,30
12,17,41,30
13,17,41,30
12,17,41,30
13,17,41,30
12,17,41,30
13,16,41,30
12,17,41,30
12,17,41,30
12,16,40,30
12,17,41,31
12,16,41,30
12,16,39,30
12,16,41,30
12,16,39,30
12,16,39,30
12,16,39,30
12,16,39,30
12,16,39,30
12,16,39,29
12,16,39,29
12,16,39,29
12,16,39,29
12,16,39,30
12,16,60,30
12,16,59,30
12,15,58,30
12,16,58,30
12,15,58,30
15,15,58,29
19,15,57,29
19,15,57,29
19,15,57,29
18,15,57,29
18,15,56,28
19,15,56,28
18,15,56,29
18,15,56,28
18,15,56,28
19,16,95,29
18,15,94,28
18,15,93,28
18,15,93,28
18,15,93,28
17,15,92,28
18,15,92,28
17,15,91,27
18,15,91,28
17,15,90,27
17,15,90,28
17,14,90,28
17,15,89,27
17,14,89,27
17,15,88,27
17,14,88,27
17,15,88,27
17,14,88,27
16,15,87,26
17,15,87,26
17,14,86,26
17,14,86,27
16,14,86,26
17,14,86,26
16,14,85,26
16,14,85,26
16,14,84,25
16,14,83,25
16,14,83,26
16,14,83,25
16,14,83,25
16,14,82,25
16,14,82,25
16,14,82,25
15,14,81,25
15,14,81,25
16,13,81,25
15,14,81,36
15,14,80,77
15,14,79,76
15,13,79,76
15,13,79,76
15,13,79,75
15,14,79,75
15,13,78,75
15,13,78,74
15,13,78,74
15,13,78,73
15,13,77,73
15,13,77,73
15,14,77,73
15,13,76,71
15,13,76,71
15,13,75,71
15,13,76,71
15,13,75,71
14,13,75,71
14,13,74,71
14,13,75,70
14,13,74,70
15,13,73,70
14,13,73,70
14,13,73,69
14,13,73,69
14,13,71,68
14,12,73,68
14,13,71,67
14,13,71,67
14,13,71,67
14,13,71,67
14,12,71,67
14,13,70,66
14,12,71,66
14,12,70,66
14,12,70,66
14,12,69,65
13,12,69,65
13,12,69,65
13,12,69,64
14,12,68,63
13,12,68,63
13,12,67,63
13,12,67,63
13,12,67,63
13,12,67,63
13,12,67,63
13,12,67,62
13,12,67,62
13,12,66,62
13,12,66,62
13,12,66,61
13,12,65,61
13,12,65,61
13,12,64,61
13,12,65,60
13,12,64,60
13,12,64,60
13,12,63,60
12,12,63,60
12,12,63,59
13,12,63,59
13,12,63,59
12,12,63,58
13,12,62,58
12,12,62,58
12,11,62,57
12,12,62,57
12,12,61,57
12,12,61,57
12,11,61,57
12,11,61,57
12,12,61,56
12,11,60,56
12,11,60,56
12,11,60,56
12,12,60,56
12,11,60,56
12,11,59,55
12,11,59,55
12,11,59,55
12,11,58,55
12,11,58,54
12,11,58,54
12,11,58,54
12,11,57,54
11,12,57,53
12,11,57,53
12,11,57,94
12,11,57,92
12,11,57,91
12,11,56,91
12,11,56,90
11,11,56,90
11,11,56,90
11,11,56,89
11,11,55,89
11,10,55,89
11,11,55,88
11,11,55,88
11,11,55,88
11,11,54,87
11,11,54,87
11,11,54,86
11,11,54,86
11,11,53,85
11,10,54,85
11,11,53,85
11,11,53,85
11,11,53,84
11,10,52,83
11,10,52,83
11,10,52,83
11,10,52,83
11,11,52,83
11,10,51,82
11,10,51,81
10,10,51,81
11,10,51,81
11,11,51,80
11,11,50,80
11,10,50,80
11,10,50,79
11,10,50,79
11,10,50,79
10,10,50,78
10,10,49,79
11,10,49,78
11,10,49,78
10,10,49,77
11,10,49,77
10,10,49,76
10,10,49,76
10,10,48,76
11,10,48,76
10,10,48,76
10,10,48,75
10,10,48,75
10,10,47,75
10,10,47,75
10,10,47,74
10,10,47,74
10,9,46,73
10,10,46,73
10,9,46,73
10,10,46,71
10,10,46,71
10,10,46,71
10,10,46,71
10,10,46,71
10,10,45,71
10,10,45,71
10,10,45,71
10,9,45,70
10,10,45,70
10,9,45,70
10,10,45,69
9,9,44,69
9,10,44,69
9,10,44,68
10,9,44,69
9,9,43,67
10,9,43,67
9,9,43,67
9,9,43,67
9,9,42,66
9,9,43,66
9,9,42,66
9,9,42,66
9,9,42,66
9,9,42,65
9,9,42,65
9,9,41,65
9,9,41,65
9,9,41,64
9,9,41,64
9,9,41,63
9,9,41,64
9,8,41,63
9,7,41,63
9,8,39,86
9,9,41,85
9,9,39,84
8,9,39,84
9,8,40,84
9,9,39,83
9,9,39,83
7,9,39,83
9,9,39,83
9,7,39,82
9,9,39,82
9,9,39,81
9,9,39,81
9,9,39,80
9,8,39,80
9,8,38,79
10,9,39,80
9,9,38,79
9,7,38,79
9,9,38,79
9,8,38,79
9,9,38,78
9,7,38,78
9,9,37,78
9,7,37,78
9,9,37,77
9,8,37,76
9,7,37,77
9,9,37,76
9,9,36,76
9,7,37,76
9,7,36,76
9,9,36,75
9,9,35,75
9,9,36,75
9,7,36,75
9,8,35,74
9,7,35,74
9,7,35,73
9,7,35,73
9,7,35,73
9,7,35,73
9,8,35,73
9,7,35,71
9,8,35,71
9,7,35,71
9,7,34,71
9,7,34,71
9,8,37,71
9,7,39,71
9,8,39,71
9,7,39,71
9,7,39,70
9,7,39,70
9,7,39,69
9,7,39,70
9,7,39,69
9,8,39,69
9,7,38,68
9,7,38,68
9,7,39,68
9,7,38,67
9,7,38,67
9,7,38,67
9,7,38,67
9,7,37,67
9,7,37,67
9,7,38,66
9,7,37,66
9,7,37,66
9,7,37,66
9,8,37,65
9,7,37,65
9,8,37,65
9,7,36,65
9,7,36,65
9,7,36,64
9,7,36,63
9,7,36,63
9,7,36,63
8,7,35,63
9,7,35,63
9,7,35,63
8,7,35,62
8,7,35,62
9,7,35,62
7,7,35,62
7,7,35,62
9,7,34,61
9,7,34,61
7,7,34,61
8,7,35,61
8,7,34,60
9,7,34,61
8,7,34,61
9,7,34,60
8,7,33,60
8,7,33,60
8,7,33,59
8,7,33,59
8,7,33,59
9,7,33,59
8,7,33,59
9,7,33,59
7,7,32,58
8,7,32,58
7,7,32,57
7,7,33,57
7,7,32,57
7,7,32,57
7,7,31,57
7,7,31,57
7,7,32,56
7,7,31,56
8,7,31,56
8,7,31,56
7,7,31,56
9,7,31,56
