94,874,216,152
93,864,216,152
103,902,214,151
103,910,213,150
103,915,211,149
102,918,211,148
101,919,209,147
101,920,208,147
99,915,207,146
99,900,206,145
99,883,205,145
98,871,204,143
98,865,217,145
120,903,235,143
119,911,233,143
118,915,231,142
118,918,231,142
117,920,229,140
115,919,228,140
115,914,227,140
115,892,225,139
114,880,224,138
113,869,223,137
115,892,275,145
128,906,272,144
127,913,271,143
126,916,269,143
126,919,268,142
125,920,266,141
124,920,263,140
123,909,263,140
123,888,261,139
122,879,259,138
121,869,258,140
126,899,261,145
125,910,259,143
124,913,257,143
124,917,255,142
123,919,254,141
122,920,253,140
121,919,252,140
121,905,250,139
120,886,248,139
120,875,248,137
119,867,247,138
127,903,245,137
126,911,243,137
125,915,242,135
125,918,241,135
124,920,240,134
123,920,238,134
122,914,237,133
122,891,236,132
121,882,235,131
121,871,233,131
124,887,234,131
143,907,233,130
142,911,231,129
141,916,231,129
140,919,230,127
139,920,228,127
139,920,227,127
137,914,226,126
137,891,225,125
135,879,224,125
135,871,222,125
153,896,283,125
152,908,280,124
150,914,279,123
149,917,277,123
148,919,275,122
147,920,273,121
146,918,272,121
145,910,271,120
144,888,269,120
143,876,268,120
143,866,266,131
156,901,263,130
155,910,263,129
154,915,261,127
153,918,260,127
152,920,259,126
151,920,257,126
151,917,255,125
149,898,254,124
149,882,253,124
148,874,251,124
147,871,250,123
153,906,249,122
153,913,248,121
152,915,246,121
151,918,244,120
150,920,243,120
149,920,242,119
148,914,240,118
147,892,239,118
146,879,238,117
146,868,237,116
146,892,236,115
145,908,235,115
143,913,233,115
143,917,231,114
142,919,231,113
141,920,229,113
141,920,228,112
140,910,227,112
139,888,226,112
138,879,225,111
138,869,224,111
137,902,251,110
137,911,249,110
135,915,247,109
135,918,246,109
135,920,245,108
134,920,243,108
133,918,241,107
133,903,240,107
131,885,239,106
131,873,237,105
130,867,245,172
141,905,249,169
140,911,248,167
139,916,247,167
138,918,245,166
137,920,243,165
135,920,242,164
135,915,241,163
135,900,240,162
135,883,238,161
134,871,237,160
141,896,257,159
140,907,255,159
139,913,253,158
138,916,252,157
137,919,250,156
135,920,249,155
135,920,248,155
135,911,246,153
134,889,244,152
133,877,243,152
132,869,242,152
144,901,240,150
143,910,239,149
142,915,238,148
142,917,236,147
141,920,235,147
140,920,234,146
139,916,231,145
138,903,231,145
138,885,230,143
137,873,228,143
135,871,227,143
135,903,226,142
135,911,225,141
134,915,224,140
134,919,223,140
132,920,222,139
132,920,220,138
131,915,219,137
130,892,218,137
130,883,217,135
129,871,216,135
129,891,215,139
128,908,214,137
127,913,213,135
127,916,211,135
127,919,211,135
125,920,209,134
125,920,208,134
124,913,207,133
124,891,206,132
123,879,206,131
122,868,204,131
126,898,204,130
125,909,202,130
124,914,201,129
124,918,199,127
123,920,199,127
122,920,198,127
121,918,197,126
121,903,197,126
120,888,195,125
120,876,195,124
119,866,216,146
119,905,224,145
118,910,223,143
117,915,221,143
116,918,220,142
115,920,219,141
115,920,217,140
115,916,216,140
114,897,215,139
114,882,214,138
113,871,213,137
112,880,211,137
112,907,210,135
112,913,209,135
111,917,207,134
110,919,207,133
110,920,206,133
109,920,205,132
109,910,204,131
109,892,203,131
108,880,201,130
107,869,199,129
109,901,199,128
108,909,198,127
108,914,197,127
107,917,196,127
106,920,195,126
106,920,194,125
105,919,193,125
105,907,192,124
103,887,192,123
103,878,190,123
103,867,219,123
117,903,252,121
116,911,250,121
115,915,248,120
115,918,247,120
114,920,245,119
114,920,243,119
113,916,243,118
113,903,241,118
112,884,240,117
111,873,238,116
111,891,237,115
123,906,236,115
123,912,235,115
121,916,233,114
121,919,231,113
120,920,231,113
120,920,229,112
119,910,228,112
118,888,227,111
117,880,225,111
117,869,224,110
117,898,227,117
115,910,226,116
115,913,225,115
115,917,224,115
114,920,222,114
113,920,221,114
112,920,220,113
112,909,219,112
111,888,217,112
111,876,216,111
110,868,216,114
118,902,214,113
117,911,213,113
116,915,212,112
115,918,211,111
115,920,209,111
114,920,209,110
113,916,207,109
113,897,206,109
112,885,205,109
112,873,204,108
111,879,204,115
111,907,202,115
111,911,201,114
110,915,199,113
109,918,199,113
108,920,198,112
108,920,197,111
108,914,195,111
107,891,195,110
106,879,194,110
105,871,193,132
106,894,226,135
105,908,224,135
103,914,223,134
103,917,222,133
103,919,220,132
102,920,219,131
102,919,217,130
101,911,216,130
101,889,216,129
100,877,214,128
99,867,213,127
105,899,262,127
103,910,259,126
103,915,257,126
103,918,255,125
103,920,254,124
102,920,253,124
101,918,252,123
101,901,251,123
100,887,249,121
99,875,248,121
99,865,246,121
105,903,245,120
103,911,243,120
103,915,242,119
103,918,241,118
102,920,240,117
102,920,238,117
101,915,237,116
101,894,236,115
100,884,234,115
99,872,233,114
99,888,231,114
108,905,231,114
107,911,230,113
106,916,228,112
105,919,227,112
105,920,226,111
103,920,225,111
103,914,223,110
103,891,222,109
103,882,221,109
102,871,220,108
102,896,247,109
101,909,245,108
101,913,243,108
100,917,242,107
99,919,241,106
99,920,239,106
99,920,238,105
98,911,237,105
98,892,235,103
97,880,234,103
96,871,231,103
103,896,231,103
103,909,231,103
103,914,229,102
102,917,227,102
101,920,226,101
101,920,225,101
100,919,224,100
99,911,223,99
99,889,222,99
99,880,221,99
98,869,220,99
114,894,219,101
113,908,217,100
112,914,216,99
112,917,215,99
110,919,214,99
110,920,213,98
109,920,211,97
109,911,211,97
108,893,210,97
108,880,209,96
107,872,207,96
107,893,207,101
106,908,206,100
105,913,205,99
105,917,204,99
103,919,203,98
103,920,201,98
103,920,201,97
102,917,199,97
102,898,199,96
101,883,198,96
101,875,197,96
101,891,214,96
108,905,211,95
108,912,210,94
107,915,209,94
107,918,207,93
105,920,207,93
105,920,206,93
104,914,205,92
103,898,204,92
103,883,203,92
103,871,201,91
103,865,207,109
115,905,207,108
114,911,207,107
114,915,206,107
113,918,204,106
112,920,203,105
112,920,202,105
111,916,201,103
110,895,199,103
110,881,199,103
109,871,198,103
109,896,202,102
108,907,201,102
108,913,199,101
107,917,199,100
107,919,197,99
106,920,196,99
105,920,195,99
105,914,195,98
103,891,193,98
103,882,193,97
103,871,192,97
103,895,207,121
102,907,206,120
102,913,205,120
101,917,204,119
100,919,203,118
99,920,201,118
99,920,199,117
99,915,199,116
98,892,198,115
98,880,197,115
97,871,196,114
99,894,218,114
98,906,216,113
98,913,215,113
97,916,214,112
97,919,212,112
96,920,211,111
96,920,210,111
96,916,209,110
95,895,207,109
94,884,207,109
94,873,206,108
93,866,205,108
100,906,204,108
99,912,203,107
99,915,201,107
98,918,201,106
98,920,199,105
97,920,198,105
97,915,198,103
96,902,196,103
96,884,195,103
95,876,194,103
95,865,193,103
103,905,192,102
102,911,192,101
102,915,190,101
101,918,189,100
100,920,189,99
99,920,187,99
99,915,187,99
99,900,186,98
98,886,185,97
97,875,184,97
97,867,184,99
108,902,208,99
108,909,207,98
107,914,206,97
106,917,205,96
106,919,204,96
105,920,202,96
105,920,201,96
103,908,199,95
103,887,199,94
103,878,198,94
102,868,197,103
103,897,196,103
103,909,195,102
103,914,194,102
102,917,193,101
102,919,192,100
101,920,191,100
100,919,190,99
99,911,189,99
99,889,188,98
99,880,187,98
99,869,186,111
105,895,211,113
105,909,209,112
103,914,207,111
103,917,207,111
103,919,206,110
102,920,204,110
102,919,203,109
101,907,202,108
101,886,201,108
99,878,199,107
99,867,199,107
112,900,198,106
112,910,197,105
111,915,195,105
110,918,195,103
109,920,194,103
108,920,193,103
108,918,192,103
108,900,191,102
107,883,190,102
106,875,188,101
106,865,188,101
110,905,187,100
109,912,185,99
109,915,185,99
108,918,184,98
108,920,183,98
107,920,182,97
106,917,181,97
106,899,180,97
105,883,179,96
103,874,179,96
103,865,201,124
105,905,229,122
105,911,227,121
103,915,226,121
103,918,225,120
102,920,224,120
102,920,222,119
101,916,220,118
101,895,220,117
100,881,219,116
99,873,217,116
99,886,254,120
101,907,255,119
100,911,253,118
99,915,252,117
99,919,250,116
99,920,249,115
98,920,248,115
98,916,246,115
97,896,244,114
97,884,243,113
96,873,242,113
96,882,241,112
111,905,239,112
110,911,238,111
109,915,236,110
109,919,236,110
108,920,234,109
108,920,233,108
107,914,231,108
106,892,231,107
105,883,229,107
105,871,227,107
114,894,227,108
114,909,225,107
113,914,224,107
113,917,223,106
112,919,222,105
111,920,221,105
111,918,220,103
110,911,219,103
110,889,217,103
109,877,216,103
108,867,216,117
115,900,215,115
114,910,213,115
113,915,212,114
112,918,211,113
112,920,210,113
111,920,209,112
110,917,207,112
110,898,207,111
109,886,206,110
109,875,205,110
108,865,236,124
108,906,233,123
107,911,231,122
107,915,231,121
106,918,229,121
105,920,228,120
105,920,227,120
103,916,225,119
103,895,224,118
103,881,223,117
102,871,222,116
120,889,227,116
120,908,225,115
119,913,224,115
118,917,223,114
117,919,222,113
117,920,220,113
115,920,220,112
115,909,218,112
115,891,217,111
114,879,216,111
113,868,215,113
113,902,214,112
112,909,213,112
112,914,211,111
111,917,210,110
110,920,209,110
110,920,208,109
109,918,207,109
108,903,206,108
108,885,205,108
107,876,204,107
107,866,224,127
107,905,231,126
106,911,230,125
105,916,228,124
105,918,227,123
103,920,226,123
103,920,225,122
103,913,224,121
103,895,222,121
102,882,221,120
101,871,220,119
102,894,219,134
108,907,218,133
108,913,217,131
107,917,216,131
106,919,214,130
105,920,213,129
105,920,211,129
103,909,211,128
103,888,209,127
103,879,208,127
102,868,207,126
107,899,214,125
107,910,213,124
106,914,211,124
105,917,211,123
105,919,209,123
103,920,207,122
103,919,207,121
103,906,206,121
102,886,205,120
102,875,204,119
101,867,203,120
102,903,202,120
101,911,199,119
100,915,199,118
100,918,199,117
99,920,197,117
99,920,197,116
98,918,195,115
98,902,195,115
97,887,194,114
97,876,192,114
96,865,192,114
112,903,191,113
112,911,190,112
111,915,189,112
110,918,188,111
109,920,187,110
109,920,186,110
108,915,185,109
107,894,184,109
107,884,184,108
106,873,182,108
105,883,182,108
105,907,181,107
103,913,179,106
103,915,179,106
103,919,177,105
103,920,177,103
102,919,176,103
101,912,176,103
101,890,174,103
100,878,174,102
99,870,173,108
102,895,217,113
101,908,216,112
100,914,215,112
99,917,213,112
99,919,212,110
98,920,211,110
98,919,210,110
97,909,209,109
97,891,207,108
96,879,207,108
96,871,206,107
96,893,227,120
95,908,226,119
95,913,225,118
94,917,223,117
94,919,222,117
94,920,221,116
93,920,220,115
92,914,218,115
92,891,217,114
92,882,216,114
91,871,216,113
90,864,245,114
93,906,243,114
92,912,241,113
92,915,240,113
92,918,239,112
91,920,237,111
91,920,236,110
90,911,235,110
89,893,233,110
89,881,231,109
89,872,231,108
89,863,230,112
89,903,229,111
88,911,227,110
88,915,226,110
88,917,225,109
88,920,224,109
87,920,222,108
87,917,221,108
86,898,220,107
86,885,219,107
85,874,218,105
84,866,217,107
85,902,216,106
83,911,215,106
83,915,213,105
83,918,212,105
83,920,211,103
83,920,210,103
82,918,209,103
82,905,207,103
81,886,207,102
81,877,206,102
80,867,205,140
81,896,287,141
80,909,285,140
79,914,283,139
79,917,281,139
79,919,280,137
79,920,278,137
79,919,276,135
78,907,275,135
78,889,273,135
77,878,271,134
77,870,270,133
77,894,269,143
76,907,268,143
76,913,266,142
76,917,263,141
75,919,263,141
75,920,262,140
74,920,260,139
74,911,259,138
73,889,257,137
73,881,255,137
73,870,255,135
73,866,253,135
73,906,252,135
71,912,251,134
71,915,249,133
71,918,248,133
71,920,247,131
71,920,245,131
70,915,244,131
70,894,243,130
70,881,242,129
69,872,241,129
69,863,240,127
68,903,238,127
69,911,237,127
67,915,236,126
67,918,234,125
67,920,233,125
67,920,231,124
67,915,231,123
66,894,230,123
66,883,229,122
65,872,227,121
65,865,227,121
65,902,225,120
64,909,224,120
64,914,223,119
63,918,222,119
63,919,221,118
63,920,220,117
63,916,219,117
63,899,217,116
62,883,217,115
62,875,216,115
62,864,215,132
61,894,214,132
61,909,212,131
61,914,211,131
61,917,211,130
60,919,210,129
60,920,208,128
60,916,207,127
59,904,207,127
59,885,206,126
59,874,205,126
58,866,204,125
58,891,243,134
58,906,241,133
58,913,240,133
57,916,239,132
57,919,237,131
57,919,236,130
56,917,235,130
56,901,233,129
56,884,231,128
56,876,231,127
56,865,230,127
55,857,228,132
55,906,227,131
55,911,226,130
54,915,225,130
54,918,224,129
53,919,222,128
53,917,221,127
53,907,220,127
53,887,219,126
53,875,218,125
53,867,217,125
52,857,216,135
52,902,215,135
52,911,213,134
51,915,212,133
51,917,211,133
51,918,210,131
50,915,209,131
50,899,207,130
50,886,207,129
50,875,206,129
49,864,205,128
49,857,204,127
49,901,209,127
49,909,207,127
49,914,206,127
48,917,205,126
48,919,204,125
48,918,203,124
48,911,202,124
48,890,201,123
47,878,199,123
47,870,199,122
47,860,198,123
46,891,209,123
47,908,208,123
46,913,207,121
46,916,206,121
45,918,205,120
45,918,204,120
45,911,203,120
45,894,201,118
45,881,199,118
44,870,199,117
44,862,198,120
44,898,198,151
44,908,196,150
44,913,195,149
43,917,195,148
43,919,193,147
43,920,193,146
43,920,192,146
43,914,191,145
42,897,190,143
42,882,189,143
42,871,188,143
42,886,221,167
64,908,220,165
71,911,218,164
71,915,216,163
71,918,216,162
70,920,214,161
70,921,213,160
69,921,211,159
69,917,211,159
124,897,210,158
123,885,208,157
122,874,221,157
121,907,219,156
120,913,218,155
119,915,217,154
125,916,216,153
125,906,214,152
124,888,213,152
123,875,212,151
122,867,211,150
121,857,209,149
121,847,208,149
120,892,207,153
120,907,206,152
132,913,205,152
203,916,204,150
199,915,203,149
199,909,201,148
198,889,199,147
196,878,199,147
195,867,198,146
219,860,198,146
326,849,196,145
322,903,195,143
319,911,195,143
317,915,193,142
315,918,192,142
313,920,191,141
311,921,190,140
309,921,189,139
307,917,188,139
305,895,187,137
303,881,187,137
302,873,185,135
300,863,185,135
297,852,184,135
295,843,183,134
295,833,182,134
293,826,181,133
291,817,180,132
289,807,179,131
287,799,178,131
286,793,178,130
284,785,177,130
283,880,244,176
281,907,242,174
280,911,240,173
278,916,239,172
276,919,238,171
275,919,236,169
273,916,235,169
272,897,233,167
271,882,231,167
269,871,231,166
268,864,230,165
267,854,228,164
265,844,227,163
263,834,226,162
262,827,224,161
261,818,223,161
259,808,222,159
258,799,221,159
255,793,220,158
255,785,219,157
254,777,217,156
252,814,216,157
251,903,215,156
249,910,214,155
249,915,213,154
247,916,211,153
246,911,210,152
245,897,209,152
243,883,207,151
242,871,207,150
241,861,206,149
240,854,205,148
239,844,205,211
237,834,204,208
236,825,203,207
235,818,201,206
233,808,199,204
231,799,199,204
231,792,198,202
230,785,197,201
229,775,196,199
227,768,195,199
226,760,195,198
225,755,203,196
224,747,201,195
223,739,199,194
222,732,199,193
220,728,198,192
220,719,197,191
219,713,195,190
217,706,195,189
216,700,194,188
216,695,192,187
215,697,192,186
213,871,191,185
212,859,190,184
211,851,189,184
210,841,188,182
209,831,187,181
207,821,186,180
207,814,185,179
206,805,184,178
205,797,184,177
204,788,182,176
203,782,219,180
203,774,216,179
201,765,215,177
199,757,214,177
199,751,213,176
198,743,211,175
197,736,210,174
196,728,209,173
195,723,207,172
194,716,207,171
193,708,206,171
193,861,221,169
192,903,219,167
191,911,217,167
190,911,216,167
189,903,216,166
188,887,214,165
187,878,212,164
187,867,211,163
185,856,211,163
184,846,209,162
184,839,208,163
183,900,223,162
182,910,221,162
181,915,220,161
180,917,219,159
179,918,217,159
178,916,216,158
177,901,215,157
176,888,214,156
176,876,212,156
175,865,211,155
174,882,211,182
173,905,209,181
172,911,209,179
172,915,207,179
170,918,206,178
169,920,205,176
167,920,204,176
167,917,203,175
167,897,201,174
166,885,199,173
166,874,199,173
165,900,199,192
164,910,198,190
163,914,196,189
163,915,195,188
162,907,194,187
161,888,194,186
160,876,192,185
159,868,192,184
159,858,190,183
158,847,189,182
157,839,188,181
156,898,192,180
156,909,190,179
155,915,189,178
155,917,188,177
153,918,187,176
153,915,186,175
152,897,185,174
152,882,184,173
151,874,183,172
150,864,182,171
149,856,181,170
148,906,180,169
148,911,179,167
147,915,178,167
147,918,177,167
146,918,177,166
148,911,176,165
147,893,175,164
147,881,174,163
146,870,173,162
145,860,173,167
144,878,172,175
143,907,171,173
143,913,170,172
142,916,169,171
142,917,167,170
141,914,167,169
140,895,167,167
140,882,166,167
139,873,165,167
139,863,164,166
138,853,167,165
137,902,238,163
135,910,236,163
135,914,234,162
135,917,231,161
135,920,231,160
134,920,230,159
134,916,229,159
133,897,227,158
131,882,226,157
131,874,225,156
131,864,224,156
130,905,222,155
130,911,221,153
129,916,220,153
128,918,219,152
127,920,217,152
127,917,216,151
127,903,215,150
126,888,214,149
126,877,212,148
125,866,211,148
124,893,279,157
124,907,276,157
124,913,274,156
123,916,273,155
122,918,271,153
121,918,269,153
121,910,267,152
120,889,265,152
120,877,263,150
120,869,263,150
119,859,262,150
118,899,260,159
118,910,259,159
117,914,257,158
117,917,255,157
115,918,254,156
115,915,253,155
115,906,251,154
114,887,250,153
114,875,248,153
113,864,248,152
113,876,270,206
112,903,321,204
112,911,318,203
111,915,316,201
111,918,314,199
110,917,312,199
110,909,310,197
109,889,309,196
109,877,307,195
109,869,304,194
108,858,303,193
107,887,302,216
107,908,300,215
106,911,298,214
105,916,295,211
105,918,294,211
105,918,293,209
103,915,291,207
103,895,289,207
103,881,287,206
103,870,286,205
103,863,285,204
102,896,283,203
101,909,281,201
101,914,280,199
100,917,278,199
100,917,277,198
99,913,275,197
99,898,274,196
99,883,272,195
98,871,271,194
98,864,270,193
97,854,269,192
97,894,267,193
97,909,265,192
96,914,263,191
96,916,263,190
95,918,262,189
95,917,260,188
94,907,259,187
94,889,258,185
94,878,255,185
93,867,255,184
93,859,254,184
92,883,253,182
92,905,251,181
92,910,250,180
91,905,249,179
91,893,248,179
90,880,247,178
90,871,245,177
89,862,243,176
89,851,243,175
89,844,241,174
88,835,241,176
88,883,295,231
88,907,293,228
88,911,291,227
87,916,290,225
86,919,288,224
86,920,287,223
86,918,285,222
85,910,284,220
85,889,281,220
84,877,280,218
84,869,279,217
83,864,287,228
83,903,293,227
83,911,291,225
83,915,289,224
129,918,287,223
132,919,286,221
145,916,284,220
143,897,283,219
142,886,281,217
142,874,280,216
140,864,278,215
140,895,276,214
140,907,275,213
138,913,273,211
137,916,271,210
135,918,270,209
135,920,268,207
135,921,267,207
134,920,265,205
133,911,263,204
133,892,263,203
132,880,262,203
147,901,259,201
146,910,258,199
145,914,257,199
143,917,255,198
143,919,254,197
143,918,253,195
159,911,251,195
158,890,250,194
156,878,248,193
156,867,248,192
155,857,246,192
153,850,266,191
153,839,263,190
152,830,263,188
151,821,262,188
150,815,260,187
150,805,259,185
148,797,257,185
147,788,255,184
147,782,254,183
146,774,252,182
146,814,252,215
145,903,250,213
143,910,248,211
143,914,247,210
142,915,246,209
142,905,245,207
141,891,243,207
140,879,242,206
139,867,240,204
139,857,239,203
138,850,238,202
137,890,237,206
135,908,236,204
135,913,235,203
135,916,233,201
134,918,231,199
134,917,231,199
133,905,230,198
132,886,229,197
131,878,227,196
131,867,226,195
130,857,225,196
129,902,224,195
128,909,223,194
128,915,222,193
127,917,221,192
127,917,220,190
126,913,219,190
126,893,217,189
125,881,216,188
124,870,216,187
124,862,214,185
123,853,214,231
122,905,212,228
121,911,211,227
121,915,210,225
121,917,209,224
120,917,207,223
119,908,207,222
118,891,206,220
118,879,205,219
117,867,204,218
117,858,204,217
115,897,203,217
115,907,201,216
115,913,199,216
114,916,199,214
113,918,199,213
113,918,198,211
113,911,196,211
112,890,195,209
111,878,195,207
111,870,194,207
110,860,193,206
109,901,192,205
109,910,191,204
108,914,190,203
108,918,189,201
107,918,188,199
107,916,187,199
106,907,186,198
106,887,185,197
105,875,184,196
105,864,184,195
103,857,188,209
103,903,188,207
103,911,187,207
102,915,185,205
102,917,184,204
101,918,184,203
101,913,183,202
100,893,182,201
99,883,181,199
99,871,179,199
99,861,179,198
99,866,178,197
98,906,177,195
97,911,176,195
97,915,176,194
96,917,175,192
96,918,174,192
96,915,173,190
95,902,173,190
95,884,172,189
94,876,171,188
94,865,170,187
94,855,170,203
93,903,170,201
92,911,169,199
92,915,167,199
92,917,167,198
91,918,167,197
90,915,166,196
90,899,166,195
90,886,165,194
89,875,164,193
89,866,163,192
89,857,171,236
88,902,215,237
88,909,213,236
87,914,211,234
87,916,210,233
86,918,209,231
86,918,207,230
85,913,207,229
85,891,206,227
84,882,204,226
85,871,203,225
84,860,203,224
83,896,222,224
83,909,221,222
83,913,220,221
83,916,218,220
82,918,217,219
82,918,216,217
81,909,215,216
81,892,213,216
80,879,212,214
79,871,211,213
79,860,210,212
79,894,209,211
79,907,207,211
79,913,207,209
78,915,206,208
78,918,204,207
77,917,204,206
77,908,202,205
77,888,201,204
76,879,199,203
76,868,199,202
76,860,198,201
76,873,197,199
75,907,196,199
75,911,195,199
74,915,194,197
74,917,193,196
73,918,192,195
73,911,192,194
73,895,191,193
71,882,190,192
71,873,189,192
71,863,188,191
71,856,195,191
71,903,202,190
71,911,201,189
71,915,199,188
70,918,199,187
70,919,198,186
70,916,197,185
69,900,195,184
69,887,195,184
69,875,193,183
68,867,192,182
69,857,192,211
68,903,191,210
67,909,189,209
67,915,189,207
67,917,188,206
67,919,187,205
66,918,186,204
66,909,185,203
66,888,184,202
65,880,183,201
65,869,182,199
65,861,181,199
65,896,180,198
64,909,179,197
63,913,178,195
63,916,178,195
63,918,177,194
63,917,176,193
63,906,175,192
63,889,174,191
62,878,174,189
62,870,173,189
62,860,172,188
61,881,171,187
61,907,170,186
61,913,169,185
60,916,169,184
60,918,167,183
60,918,167,182
60,911,166,181
59,891,166,180
59,882,165,179
59,871,163,179
59,863,163,178
59,878,162,177
58,907,161,176
57,911,161,176
57,916,159,175
57,918,159,174
57,917,159,173
56,911,158,172
56,891,157,172
56,879,157,171
56,871,156,170
56,860,155,169
56,853,155,184
56,903,154,182
55,911,153,181
54,915,152,179
54,917,152,179
54,919,151,178
54,916,151,177
54,900,150,176
53,887,149,175
53,875,148,174
53,867,147,173
52,857,163,175
52,899,172,173
52,910,170,172
51,915,169,172
51,917,167,171
51,918,167,169
51,916,167,169
51,903,166,167
51,885,165,167
51,877,163,166
50,866,163,166
50,858,163,193
50,898,215,212
49,910,213,210
49,913,211,209
49,917,211,207
48,918,209,207
49,916,207,206
48,908,207,204
48,888,206,204
48,876,205,202
48,868,204,201
47,857,203,199
47,886,201,199
47,908,199,198
47,913,199,197
47,916,199,195
46,918,197,195
45,918,196,194
46,911,195,193
45,892,194,192
45,882,193,191
45,871,192,190
45,864,191,189
45,881,190,188
44,905,189,187
44,912,188,185
44,916,187,185
44,918,186,184
43,918,185,183
43,914,184,182
44,893,184,181
43,881,183,180
43,872,182,179
42,862,181,178
42,855,190,178
42,904,188,177
42,911,188,176
41,915,186,175
41,918,185,174
41,918,184,173
41,914,184,172
41,899,183,172
39,883,182,171
39,873,181,170
39,864,179,169
39,856,179,167
39,899,178,167
39,910,177,167
39,915,176,166
39,917,176,165
39,918,175,164
39,917,174,164
39,905,173,163
39,886,172,162
38,877,171,162
38,866,171,160
38,859,169,183
38,899,203,194
38,908,201,192
38,913,199,192
37,917,199,190
37,918,197,189
37,917,196,188
37,911,195,187
37,889,194,186
36,877,193,185
36,870,192,184
36,859,192,196
36,888,285,216
35,908,299,214
35,913,297,213
35,915,295,211
35,918,294,210
35,918,291,209
35,910,290,207
34,889,287,206
35,880,286,206
34,869,285,204
34,861,283,204
34,886,281,203
34,905,280,201
33,911,278,199
33,916,277,199
33,918,275,199
33,919,274,197
33,917,271,196
32,902,271,195
32,884,270,194
32,876,268,193
31,865,267,192
31,858,265,192
32,905,263,191
31,910,262,189
31,915,261,188
31,918,259,187
31,918,258,187
31,915,257,185
31,902,255,185
31,885,254,184
30,873,253,183
30,865,252,182
30,856,251,199
30,901,251,198
30,911,249,196
30,914,249,195
30,918,248,194
30,920,247,193
30,918,245,192
30,908,244,192
29,890,243,190
29,878,241,189
29,867,240,188
29,860,239,191
29,899,250,192
29,908,253,191
28,914,251,189
28,917,250,188
28,918,248,187
28,917,248,186
28,911,246,185
28,890,244,184
27,881,243,184
27,870,242,182
27,860,241,182
27,891,249,180
27,909,248,179
27,911,247,179
27,916,245,178
27,919,243,177
26,919,242,176
26,913,241,175
26,898,240,174
26,883,238,173
25,871,237,172
25,864,236,172
25,889,235,171
25,906,233,170
25,913,231,169
25,915,231,167
25,918,230,167
25,919,229,167
25,916,227,166
24,899,227,165
24,886,225,164
25,875,224,163
24,864,224,163
24,857,234,163
24,905,233,162
24,911,231,161
24,915,230,161
24,918,229,159
24,918,227,159
24,914,227,158
24,902,225,158
24,884,224,157
23,876,223,156
23,865,222,155
23,856,221,155
23,901,220,154
22,910,219,153
22,914,217,152
23,917,216,152
22,918,216,151
22,916,214,151
22,903,213,149
22,888,212,149
21,877,211,148
21,866,210,147
22,858,209,150
21,901,210,153
21,909,209,152
21,914,207,151
21,916,207,151
20,918,206,149
20,918,205,149
20,912,204,148
20,891,203,147
20,882,202,147
20,871,201,146
20,860,199,146
20,894,199,152
19,909,199,152
19,913,198,151
19,917,196,150
19,919,195,149
19,919,195,148
19,913,194,147
19,898,193,146
19,883,192,146
19,874,192,145
19,864,190,144
18,890,189,146
18,906,188,145
18,913,188,143
18,915,187,143
19,918,186,143
18,918,185,142
18,915,184,141
17,896,184,141
17,885,182,140
18,873,182,140
17,863,181,139
17,856,180,142
17,905,179,141
17,911,178,140
17,915,177,139
17,917,177,139
17,919,176,138
16,916,175,137
16,905,174,137
16,886,174,135
16,878,173,135
17,867,172,135
17,857,172,164
17,902,175,163
16,911,174,162
15,915,173,161
16,917,172,159
15,918,171,159
16,917,170,159
15,903,170,158
15,888,169,157
15,877,167,156
15,866,167,155
15,858,167,170
15,902,172,167
15,909,170,167
15,914,170,167
15,917,169,166
15,918,167,165
14,916,167,163
15,907,166,163
14,888,166,162
14,879,165,161
