39,25,88,46
39,25,87,46
39,25,87,46
39,24,87,46
39,24,86,46
39,25,86,46
39,27,86,45
39,26,85,45
39,26,85,45
39,26,85,44
38,26,84,44
39,25,83,44
38,25,83,44
38,25,83,44
38,25,83,44
38,25,82,43
38,25,82,43
37,25,81,43
38,25,81,43
37,25,81,43
37,24,80,42
37,24,80,42
37,24,79,42
37,24,79,42
49,24,79,41
49,24,79,41
48,24,79,41
48,24,78,41
48,24,78,41
48,24,78,41
48,24,78,41
47,24,77,39
47,31,77,39
47,31,77,39
47,31,76,39
46,31,76,39
48,31,76,39
48,31,75,39
47,31,75,39
47,31,75,39
47,30,75,39
46,30,74,39
46,30,74,39
46,30,73,38
46,30,73,38
45,30,73,38
45,30,71,38
45,29,71,37
45,29,71,37
45,29,71,37
45,29,71,37
50,29,71,36
49,29,71,36
49,28,71,36
49,29,70,36
48,28,70,36
49,29,70,36
48,28,70,35
48,28,69,36
48,28,69,35
48,28,69,35
47,28,68,35
47,28,68,35
47,28,68,35
47,27,67,35
46,27,67,35
46,27,67,34
46,27,67,34
46,27,66,34
46,27,66,34
46,26,66,83
45,26,66,82
45,26,65,82
45,26,65,81
44,26,65,81
45,25,65,80
46,26,64,79
46,25,64,79
46,25,63,79
45,25,63,79
46,25,63,79
45,25,63,78
45,25,63,78
45,25,63,77
45,25,62,77
44,25,62,76
44,25,62,76
44,25,62,76
44,25,61,76
44,25,61,76
44,25,61,75
43,25,60,75
43,25,60,74
43,24,60,74
43,24,60,74
43,24,60,73
43,24,60,73
42,27,68,73
42,27,67,71
42,27,67,71
41,26,67,71
41,26,67,71
41,26,67,71
45,25,66,71
44,26,66,70
44,26,65,70
44,25,65,70
44,25,65,69
44,25,65,69
44,25,65,69
43,26,64,69
43,26,63,68
42,25,63,68
43,25,63,67
42,25,63,67
43,25,63,67
54,25,63,67
54,25,62,67
53,24,62,66
53,25,62,66
52,24,61,66
52,24,61,65
52,25,61,65
52,25,61,65
51,25,61,64
51,25,60,64
51,25,60,63
51,25,60,63
51,25,60,63
63,25,59,63
63,24,59,63
63,24,59,63
63,24,59,62
62,24,58,62
62,24,58,62
62,24,58,62
62,24,58,62
61,24,57,61
61,24,57,61
61,24,57,61
60,24,56,60
60,23,57,60
60,23,56,60
60,23,56,60
59,38,56,59
59,48,56,59
59,59,56,59
59,58,56,58
59,58,55,58
58,57,54,58
58,57,54,58
58,57,54,58
57,57,54,57
57,56,54,57
82,56,54,57
101,56,53,57
101,56,53,56
99,55,53,56
99,55,52,56
99,55,52,101
98,54,52,99
98,54,52,99
97,54,51,99
96,54,51,98
96,53,51,97
96,53,51,97
96,53,51,97
95,52,51,96
94,52,51,96
94,52,50,96
94,51,50,94
93,51,50,94
93,51,50,94
92,51,49,93
92,51,49,93
92,51,49,93
91,50,49,92
91,50,48,92
91,50,48,91
90,50,48,91
89,50,48,91
89,49,48,90
89,49,48,90
88,49,48,89
88,49,48,89
88,48,47,89
88,48,47,88
88,48,47,88
86,48,47,88
87,48,47,88
86,48,46,87
86,47,46,86
85,47,46,86
91,47,46,86
94,48,46,85
94,47,45,85
93,47,45,85
93,47,45,84
92,46,45,84
92,46,44,83
92,46,44,83
91,46,44,83
91,45,44,82
91,45,44,82
90,45,44,81
99,49,44,81
103,49,44,81
103,98,44,81
107,190,43,80
105,249,43,79
105,246,43,79
103,244,43,79
103,243,42,79
103,241,42,78
103,240,41,78
102,238,42,78
102,237,41,77
102,236,41,77
112,235,41,77
126,233,41,76
167,255,41,76
177,323,41,76
176,358,41,75
175,359,39,75
174,357,39,74
172,355,39,74
172,353,39,74
171,350,39,73
170,348,39,73
169,346,39,73
169,344,39,72
171,342,39,71
170,340,39,71
169,344,39,71
167,343,39,71
167,377,53,71
167,373,53,70
166,371,52,70
165,369,52,70
165,367,52,70
163,365,51,69
163,362,51,69
163,361,51,69
176,359,51,68
192,356,51,67
191,355,50,68
190,352,50,67
189,351,50,67
188,348,51,71
187,347,88,71
185,345,87,71
201,344,87,71
306,428,86,70
333,463,85,69
331,460,85,69
327,455,85,69
326,453,84,68
324,451,83,68
322,448,83,67
319,446,83,67
319,443,83,67
317,441,82,67
315,439,82,66
313,435,81,66
312,433,81,66
310,430,80,65
308,428,79,65
307,425,79,65
305,423,79,65
304,448,79,65
302,444,79,64
300,442,78,63
299,438,78,63
297,436,77,63
295,433,77,63
295,430,77,63
324,429,77,62
355,425,76,62
352,423,76,62
350,421,76,62
348,419,75,61
345,415,74,61
344,413,74,61
342,412,74,61
339,410,74,60
338,408,75,60
335,407,91,60
334,403,91,59
332,401,90,59
331,399,89,59
327,397,89,58
327,395,88,58
325,393,88,58
323,391,88,57
322,388,87,57
319,387,87,57
318,384,87,57
317,382,86,56
315,380,86,56
313,378,85,56
312,377,85,56
311,374,84,56
309,373,83,56
307,370,83,55
306,368,83,55
304,368,105,55
303,365,103,55
301,363,103,54
300,405,103,54
298,401,102,54
297,399,102,54
295,397,101,54
294,394,101,53
292,391,100,53
291,389,99,53
289,387,99,52
287,384,99,52
286,383,98,52
285,380,97,52
284,378,97,51
282,376,97,51
281,374,96,51
280,372,96,51
279,370,95,51
277,368,95,50
275,366,94,50
274,364,94,50
273,362,93,49
271,359,93,49
271,358,93,49
269,357,92,49
268,355,92,48
267,353,92,48
265,351,91,48
263,350,91,48
263,348,90,48
262,346,90,48
260,344,89,47
259,343,89,47
258,341,89,47
257,339,88,46
255,337,88,46
255,335,88,47
254,334,87,46
252,333,86,46
251,331,86,46
250,329,86,45
249,327,85,45
248,326,85,45
247,324,85,45
246,323,84,45
244,322,84,44
243,319,83,44
242,318,83,44
241,317,83,44
240,316,82,44
239,314,82,43
238,312,81,43
237,312,81,43
236,310,81,43
235,307,80,43
234,307,79,42
233,305,79,42
231,304,79,42
231,302,79,42
230,301,79,41
229,300,78,41
227,298,78,41
227,297,78,41
226,295,77,41
225,294,77,39
224,293,77,39
223,291,76,39
222,290,76,39
221,289,76,39
220,287,75,39
219,286,75,39
218,285,75,39
217,284,74,39
216,283,74,39
216,281,73,39
214,280,73,39
213,279,73,39
213,278,72,38
211,276,71,38
211,275,71,38
210,273,71,38
209,272,71,38
207,271,71,37
207,270,71,37
207,269,70,37
206,268,70,37
205,267,70,37
204,265,69,37
203,263,69,36
202,263,69,36
201,262,68,36
199,261,68,36
199,259,68,35
199,258,67,35
198,257,67,35
197,255,67,35
197,255,110,35
195,254,109,35
194,252,108,35
194,252,107,35
193,250,107,35
192,249,106,35
191,248,105,35
190,247,105,34
190,246,103,34
189,244,103,34
188,243,103,34
187,243,103,34
186,241,102,34
185,240,102,33
185,239,102,33
184,238,101,33
183,237,100,33
182,236,99,33
182,235,99,33
181,234,99,32
179,233,99,32
179,231,98,32
178,231,98,31
178,230,97,32
177,229,97,31
176,228,96,31
176,227,96,31
175,227,96,31
174,225,95,31
174,225,94,31
173,224,94,31
172,223,93,30
172,222,93,30
171,221,93,35
170,220,92,35
169,219,92,35
169,218,92,35
167,217,91,34
167,216,91,34
167,216,90,34
166,214,89,34
165,214,89,33
165,212,89,33
163,211,89,33
163,211,89,33
163,210,88,33
162,209,88,33
161,207,87,33
160,207,87,33
159,206,86,32
159,206,86,33
158,205,85,32
158,204,85,32
157,203,85,31
156,202,84,31
156,201,83,31
155,199,83,33
155,199,83,35
154,199,83,38
153,198,82,38
153,198,82,37
152,196,81,37
152,195,81,37
152,195,81,37
151,194,80,37
150,193,79,36
149,192,79,36
148,192,79,36
148,191,79,36
147,190,79,35
147,190,78,35
146,188,78,35
145,188,78,35
145,187,77,35
145,186,77,35
143,185,77,35
143,185,76,34
143,184,76,34
142,184,76,34
142,183,75,34
141,182,75,34
141,181,75,33
140,180,75,51
140,180,74,51
139,179,73,51
138,178,73,50
138,178,73,50
137,177,73,50
137,176,73,49
135,176,71,49
135,175,71,49
135,174,71,49
135,174,71,49
134,173,71,49
133,172,71,49
133,172,70,48
133,171,70,48
132,170,70,48
131,169,69,48
131,167,69,48
130,167,69,47
130,167,68,47
129,167,68,46
129,166,67,47
128,165,67,46
127,165,67,46
127,163,67,46
127,163,66,46
126,163,66,45
126,162,66,45
126,161,66,45
125,161,66,45
125,159,65,44
124,159,65,44
123,159,65,44
123,159,64,44
123,158,66,44
122,157,65,45
121,156,65,44
121,156,65,44
120,155,64,44
120,155,64,44
120,154,63,43
120,153,63,43
119,152,63,42
118,152,63,42
118,152,63,42
117,152,62,44
117,150,62,43
116,150,62,43
115,149,61,43
115,149,61,43
115,148,61,42
115,147,61,42
114,147,61,42
114,146,60,41
113,145,60,41
113,145,60,41
112,144,59,40
112,143,59,41
111,143,59,39
111,142,59,39
110,142,58,39
110,142,58,39
110,141,57,39
109,141,57,39
109,140,57,39
108,140,57,39
108,139,57,39
108,139,56,39
107,138,56,39
107,137,56,38
106,137,56,38
106,135,56,38
105,135,56,38
105,135,55,37
105,135,55,38
103,134,55,37
103,134,54,37
103,133,54,36
103,133,54,36
103,132,53,36
102,131,54,36
102,131,53,71
101,131,53,71
101,130,53,71
101,130,52,71
100,129,52,70
110,129,52,70
109,127,51,69
109,127,51,69
108,127,51,68
108,127,51,68
107,126,51,67
107,126,51,67
106,125,50,67
105,125,50,67
105,124,50,66
103,124,50,66
103,123,50,66
103,123,49,66
103,122,49,65
103,122,49,65
102,121,48,64
102,121,48,64
101,120,48,63
101,120,48,63
100,120,48,63
99,119,48,63
99,119,47,62
99,118,47,62
99,118,47,62
98,117,47,62
98,117,46,61
98,116,46,61
97,116,46,61
97,115,46,60
97,115,46,60
96,115,46,60
96,114,46,60
95,114,45,59
95,113,45,59
95,113,45,59
94,112,45,59
94,112,44,58
93,112,45,58
93,112,44,57
93,111,44,57
93,111,44,57
92,110,44,57
92,110,44,57
92,110,43,56
91,109,43,56
91,108,43,56
91,108,42,56
90,108,43,56
90,108,42,56
89,107,42,55
89,107,42,55
89,106,42,54
88,106,42,54
88,105,41,54
88,105,41,54
88,105,41,53
88,103,41,53
87,103,41,53
87,103,40,52
86,103,39,52
86,103,39,52
86,102,39,52
85,102,39,51
85,102,39,51
84,102,39,51
84,101,39,51
84,100,39,51
83,100,39,51
83,99,39,50
83,99,39,50
83,99,39,50
83,99,39,50
82,98,38,49
82,98,38,49
82,98,38,49
81,97,38,49
81,97,38,48
81,97,37,48
81,96,37,48
80,96,39,83
80,96,39,83
79,96,39,82
79,95,39,81
79,95,39,81
79,94,38,81
79,94,38,80
78,94,38,79
78,93,38,79
78,93,38,79
77,93,37,79
77,92,37,78
77,92,37,78
77,92,37,78
76,92,37,77
76,92,37,77
76,91,36,77
76,91,36,76
75,90,36,76
75,90,36,76
75,90,36,75
74,89,35,75
74,89,36,75
74,89,35,74
74,88,35,74
73,88,35,73
73,88,35,73
73,88,35,73
73,88,35,71
71,87,35,71
71,87,34,71
71,86,34,71
71,86,34,71
71,85,34,71
71,85,34,71
71,85,33,70
71,85,34,70
70,85,34,70
70,84,33,69
70,84,34,69
70,84,69,69
70,83,81,69
69,83,81,68
69,83,80,68
69,82,80,67
68,82,79,67
68,82,79,67
71,81,79,67
71,81,79,66
70,81,78,66
70,81,78,66
70,81,78,66
70,80,77,65
69,79,77,65
69,79,76,65
69,79,76,65
68,79,76,64
68,79,76,64
68,79,75,63
67,78,75,63
67,78,75,63
67,78,74,63
66,78,74,62
66,77,73,62
66,77,73,62
66,77,72,62
66,76,71,61
65,76,71,61
65,76,71,61
65,76,71,61
65,76,71,60
65,75,71,60
65,75,71,60
64,75,70,60
63,75,70,60
63,74,70,59
63,74,69,59
63,73,69,58
63,73,69,58
62,73,69,58
62,73,68,58
62,73,68,57
62,71,71,57
62,71,71,57
61,71,71,57
62,71,71,57
61,71,71,56
61,71,71,56
61,71,71,56
60,70,71,56
60,70,70,56
61,70,69,55
60,70,70,56
60,70,69,57
60,69,69,57
59,69,69,57
59,69,68,57
59,68,68,57
59,68,67,56
59,68,67,56
58,67,67,56
58,67,67,56
58,67,67,56
58,67,66,55
57,67,66,55
57,67,65,55
57,67,65,54
57,66,65,54
57,66,65,54
56,65,64,54
56,66,64,53
56,65,63,54
56,65,63,53
57,65,63,53
57,64,63,53
57,64,63,52
56,64,63,52
56,64,62,51
56,63,62,51
56,63,62,51
56,63,62,51
55,63,62,51
55,63,61,51
55,62,61,50
54,62,61,50
54,62,61,50
54,62,60,50
54,62,60,50
54,62,60,49
54,61,60,49
53,61,60,49
53,61,59,49
53,60,59,48
52,61,59,48
53,60,59,48
52,60,58,48
52,60,58,48
51,60,58,47
51,60,57,47
51,59,57,47
51,59,57,47
51,58,57,46
51,58,56,46
51,58,56,46
50,58,56,46
50,57,56,46
50,57,56,46
50,57,56,46
50,57,56,45
50,57,55,45
49,57,55,45
49,57,54,45
52,57,54,44
51,56,54,45
51,56,54,44
51,56,53,44
51,56,53,44
51,56,53,44
51,56,53,44
50,56,52,43
50,55,53,43
50,55,52,43
50,54,51,43
50,54,52,43
49,54,51,43
49,54,51,42
49,54,51,42
49,53,51,42
49,53,51,41
49,53,51,42
49,53,51,41
49,53,50,42
48,53,50,42
48,52,50,41
48,52,49,42
48,52,49,41
48,51,49,41
47,51,49,41
47,51,49,41
47,51,49,41
47,51,48,41
46,51,48,39
46,51,48,45
46,51,48,45
46,50,48,45
46,50,47,44
46,50,47,45
45,50,47,44
46,50,47,44
45,50,46,44
45,49,46,44
45,49,46,43
45,49,46,43
45,49,46,42
44,49,46,43
44,48,46,43
44,48,45,42
44,48,45,42
44,48,45,42
44,48,45,42
43,48,45,41
43,48,45,41
43,47,44,41
46,47,44,41
71,47,44,41
71,47,44,41
70,46,44,39
70,47,119,39
69,46,118,39
69,46,117,39
69,46,115,39
68,46,115,39
68,45,115,39
67,46,114,39
67,45,114,39
67,45,113,39
67,45,113,39
67,45,112,38
66,44,111,38
66,44,111,38
65,44,111,38
65,44,110,38
65,44,109,38
64,43,109,37
64,44,108,37
63,43,108,37
63,43,107,37
63,43,107,37
63,43,106,36
63,43,106,36
63,43,105,36
62,43,105,36
62,42,103,35
62,42,103,35
62,42,103,35
61,41,103,35
61,41,103,35
60,41,102,35
60,41,102,35
60,41,101,35
60,41,101,35
59,41,100,34
60,39,100,35
59,159,100,35
59,179,99,34
59,177,99,45
58,176,98,60
58,175,98,60
57,174,97,60
57,173,97,59
57,172,97,59
57,172,96,58
57,171,96,58
56,170,95,58
56,167,95,58
56,167,95,57
56,167,94,57
56,167,94,57
56,166,119,63
55,165,117,63
54,164,117,63
54,163,116,63
54,162,115,62
54,161,115,62
54,161,114,62
53,159,113,61
53,159,113,61
53,158,113,61
52,158,112,60
52,157,111,60
51,156,111,60
51,155,110,60
51,155,110,59
51,154,110,59
51,153,109,58
51,152,108,58
50,152,108,58
50,151,107,57
50,151,107,57
50,150,106,57
49,149,106,57
49,148,105,57
49,147,105,56
49,147,105,56
48,146,103,56
48,145,103,56
48,145,103,55
48,143,102,55
48,143,102,55
52,143,101,54
52,142,101,54
51,142,100,54
51,141,100,54
51,140,100,53
51,140,99,53
51,139,99,53
51,138,98,53
50,138,98,52
50,137,98,52
50,137,97,51
50,135,97,51
49,135,96,51
49,135,96,51
49,134,96,51
49,134,96,51
48,133,95,50
48,133,94,50
48,132,94,50
48,131,93,50
48,131,93,49
47,131,93,49
47,130,92,49
47,129,92,48
47,129,92,49
46,127,92,48
47,127,91,48
46,127,90,48
46,127,90,48
46,126,89,48
45,125,89,47
45,125,89,47
45,124,89,46
45,124,88,46
44,123,88,46
44,123,88,46
44,122,87,46
45,121,87,46
45,121,86,46
45,121,86,45
44,120,86,45
44,120,85,45
44,120,85,45
44,119,85,44
43,118,84,44
43,118,83,44
43,117,83,44
43,117,83,43
43,116,83,43
44,116,82,43
45,115,82,43
44,115,82,43
44,114,81,43
45,114,81,42
44,113,80,42
44,113,81,42
43,113,79,42
44,112,79,41
44,112,79,42
43,111,79,41
43,111,79,41
43,110,78,41
43,109,78,41
43,109,78,41
43,109,77,39
43,109,77,39
43,108,77,39
42,108,76,39
42,107,76,39
41,106,76,39
41,106,75,39
41,105,75,39
41,105,75,39
41,105,74,38
41,103,75,39
41,103,74,38
41,103,73,38
39,103,73,38
39,103,73,38
39,103,73,38
39,102,71,37
39,102,71,37
39,101,71,37
39,101,71,37
39,100,71,37
39,99,71,36
39,99,71,36
39,99,70,36
38,99,70,36
38,98,70,36
38,98,69,36
38,97,69,35
38,97,69,37
38,97,70,39
38,96,70,39
38,96,70,39
37,96,69,39
37,95,69,39
37,95,68,39
37,95,68,39
37,94,68,38
37,94,67,39
37,93,67,38
36,93,67,38
36,93,67,38
35,92,66,37
36,92,66,37
36,92,66,38
35,91,66,37
35,91,66,37
35,91,65,37
35,91,65,37
35,89,65,37
36,89,65,37
37,89,64,36
36,89,63,36
35,88,63,35
35,88,63,35
35,88,63,35
35,88,63,35
35,88,63,35
35,87,62,35
35,87,62,35
35,86,62,35
35,86,62,35
35,85,61,34
34,86,61,34
34,85,61,34
34,84,61,34
34,83,61,34
34,83,60,34
34,83,60,33
33,83,60,33
34,83,60,34
33,82,60,34
33,82,59,33
33,82,59,33
33,82,59,33
33,81,59,33
32,81,58,33
33,81,58,33
32,80,58,33
32,79,57,32
31,79,57,32
31,79,57,32
31,79,57,32
31,79,57,31
31,78,57,69
31,78,103,71
31,78,107,71
31,78,106,70
31,77,105,70
33,77,105,70
33,77,103,69
33,77,103,69
33,76,103,69
32,76,103,68
31,75,103,67
32,75,102,67
31,75,102,67
31,75,101,67
31,74,100,66
31,74,100,66
31,73,99,66
31,73,99,65
31,73,99,65
31,71,98,65
30,73,98,65
31,71,97,64
30,71,97,63
30,71,97,63
30,71,96,63
30,71,96,63
30,71,96,63
30,71,95,62
30,70,95,62
30,70,94,62
30,69,94,62
30,69,94,61
29,69,93,61
29,69,93,61
29,69,92,61
29,69,92,60
29,68,92,60
29,68,91,60
28,67,91,60
28,67,90,60
28,67,90,59
28,67,89,59
28,67,89,58
28,66,89,58
28,66,89,58
28,66,88,57
28,65,88,57
28,65,88,57
28,65,87,57
27,65,87,57
27,64,87,56
27,64,86,56
27,64,85,56
27,63,86,56
27,63,85,56
27,63,85,56
36,63,84,56
42,63,84,55
41,63,84,54
41,62,83,55
41,62,83,54
41,62,82,54
39,62,83,54
39,62,82,53
39,61,81,53
39,61,81,53
39,61,81,53
39,61,81,52
39,61,80,52
39,60,79,52
39,60,79,52
39,60,79,51
39,59,79,51
38,59,79,51
39,59,78,51
38,59,78,51
38,58,78,51
38,58,77,50
38,58,77,50
37,57,77,50
38,57,77,50
37,57,76,49
37,57,76,49
37,57,76,49
37,57,76,48
36,57,75,48
36,56,75,48
36,56,75,48
36,56,74,48
35,56,73,96
35,56,73,95
35,55,73,94
35,55,73,94
35,55,73,93
35,54,71,93
35,54,71,92
35,55,71,92
34,54,71,92
34,53,71,91
34,53,71,91
34,53,71,90
34,53,70,89
34,53,70,89
33,52,70,89
33,53,70,89
33,52,69,88
33,52,69,88
33,52,68,88
33,51,68,88
33,51,68,87
33,51,68,86
32,51,67,86
32,51,67,85
32,51,67,85
32,50,67,85
31,50,67,84
31,50,67,84
31,50,66,83
31,50,66,83
31,50,66,83
31,49,66,83
31,49,65,82
31,49,65,82
30,49,65,81
31,49,65,81
31,48,64,81
30,48,64,80
30,48,63,79
30,48,63,79
30,48,63,79
30,47,63,79
30,47,63,79
30,47,63,78
31,47,63,79
37,47,62,78
37,46,62,77
37,46,62,77
36,46,61,77
36,46,61,76
36,46,61,76
35,46,60,76
35,46,60,76
35,45,60,75
35,45,60,75
35,45,71,74
35,45,71,74
35,45,70,74
35,45,70,74
49,44,69,73
48,44,70,73
48,44,69,71
48,44,69,71
48,44,68,71
48,44,68,71
47,43,67,71
47,43,67,71
47,43,67,71
46,43,67,71
46,43,67,70
46,42,66,70
46,43,66,70
46,42,65,70
45,42,65,69
45,42,65,69
45,41,65,68
45,41,64,67
45,41,65,67
44,41,63,67
44,41,63,67
44,41,63,67
44,41,63,67
44,39,63,66
44,41,62,66
43,39,62,66
43,39,62,66
43,39,62,65
43,39,62,65
42,39,61,65
42,39,61,84
42,39,61,83
41,39,61,83
41,39,60,82
41,39,60,82
41,39,60,82
41,38,60,81
41,38,60,81
41,38,59,80
41,38,59,80
41,38,59,79
39,38,58,79
39,38,58,79
39,38,58,78
39,38,57,78
39,37,57,78
39,37,57,78
39,37,57,77
39,37,57,77
39,37,57,77
39,37,56,77
38,36,56,76
38,36,56,76
38,36,56,76
38,36,56,75
38,35,82,75
38,35,81,75
37,35,81,74
37,35,81,73
37,35,80,73
37,35,79,73
37,35,79,73
36,35,79,71
36,35,78,71
36,35,78,71
41,35,78,71
41,34,78,71
41,34,77,71
41,34,77,71
41,34,77,70
41,34,76,70
39,34,76,70
40,34,77,70
39,34,99,69
39,34,97,69
39,33,97,68
39,33,96,68
39,33,96,68
42,33,96,67
41,33,95,67
41,33,95,67
41,32,94,67
41,32,94,66
41,32,93,66
39,31,93,66
39,32,93,65
39,31,92,65
39,31,92,65
39,31,91,64
39,31,91,65
39,31,90,64
39,31,90,63
39,31,89,63
39,31,89,63
39,31,89,63
38,31,89,63
38,31,89,63
38,30,88,62
38,30,88,62
38,30,87,62
38,30,87,61
37,30,86,61
37,30,86,61
38,30,86,61
43,30,86,61
43,30,85,61
42,30,85,60
42,29,85,60
42,29,84,60
41,29,83,60
41,29,83,59
41,29,83,58
41,29,83,59
41,29,82,58
41,29,82,58
41,28,82,58
39,28,81,57
39,28,80,57
39,28,80,57
39,28,79,57
39,28,79,66
39,28,79,65
39,28,79,65
39,28,79,77
39,28,79,77
39,28,78,76
38,27,78,76
38,27,78,76
38,27,77,75
38,27,77,75
57,27,77,74
57,27,76,74
56,27,76,73
56,27,76,73
56,26,76,73
56,26,75,73
56,26,75,72
55,27,75,71
55,26,74,71
55,26,73,71
54,26,73,71
54,25,73,71
54,26,73,71
53,25,73,70
53,25,73,70
53,25,71,70
53,25,71,69
53,25,71,69
52,25,71,68
52,25,71,68
52,25,71,68
51,24,70,67
51,25,70,67
51,25,70,67
51,25,70,67
51,25,69,66
50,25,69,66
52,24,69,66
51,24,69,66
52,24,68,65
51,24,68,65
51,24,67,65
51,24,67,64
51,24,67,64
51,24,71,63
51,24,71,63
50,23,71,63
50,23,70,63
50,24,70,63
49,23,70,62
50,23,69,62
50,24,69,62
50,23,69,62
49,23,69,62
49,23,68,61
49,23,68,61
49,22,68,61
48,23,67,60
48,22,67,60
48,22,67,60
48,22,66,60
48,22,67,60
48,22,66,60
48,22,66,59
47,22,66,59
47,21,65,58
47,22,65,58
46,21,65,58
47,22,64,58
46,21,64,57
46,21,63,57
46,21,63,57
46,21,63,57
45,21,63,56
45,21,63,56
45,21,63,56
45,20,62,56
45,21,62,56
45,20,62,56
45,20,62,55
45,20,61,55
44,20,61,55
44,20,61,54
44,20,61,55
44,20,60,54
43,20,60,54
43,20,60,54
43,19,60,53
43,20,60,53
43,20,59,53
43,19,59,53
43,19,59,52
43,19,59,52
42,19,58,52
42,19,58,52
42,19,57,51
42,19,57,51
41,19,57,51
41,19,57,51
41,19,57,51
41,19,57,50
41,19,57,50
41,18,56,50
41,19,56,50
39,18,56,49
39,18,56,49
39,18,56,49
39,18,58,49
39,18,93,49
39,18,92,49
39,19,92,48
39,19,91,48
39,18,91,48
39,18,90,48
38,18,90,48
47,18,90,47
47,18,89,47
47,18,89,47
47,18,88,47
46,18,88,46
46,18,88,46
46,18,88,47
46,18,87,46
45,17,87,46
45,17,86,46
45,17,86,46
45,17,85,46
45,17,85,45
53,17,85,45
53,17,84,45
52,17,84,45
52,17,83,45
51,17,83,44
51,16,83,45
51,17,83,44
51,16,82,44
51,16,82,44
51,16,82,44
50,16,81,44
50,16,81,44
50,16,81,43
49,16,79,43
49,16,79,43
49,16,79,43
49,16,79,43
48,16,79,42
48,15,78,42
48,16,78,42
48,16,78,42
48,15,77,41
48,15,77,41
47,15,77,41
48,15,77,41
47,15,77,41
47,15,76,41
46,15,76,39
46,15,76,39
46,15,76,39
46,15,75,39
46,15,75,39
45,15,74,39
45,15,74,39
45,15,73,39
45,15,73,39
45,15,73,39
45,15,73,39
44,14,72,39
53,15,71,38
53,14,71,39
52,14,71,38
51,14,71,38
52,14,71,38
51,14,71,38
51,14,71,38
51,14,70,37
51,14,70,37
50,14,70,37
50,14,69,37
50,14,69,36
50,14,68,36
49,14,68,36
50,14,68,36
49,14,68,36
49,14,67,35
49,13,67,36
49,14,67,35
48,13,67,35
48,14,67,35
48,13,66,35
48,14,66,35
48,13,66,35
47,13,66,35
47,13,65,35
50,13,65,35
50,13,65,34
50,13,64,34
50,13,64,34
49,13,63,34
49,13,63,34
49,13,63,34
48,13,63,33
48,13,63,33
48,12,62,33
48,13,62,33
48,13,62,33
47,12,62,32
48,12,62,33
47,13,61,32
47,12,61,32
47,12,61,31
47,12,60,32
46,12,60,31
46,12,60,31
46,12,60,31
46,12,60,31
45,12,59,31
45,12,59,31
45,12,59,31
45,12,59,31
53,12,59,31
53,12,58,30
53,12,58,30
53,11,57,30
52,11,57,30
52,11,57,30
51,11,57,30
51,11,57,33
51,11,56,33
51,12,57,33
51,11,56,33
50,11,56,33
50,11,56,32
50,11,55,32
54,11,56,32
54,11,55,31
54,11,55,31
53,11,55,31
53,11,54,31
53,11,54,31
53,11,54,31
52,11,54,31
52,11,54,31
52,11,53,31
52,11,53,31
51,10,53,31
51,10,53,30
52,11,52,30
51,11,52,30
51,10,52,30
51,11,51,30
51,10,51,30
51,11,51,30
50,10,51,30
50,10,51,29
50,10,51,29
50,10,51,29
50,10,50,29
50,10,50,29
53,10,50,29
53,10,50,29
52,10,49,29
52,10,49,28
52,9,49,28
51,9,49,28
51,9,49,28
51,9,48,28
51,10,48,28
51,10,48,28
51,9,48,28
50,9,48,27
50,9,48,28
50,9,47,27
50,9,48,27
49,9,47,27
49,9,47,27
49,9,47,27
49,9,47,27
49,9,46,27
48,9,46,27
48,9,46,27
48,9,46,27
48,9,46,26
48,9,46,27
48,9,46,26
47,9,45,26
47,9,45,26
46,9,45,25
47,9,45,25
46,9,45,26
46,8,44,25
46,9,44,25
46,9,44,25
45,7,44,25
45,9,44,25
45,9,44,25
45,8,43,25
45,7,43,25
44,8,43,25
44,7,43,25
44,7,43,24
44,7,43,24
44,8,43,24
44,7,42,24
44,7,42,24
43,8,42,24
43,7,42,24
43,7,41,24
43,7,41,24
43,7,70,24
42,7,69,24
42,7,68,23
42,7,68,24
43,7,68,24
42,7,67,24
42,7,67,23
42,7,67,24
42,7,66,24
41,7,66,23
41,7,66,23
41,7,65,23
41,7,65,24
41,7,65,23
41,7,65,24
41,7,65,24
41,7,64,23
39,7,64,23
39,7,63,23
39,7,63,23
39,7,63,22
39,7,63,23
39,7,62,23
39,7,62,22
39,7,62,22
39,7,62,22
39,7,62,22
39,7,61,22
39,7,61,22
38,14,61,22
38,13,61,22
38,13,60,22
38,14,60,21
56,13,60,21
55,13,60,21
55,13,59,21
54,13,59,21
54,13,59,21
53,13,58,21
54,13,59,21
53,12,58,21
53,12,58,21
52,13,58,21
52,12,57,21
51,13,57,21
52,12,57,20
51,12,56,21
51,12,56,20
51,12,56,21
51,12,56,20
51,12,56,20
50,12,55,20
50,12,56,20
50,12,56,37
50,12,55,67
49,12,54,66
49,12,54,66
49,12,54,65
49,12,54,65
49,12,54,64
48,12,54,64
48,12,53,63
48,11,53,63
48,11,52,63
48,11,52,63
47,11,51,63
47,11,51,62
47,11,51,62
46,11,51,62
47,11,51,62
46,11,51,61
46,11,51,61
49,11,51,61
49,11,50,60
49,11,50,60
48,11,50,60
48,10,49,60
48,10,49,59
48,11,49,59
48,10,49,59
47,10,49,59
48,10,48,58
47,10,48,58
47,10,48,58
46,10,48,57
46,10,48,57
46,9,48,57
46,10,48,57
46,10,47,57
46,9,47,56
46,10,47,56
45,10,47,56
45,10,47,56
45,10,46,56
45,10,46,55
45,9,46,55
44,10,46,55
44,10,46,54
51,10,46,54
51,9,45,54
51,10,45,54
51,9,45,53
50,9,45,53
50,9,45,53
50,9,45,53
50,9,44,52
50,9,44,52
50,9,44,52
49,9,44,52
49,9,44,51
49,9,49,51
49,9,49,51
49,9,49,51
48,9,49,51
48,9,48,51
48,9,48,50
48,9,48,50
47,9,47,49
47,7,47,50
47,8,47,49
47,8,47,50
46,8,47,49
46,8,47,49
46,8,46,49
46,8,46,48
46,9,46,48
47,8,46,48
46,8,46,48
46,7,46,48
46,7,45,47
46,7,45,47
45,8,45,47
45,7,44,47
45,7,45,46
45,7,45,46
45,7,44,46
44,7,44,46
44,7,44,46
44,7,44,46
44,7,43,46
44,7,43,45
43,7,43,45
44,7,43,45
43,7,43,45
43,7,42,44
43,7,43,64
43,7,42,85
42,7,42,84
42,7,42,84
42,7,41,83
42,7,41,83
42,7,41,83
41,7,41,82
41,7,41,82
41,7,41,82
41,7,41,81
41,7,39,81
41,7,41,81
41,7,39,79
39,7,39,79
41,7,39,79
39,7,39,79
39,7,39,79
39,7,41,78
39,7,41,78
39,7,41,78
39,7,41,78
39,7,41,77
39,7,41,77
39,7,41,77
39,7,39,76
39,7,39,76
39,7,39,76
39,7,39,75
39,7,39,75
39,7,39,75
39,7,39,75
38,10,39,74
39,10,39,73
38,10,39,74
38,10,39,73
43,10,38,73
43,10,39,73
43,10,38,71
43,10,38,71
42,9,38,71
41,10,38,71
41,9,38,71
41,10,38,71
41,10,37,71
41,9,37,70
41,9,37,70
41,9,37,70
41,9,37,70
40,9,37,69
39,9,37,69
39,9,36,68
39,9,36,68
39,9,36,67
39,9,36,67
39,9,35,67
39,9,41,67
39,9,55,67
39,9,55,66
39,9,55,66
39,9,54,66
39,9,54,65
38,9,54,65
38,9,54,65
38,8,53,65
38,9,53,65
38,8,53,64
38,8,53,63
37,9,52,63
37,9,51,63
37,9,52,63
37,7,51,63
37,22,51,63
37,22,51,63
37,22,51,62
36,21,51,62
36,21,50,62
36,21,50,62
37,21,50,61
37,21,50,61
36,21,50,60
36,20,49,60
36,20,49,60
35,20,49,60
35,20,49,60
35,19,48,59
35,20,48,59
35,20,48,59
35,19,48,58
35,19,47,58
36,19,48,58
35,20,47,58
35,19,47,57
35,19,46,57
35,19,47,66
35,19,46,66
34,19,46,65
34,19,46,65
34,19,52,66
34,18,56,65
34,19,55,64
33,18,55,65
34,18,54,64
35,18,54,63
35,18,54,63
