45,14,38,43
44,13,38,41
44,14,37,41
44,14,37,42
44,14,38,41
44,13,38,42
44,14,38,41
44,14,37,41
43,14,36,41
43,13,37,41
43,14,37,39
43,13,36,39
43,14,37,41
43,13,36,39
42,14,35,39
41,13,35,39
41,14,35,39
41,12,35,39
41,13,34,39
41,13,35,39
41,13,35,39
41,13,35,39
41,13,34,39
39,13,35,39
39,13,34,38
41,13,34,39
39,13,34,38
39,14,34,38
39,12,34,38
39,13,35,37
39,13,34,37
39,13,33,37
39,13,34,37
39,13,34,37
39,12,33,37
38,13,33,36
38,13,33,36
38,13,32,36
37,13,32,36
37,13,33,36
38,13,33,36
37,13,31,36
37,13,32,35
37,12,33,35
37,12,47,35
37,12,46,35
36,12,46,35
36,13,46,35
36,13,46,35
37,17,46,35
36,31,45,34
37,30,45,34
36,30,45,34
36,31,45,34
35,30,45,33
35,30,44,34
35,30,45,62
35,30,96,71
36,29,95,71
35,30,94,71
35,29,93,71
35,29,93,70
35,29,93,71
35,29,93,69
35,29,92,69
35,28,91,68
35,28,91,69
35,28,91,68
34,29,90,68
35,28,89,67
35,28,89,67
34,29,89,68
34,28,89,67
34,28,88,66
34,27,88,66
33,27,88,66
33,27,87,66
34,27,87,65
33,27,87,65
33,27,86,65
33,27,86,64
33,26,85,64
33,26,85,63
32,27,84,63
33,25,85,63
31,26,83,63
31,26,83,62
32,25,83,63
32,26,83,63
31,26,83,63
32,26,82,62
32,25,82,62
31,26,81,61
31,26,81,61
31,25,81,61
31,25,81,61
32,25,80,60
54,25,80,60
54,24,79,60
52,25,79,60
52,25,79,59
52,25,78,60
53,24,78,60
52,25,78,59
51,25,78,58
51,24,77,58
50,24,77,57
50,24,77,58
50,24,76,57
50,24,76,57
51,24,76,57
51,24,76,57
50,24,75,57
50,24,75,56
50,24,75,56
50,24,74,56
50,24,74,56
50,24,74,55
50,23,73,56
49,24,73,55
49,23,73,54
48,23,72,55
49,22,73,55
49,23,71,54
49,23,71,54
48,23,71,53
48,22,71,53
48,22,71,53
48,22,71,53
47,22,71,52
46,22,70,52
47,22,70,52
47,22,70,52
46,22,69,51
46,22,68,52
46,21,68,51
46,21,68,51
46,22,69,51
45,21,68,51
45,21,67,50
45,21,67,51
45,21,67,50
45,21,67,50
45,20,67,49
45,20,67,49
44,21,67,50
44,21,66,49
44,20,65,48
44,20,65,49
48,20,65,48
48,21,65,48
48,19,65,48
47,21,64,48
47,23,63,48
46,23,63,47
46,23,63,47
46,22,63,48
46,23,62,46
45,22,62,47
46,22,62,46
45,22,62,46
45,22,62,46
45,23,62,46
44,22,61,45
44,22,61,46
45,23,61,46
44,21,62,46
44,21,61,45
44,21,60,45
44,21,60,44
43,21,60,44
44,22,60,45
43,21,60,44
43,22,60,44
42,21,59,44
42,20,59,43
42,21,58,44
42,21,58,43
41,20,58,43
41,20,58,43
41,21,57,43
41,20,58,42
41,20,57,42
41,20,57,42
41,20,57,41
41,20,56,41
40,19,57,42
41,20,56,41
43,21,57,43
44,19,56,41
44,20,56,41
44,19,56,41
43,19,56,41
43,19,56,41
43,19,56,41
42,19,55,41
43,19,55,41
42,19,55,39
42,19,54,41
43,19,55,39
42,18,54,39
42,19,54,39
41,19,54,39
42,18,54,39
41,18,53,39
41,19,53,39
41,18,53,39
39,18,51,39
39,18,52,39
39,18,52,39
39,18,51,38
39,18,52,38
39,18,51,38
39,17,51,38
39,17,51,37
39,18,51,38
39,18,51,38
39,17,50,37
39,17,50,37
39,17,50,37
38,17,50,37
39,17,50,37
39,18,49,37
38,17,50,37
38,17,49,37
37,17,50,36
37,17,50,37
37,16,49,36
37,17,49,35
37,17,49,35
37,17,48,35
37,17,48,35
37,16,49,35
36,16,48,35
36,16,48,35
37,15,48,35
35,15,47,35
35,16,47,34
35,16,48,35
35,15,47,34
35,16,47,34
35,15,48,34
35,16,47,34
35,15,47,34
35,15,47,35
35,15,46,33
35,15,46,34
34,15,46,33
34,15,46,33
34,15,46,33
35,15,45,34
34,15,45,32
34,16,45,31
34,15,44,32
34,15,45,33
34,15,45,32
34,15,45,31
33,14,44,33
33,15,45,31
32,15,44,31
33,14,43,31
33,14,44,31
33,14,43,31
33,14,44,31
33,14,43,30
31,14,43,31
31,14,43,30
31,14,43,31
31,14,42,30
31,14,42,30
31,14,42,31
31,14,43,30
31,14,41,30
31,14,41,30
31,14,42,29
31,14,41,30
30,14,41,29
31,14,41,29
30,13,41,29
30,14,41,29
30,13,39,29
31,14,39,29
30,13,40,29
30,13,39,29
30,14,39,28
30,13,39,28
30,13,39,28
29,14,40,28
30,13,51,28
29,13,56,29
29,13,55,29
29,13,54,28
29,13,55,28
29,13,55,28
30,13,54,28
29,13,54,28
29,12,53,27
28,13,53,27
29,13,53,27
29,14,53,27
29,14,53,26
28,14,52,26
28,14,53,27
28,13,52,27
28,14,52,27
28,14,51,26
29,13,51,26
29,14,51,25
29,14,51,26
29,14,51,25
29,14,51,27
29,13,50,27
29,13,50,25
28,13,50,25
28,13,50,26
28,13,49,25
28,13,50,25
28,13,54,25
27,13,54,25
28,13,54,25
27,12,53,25
28,13,53,25
28,14,52,24
27,12,53,24
27,12,52,24
27,12,52,24
27,13,52,24
28,12,51,25
27,13,67,45
27,13,66,43
26,13,66,43
27,12,66,43
34,13,65,43
33,12,65,42
32,12,64,42
32,12,64,41
33,18,63,42
31,27,64,42
31,27,63,41
32,26,63,39
31,26,63,41
32,26,63,40
31,27,62,39
31,26,62,41
32,25,62,41
33,26,61,39
33,25,61,39
32,25,61,39
33,25,61,39
31,25,61,39
32,25,61,39
32,25,60,39
31,25,60,39
32,24,59,39
31,24,60,39
31,25,59,38
31,24,59,38
31,24,59,38
31,25,59,66
31,24,93,89
30,24,92,88
30,24,92,88
31,24,91,87
30,24,90,87
30,23,90,87
30,24,90,86
31,23,89,86
30,24,89,85
29,23,88,83
29,23,88,83
29,22,88,84
39,22,88,83
39,23,88,83
39,22,86,82
39,22,86,83
39,23,86,82
39,24,85,82
39,24,85,81
39,24,85,80
38,24,83,79
38,24,83,79
38,24,84,79
38,23,83,79
38,24,83,79
39,23,82,78
39,23,82,79
39,22,82,78
39,22,81,78
39,22,81,78
39,23,81,77
39,22,80,77
38,22,80,76
38,23,79,76
38,22,79,76
37,21,79,76
37,22,79,75
38,22,79,75
39,22,78,74
39,21,78,74
39,21,78,73
39,22,78,73
39,21,77,73
39,21,77,73
39,22,77,73
39,21,76,71
39,21,76,71
38,21,76,71
38,21,75,71
38,21,75,71
37,20,75,71
37,20,74,71
38,20,74,70
37,21,73,70
37,20,74,70
37,20,73,70
36,20,73,69
36,24,73,69
36,25,71,69
36,24,71,68
36,24,71,69
35,24,71,68
36,24,71,67
35,24,71,67
35,24,71,67
35,23,70,67
35,24,70,66
34,23,70,66
35,23,69,65
34,24,68,66
34,24,69,65
34,24,69,65
34,24,68,65
34,24,68,65
34,24,67,63
34,24,67,64
34,24,66,63
33,24,67,63
34,24,67,63
35,23,66,62
35,24,66,63
35,23,67,62
35,23,65,62
35,23,66,62
35,23,65,62
35,22,65,61
34,22,65,61
35,23,84,62
34,22,118,61
34,22,115,62
34,23,115,61
34,22,114,61
34,22,114,61
33,22,113,60
33,22,113,61
33,24,112,61
33,33,112,59
33,48,111,59
33,47,111,59
33,48,110,58
33,47,110,59
33,46,109,58
35,46,109,58
36,45,108,58
35,46,108,58
35,46,107,57
35,45,107,57
35,45,106,57
34,45,105,57
35,47,105,56
34,47,105,56
34,47,104,56
35,46,103,56
34,46,103,55
34,46,102,56
35,45,103,55
35,46,103,55
35,46,102,56
35,66,102,54
35,64,102,54
35,63,100,54
34,63,99,54
34,63,100,53
34,62,99,53
34,63,98,53
34,62,99,52
33,61,98,53
54,62,98,52
56,61,97,52
56,61,97,51
56,61,97,51
56,60,96,51
55,60,96,51
55,59,96,51
55,60,94,50
54,60,94,51
54,59,94,50
53,59,93,50
54,59,94,50
54,58,94,50
53,58,93,49
55,58,93,49
54,57,92,49
54,57,92,49
55,57,91,49
54,57,92,51
54,57,90,50
54,56,90,50
53,56,89,50
52,56,89,49
51,56,89,50
52,56,89,49
52,56,88,49
51,55,89,49
53,55,88,49
53,54,88,48
53,54,87,48
53,54,86,48
53,54,86,48
53,53,86,48
52,53,85,48
52,54,86,47
52,53,85,47
51,53,85,47
51,51,84,47
51,52,84,47
51,52,84,46
54,51,83,46
54,51,83,46
53,51,83,45
53,50,83,46
52,51,83,46
53,50,82,45
52,50,82,45
52,50,81,45
51,50,81,44
51,50,79,45
51,49,80,45
51,49,79,44
51,50,79,44
51,49,79,44
51,48,79,44
51,49,79,44
50,48,78,71
50,48,78,71
50,48,78,71
50,48,77,70
50,48,78,70
49,47,77,70
49,47,76,70
48,46,77,69
48,47,76,69
48,47,76,69
48,46,76,68
48,46,75,68
48,46,75,68
48,46,74,67
47,45,74,67
47,46,74,66
47,45,74,66
48,45,73,66
46,44,73,66
46,44,73,65
46,44,73,66
46,44,72,65
46,44,71,65
45,44,71,65
46,43,71,64
45,44,71,63
45,43,70,63
45,43,71,63
44,43,71,63
45,42,70,62
44,43,70,63
44,42,69,63
45,43,69,61
43,42,70,62
44,41,69,62
44,41,69,62
63,41,68,61
63,41,68,61
62,41,68,61
62,41,67,60
62,40,67,60
62,40,67,60
61,39,67,60
60,39,66,59
61,39,66,59
60,39,66,59
60,39,66,58
60,39,65,59
59,40,65,59
60,39,65,58
59,39,65,57
59,39,64,58
59,39,64,57
58,39,63,56
59,38,63,57
57,38,63,56
58,39,63,56
57,37,63,56
57,38,63,56
57,38,63,55
57,37,63,55
57,38,63,56
103,38,63,55
102,37,62,54
102,37,62,54
101,37,62,55
101,37,61,53
99,37,60,54
99,54,61,53
99,55,61,53
98,60,60,52
98,69,60,53
97,69,59,52
97,68,60,52
97,68,59,52
96,67,59,51
96,68,59,52
96,67,59,51
96,67,59,51
96,67,58,51
95,66,58,51
94,66,57,51
93,66,58,50
92,66,57,50
93,65,57,51
93,65,56,50
91,65,57,49
91,63,57,49
92,64,56,49
92,63,56,49
91,63,56,49
90,63,56,49
89,63,55,48
89,63,56,48
89,62,55,64
89,62,55,69
88,62,55,69
88,62,54,68
88,61,54,69
88,63,54,69
87,89,54,68
87,88,54,67
86,88,54,67
85,88,53,66
85,86,53,67
85,86,52,67
85,86,52,66
84,86,52,65
84,85,52,65
83,84,51,64
83,84,52,65
83,84,51,64
82,83,52,65
82,83,51,63
81,83,51,63
81,82,51,63
81,83,51,63
81,81,51,63
80,81,51,62
80,81,50,62
79,96,50,62
79,96,51,61
79,96,50,62
79,96,50,61
79,131,49,61
79,130,49,61
78,128,48,61
86,128,49,60
120,127,49,61
120,127,48,60
118,126,48,60
118,125,48,60
117,125,48,59
116,124,48,59
115,124,48,58
115,123,47,59
115,122,46,57
114,121,46,58
114,121,47,57
113,121,47,57
113,120,46,56
112,120,45,56
111,119,47,56
110,118,48,56
110,118,47,56
110,117,46,56
109,116,46,55
108,115,46,55
109,116,51,55
108,115,56,54
107,114,56,55
107,114,57,54
105,113,56,54
105,113,55,53
105,112,55,53
105,112,55,53
103,111,56,52
103,111,54,52
103,110,55,52
103,110,54,52
102,110,53,51
102,109,54,51
101,108,53,51
101,108,52,51
100,108,52,50
100,106,52,52
99,106,52,51
99,105,52,51
99,105,52,51
98,105,51,51
97,105,51,50
98,103,51,51
96,103,50,50
97,103,50,50
96,102,50,50
96,102,50,49
95,102,50,49
95,101,49,49
94,101,49,49
94,100,49,48
93,100,49,48
93,99,48,48
93,99,48,48
93,99,48,48
92,98,48,48
92,98,48,47
91,97,47,47
91,97,48,47
91,97,47,47
90,96,48,47
90,96,47,50
89,96,47,49
89,96,46,49
89,95,47,49
89,94,46,49
88,94,46,49
88,94,46,49
88,94,45,48
88,93,45,48
87,93,46,48
86,92,65,46
87,92,64,48
86,91,65,48
85,92,63,47
85,92,63,46
85,91,63,46
84,90,63,46
83,90,63,45
84,90,63,46
84,89,62,46
83,89,62,45
83,89,62,45
82,88,61,45
83,88,61,45
83,88,61,45
82,88,61,44
82,87,60,45
82,86,60,44
81,86,60,44
81,85,60,44
80,85,59,43
80,85,59,43
81,85,59,43
79,84,59,43
79,84,58,43
79,83,59,43
79,83,57,43
78,83,57,42
78,83,57,42
78,82,57,42
77,82,57,42
77,82,57,42
77,82,56,41
77,81,56,42
77,81,56,58
76,81,56,57
76,79,56,56
76,79,55,57
75,79,55,56
75,79,55,56
75,79,55,56
75,78,55,56
75,79,56,56
74,78,54,54
74,78,54,54
73,77,54,54
73,77,53,54
71,76,53,54
73,77,53,53
71,76,53,53
71,76,52,53
71,75,52,52
71,75,52,52
71,75,51,53
71,74,51,52
70,75,52,51
71,74,51,51
70,74,51,51
69,73,51,51
69,74,51,51
69,73,50,50
69,73,50,50
68,71,51,50
68,71,49,49
68,71,49,49
67,71,49,49
67,71,49,49
67,71,49,49
67,71,48,49
66,70,49,49
66,70,48,49
66,69,48,49
66,70,48,48
66,70,48,48
65,68,48,48
65,68,48,47
65,68,47,47
65,68,48,48
74,68,47,48
74,68,47,47
73,67,46,47
71,67,46,46
71,67,46,46
71,67,46,46
71,66,45,46
71,66,45,46
71,66,45,45
71,65,45,46
70,65,45,45
70,65,45,45
70,65,45,44
70,64,45,45
69,64,45,80
69,64,45,79
68,63,44,78
68,63,44,77
69,63,43,78
67,63,43,78
67,63,43,77
67,63,43,76
67,63,43,76
67,62,43,76
66,62,42,75
66,62,43,75
65,61,42,75
66,61,41,75
66,61,43,73
65,61,42,74
65,60,42,73
65,60,42,73
63,60,41,72
63,60,41,73
64,60,41,73
63,61,41,71
63,61,41,71
63,60,39,71
63,60,39,71
63,60,47,70
76,60,47,70
74,60,46,69
75,59,46,70
74,59,46,69
73,59,46,70
73,59,45,69
73,58,46,68
73,58,45,68
71,57,45,68
73,57,58,120
72,58,57,118
71,57,57,117
71,57,57,116
71,56,58,117
70,56,56,115
70,57,57,114
70,56,56,114
70,56,56,113
70,56,56,113
69,56,56,113
69,56,56,112
68,55,55,112
69,55,55,111
69,55,54,110
67,54,54,110
69,53,54,109
67,54,54,108
67,53,53,108
67,53,53,108
66,53,54,107
66,53,53,107
67,51,53,106
65,53,53,105
65,52,52,105
65,52,52,105
65,52,52,103
64,52,87,103
64,51,86,103
64,51,86,103
64,51,85,102
63,51,84,102
63,51,83,102
63,50,83,102
62,50,83,101
63,50,83,101
62,50,82,100
62,49,81,99
62,49,82,99
62,49,81,99
61,48,81,98
61,48,81,98
60,48,79,97
61,70,80,97
60,98,79,97
60,97,79,96
59,96,79,96
60,96,78,95
60,95,79,96
59,94,78,95
59,94,78,94
59,94,78,94
59,94,78,94
58,93,77,93
64,94,76,93
66,93,76,92
65,92,76,92
65,92,75,91
65,92,75,91
64,91,75,91
65,90,75,91
65,91,74,91
63,89,73,89
63,89,73,89
63,89,73,89
63,89,74,97
63,89,76,96
63,88,76,96
62,88,75,96
62,88,75,96
62,87,75,95
62,86,74,95
62,86,75,94
61,86,73,94
61,85,73,93
60,84,73,93
60,85,73,92
59,83,73,92
60,83,73,91
60,83,71,92
60,82,71,91
59,83,71,90
59,82,71,90
59,82,71,90
59,82,70,90
58,82,70,89
57,81,70,88
57,81,70,88
58,80,69,88
57,80,69,88
57,79,69,88
57,79,69,87
56,79,69,87
57,78,69,86
56,78,69,86
56,79,67,86
56,78,67,85
56,78,67,85
55,77,67,85
55,77,66,83
55,76,67,83
56,76,66,83
54,76,66,83
55,76,66,83
54,75,65,82
54,75,65,82
54,74,64,82
54,75,65,82
54,74,64,82
53,73,63,80
52,73,63,80
53,73,80,125
52,72,79,123
52,73,79,122
51,71,79,121
51,71,78,120
51,71,78,120
51,71,78,120
51,71,77,120
55,71,77,118
56,70,76,118
56,70,77,118
56,70,76,117
56,70,76,116
55,69,75,115
55,68,75,115
55,69,74,115
54,68,75,114
54,67,73,114
54,67,73,114
54,68,73,113
54,67,73,112
63,67,71,112
63,66,71,111
62,66,71,111
62,66,71,110
61,65,71,110
62,65,71,109
61,65,70,109
61,65,70,108
61,65,70,108
60,63,70,107
60,64,69,107
63,64,69,106
65,63,69,106
65,63,68,105
65,63,68,105
63,63,67,105
63,62,67,103
63,62,67,103
63,62,68,103
62,62,67,103
63,62,67,102
62,61,67,102
62,61,67,102
61,88,65,100
61,88,66,100
61,88,65,100
61,86,65,99
61,86,65,99
60,86,65,99
60,86,63,99
59,85,63,98
60,84,63,98
60,83,63,97
59,84,63,97
58,83,63,96
58,83,63,96
58,83,63,96
59,83,62,96
61,82,62,95
61,81,62,95
61,81,62,95
60,81,61,94
61,81,62,94
60,80,60,93
60,81,60,93
59,79,60,92
58,79,61,92
58,79,60,92
59,79,59,91
58,78,59,91
58,78,59,91
58,78,59,90
58,77,59,91
57,76,59,89
57,76,58,89
57,76,59,88
56,76,57,88
57,76,57,88
56,75,57,88
56,76,56,88
56,75,57,87
55,75,56,87
56,74,58,87
55,73,58,86
55,73,58,86
56,73,57,86
55,73,57,85
54,73,57,84
54,71,57,84
53,71,57,84
54,71,56,84
53,71,56,83
53,71,56,83
52,71,57,82
52,70,60,83
52,71,60,82
52,70,59,81
51,70,59,81
52,70,59,81
51,69,59,80
51,69,59,81
51,68,58,81
51,68,57,79
50,68,58,79
51,67,57,79
50,67,57,79
50,67,57,79
50,66,57,78
49,67,57,78
49,66,56,78
50,67,56,97
49,65,56,97
49,66,56,96
49,65,56,95
48,66,55,95
48,65,55,96
48,64,55,94
48,64,55,94
47,63,54,94
47,63,54,93
47,63,54,93
48,63,54,92
47,62,54,92
66,62,53,92
66,62,53,91
65,62,53,91
65,62,53,91
64,61,52,91
65,61,52,89
65,61,51,89
63,62,51,88
63,61,52,89
63,60,51,88
63,60,51,88
63,60,54,88
62,60,64,88
63,60,63,87
62,59,63,86
63,59,63,86
62,59,63,85
61,58,63,85
61,57,63,85
61,58,62,84
61,58,62,84
60,57,62,84
60,57,62,83
59,57,61,83
60,57,61,82
60,57,61,82
59,56,60,83
60,56,60,82
59,56,60,81
58,56,60,83
59,56,59,96
58,55,59,95
59,56,59,94
58,55,59,94
57,55,58,94
57,54,58,94
57,54,58,93
57,54,58,93
57,53,59,92
56,53,59,92
56,53,59,91
56,53,59,91
56,62,58,90
57,61,57,90
55,62,57,89
56,61,58,89
55,61,57,89
55,61,57,89
54,60,57,88
54,61,56,88
54,60,56,88
54,59,57,87
53,60,55,88
53,58,56,86
54,59,55,86
52,58,55,86
52,58,55,86
53,58,55,85
53,57,54,84
53,57,54,84
51,57,54,83
51,57,54,83
51,57,53,83
51,57,53,83
51,56,53,82
52,57,54,83
52,56,52,82
52,56,52,81
51,56,53,81
51,55,51,81
51,55,51,81
51,54,51,80
51,54,51,79
51,54,51,79
50,54,51,79
50,54,50,79
50,53,50,78
50,54,50,78
50,53,51,78
50,53,50,78
50,52,49,78
49,52,49,77
49,51,49,77
49,51,49,76
49,52,49,76
49,52,48,76
48,51,49,76
48,51,48,75
48,51,48,75
49,51,100,124
47,50,146,122
48,50,145,121
47,50,144,120
46,50,142,120
47,49,142,120
47,49,142,119
46,50,141,118
47,48,140,117
46,49,139,116
45,48,138,117
45,48,138,115
45,48,137,115
45,48,137,115
45,48,135,114
46,47,135,114
45,47,135,113
44,47,134,112
44,47,134,112
44,47,132,112
44,46,131,111
43,46,131,110
43,46,131,109
43,46,131,108
43,46,130,108
43,45,129,109
43,46,128,107
43,44,127,107
42,45,127,107
42,44,126,106
41,45,127,105
41,44,125,105
41,44,125,105
41,44,124,103
41,44,124,103
41,43,124,103
41,43,123,103
43,43,123,102
44,43,121,102
45,43,121,101
44,42,121,102
44,43,120,101
44,42,120,101
43,42,119,100
44,42,119,103
43,42,129,103
43,41,129,103
43,41,127,102
42,41,127,102
49,39,127,102
53,39,126,101
52,41,126,100
52,41,125,100
51,41,124,99
51,41,124,98
51,41,123,98
51,39,123,98
50,39,122,98
51,39,121,98
50,39,121,97
50,39,121,96
50,39,120,96
49,39,120,95
49,39,120,95
49,38,118,95
49,39,118,94
49,38,118,94
48,38,117,94
48,38,116,93
48,38,115,93
48,39,115,92
48,39,115,92
47,39,114,91
48,39,115,92
50,39,114,90
50,39,113,90
49,39,113,91
50,39,112,95
49,38,112,97
48,38,112,97
49,38,110,97
48,38,110,96
49,38,110,96
48,38,109,95
48,37,109,94
48,37,109,95
48,37,108,94
47,37,108,94
47,37,107,93
47,43,107,93
47,43,107,92
46,42,106,92
46,43,105,92
46,43,106,91
46,42,105,91
45,42,103,90
46,42,103,90
46,42,103,90
102,42,103,89
101,41,103,88
100,41,102,89
99,39,102,88
99,39,102,88
99,39,101,88
98,39,101,88
98,39,100,88
97,39,101,88
96,39,99,87
97,39,99,86
96,45,99,86
95,49,98,86
95,48,98,85
94,48,98,85
94,48,97,84
93,48,97,84
93,47,97,84
93,47,96,83
92,48,96,83
92,46,96,82
92,46,96,83
91,46,95,83
91,46,94,81
90,46,94,82
89,46,93,81
89,46,93,81
90,45,93,81
89,45,93,81
89,45,93,79
88,45,92,79
88,44,92,83
89,48,120,169
88,52,155,167
88,52,153,165
87,51,152,163
86,51,151,163
85,51,151,162
86,50,150,162
87,50,149,161
85,50,147,159
86,50,147,159
85,50,147,158
84,71,146,157
84,70,145,157
83,70,145,156
83,70,143,155
83,69,143,155
82,69,142,153
82,69,142,153
82,67,143,152
81,68,141,152
81,68,140,151
80,67,141,150
80,67,140,149
79,67,139,148
79,66,138,147
79,66,137,147
79,65,137,146
79,65,135,145
78,65,135,145
78,65,135,144
78,64,135,143
78,63,134,143
77,64,134,142
77,63,133,141
77,63,132,141
76,63,132,141
76,62,131,140
76,62,131,140
76,62,130,139
76,62,129,138
75,61,129,137
74,61,129,137
75,61,127,135
74,60,127,135
74,60,127,135
74,60,126,135
73,60,125,140
73,59,125,139
71,59,124,138
71,59,124,137
71,58,124,137
71,59,123,137
71,57,123,135
71,57,122,135
70,57,121,135
70,57,121,134
70,56,120,133
69,56,120,133
70,60,120,132
69,60,119,131
68,59,119,131
69,59,117,130
67,58,118,130
68,58,116,130
67,58,115,129
68,57,115,127
67,57,115,128
67,57,115,127
67,56,115,126
65,56,113,126
65,56,113,125
65,56,113,124
66,56,112,124
65,55,112,124
64,55,111,123
63,55,110,123
63,54,110,121
63,54,110,122
63,54,109,121
63,53,109,120
63,53,108,120
63,53,108,120
62,53,108,119
62,53,107,118
62,52,107,118
61,52,106,118
61,51,107,117
62,51,105,116
60,51,105,115
61,51,103,115
60,51,103,115
60,51,103,114
60,50,103,114
59,51,103,113
59,50,102,113
59,49,103,112
58,49,102,111
58,49,101,111
59,49,100,111
58,49,100,111
57,49,100,110
58,48,99,109
57,48,99,109
57,48,99,109
56,48,99,108
56,48,98,108
56,47,98,108
56,47,97,107
55,46,97,107
56,47,96,106
55,46,96,106
55,46,96,105
54,46,95,105
54,46,95,105
55,45,95,103
55,46,94,103
54,48,93,103
53,47,93,103
54,47,93,103
53,47,92,102
53,47,92,101
52,46,92,101
53,46,92,100
52,46,91,101
52,45,91,99
53,45,91,99
52,46,91,99
53,44,89,99
51,45,89,98
51,45,89,98
51,44,89,97
51,45,88,97
51,44,88,97
50,45,88,96
50,44,88,97
50,44,88,96
50,44,87,95
50,43,87,96
50,44,86,96
49,43,86,94
49,43,85,94
49,42,85,94
48,42,85,93
49,42,85,93
48,42,83,93
48,41,84,93
48,42,83,92
49,42,83,92
48,41,83,97
48,42,83,152
47,41,83,152
47,41,83,152
47,39,82,150
47,41,82,150
46,39,81,149
46,39,81,148
46,39,81,147
46,39,80,146
45,39,80,146
46,39,79,145
45,39,79,145
45,39,79,145
45,39,79,181
46,39,78,199
46,39,78,199
46,39,78,197
46,39,78,225
45,38,78,223
45,38,77,222
45,39,77,220
45,37,77,220
45,37,76,217
44,38,76,217
44,37,75,216
44,36,75,215
44,37,75,214
44,37,75,212
43,36,75,211
43,36,74,210
43,36,73,210
43,35,73,208
43,36,73,209
42,35,73,206
42,36,72,206
42,35,71,205
42,35,71,204
43,35,71,203
42,35,71,203
41,35,71,201
41,34,71,201
43,34,71,199
41,34,71,198
42,39,70,197
41,38,70,197
41,38,69,195
39,38,69,195
41,37,69,194
39,37,69,193
39,37,69,192
41,36,69,192
39,37,67,191
39,37,69,190
39,37,67,189
39,36,67,189
39,35,67,188
39,36,67,187
39,36,67,185
38,35,67,184
39,35,66,184
38,35,66,184
38,34,65,183
38,35,65,182
38,34,65,182
44,34,64,180
43,35,65,179
44,34,65,178
43,34,65,178
44,35,64,177
44,59,64,177
44,58,63,176
43,57,63,176
43,57,63,175
42,57,63,174
42,57,63,173
41,57,62,172
42,56,62,172
41,56,62,171
42,56,62,170
41,56,62,170
42,56,61,169
41,55,61,167
41,55,61,167
39,55,61,167
41,54,60,166
39,53,60,166
39,54,60,165
39,54,92,165
68,54,91,163
67,53,90,163
67,53,90,162
66,52,90,162
66,51,89,161
66,52,88,160
66,52,88,159
65,52,88,159
65,51,87,158
65,51,86,157
63,50,86,157
64,50,85,156
63,51,85,155
63,50,85,156
63,50,84,153
62,49,84,153
62,49,84,153
62,49,84,153
61,49,83,152
61,48,83,151
61,48,82,150
61,48,83,151
60,48,82,149
60,48,82,149
60,46,81,149
110,48,81,148
108,47,80,147
108,47,79,147
107,47,79,145
107,46,79,145
105,46,79,143
105,46,78,143
103,46,78,143
103,45,78,143
103,45,78,143
103,45,77,141
103,44,77,141
102,44,76,140
101,44,76,140
102,45,76,139
101,44,75,139
99,44,76,138
99,43,76,138
99,44,74,137
99,44,74,135
98,43,74,135
99,43,73,135
98,43,73,134
97,43,73,134
96,43,71,134
96,43,71,134
96,43,71,133
96,42,71,132
95,42,71,131
94,42,71,131
94,42,71,131
93,41,71,130
94,41,70,130
92,41,70,129
93,41,69,128
92,41,69,127
92,41,70,127
91,40,69,127
91,39,68,126
90,40,69,127
91,39,68,125
89,39,67,125
89,39,67,124
89,39,67,124
88,39,66,124
88,39,86,123
88,39,95,123
88,39,94,123
87,39,93,121
87,38,92,121
86,39,92,121
87,38,91,120
85,38,92,120
86,38,91,120
84,38,91,119
85,37,90,119
83,38,89,117
84,38,89,117
83,37,89,117
83,37,88,117
82,37,88,115
82,36,88,115
82,37,87,115
82,36,88,156
81,36,87,154
81,35,86,153
80,36,86,153
79,36,86,152
81,36,85,152
79,35,85,152
79,35,85,150
79,35,84,149
78,35,84,148
78,35,83,148
78,35,83,147
78,34,83,146
77,34,82,146
77,34,82,145
77,34,82,145
76,48,81,143
76,47,80,143
75,47,80,143
75,46,79,142
75,46,79,142
76,45,79,141
75,45,79,140
76,46,79,140
75,45,79,139
75,45,78,138
74,45,77,138
74,45,77,137
74,44,78,136
74,44,77,135
71,44,76,135
73,44,76,135
71,44,76,135
72,43,76,134
71,43,75,133
71,43,75,133
71,43,74,132
71,43,74,131
71,43,73,130
70,42,73,130
70,42,74,129
70,42,73,129
70,42,73,129
69,42,73,127
69,41,71,127
68,41,71,127
68,39,71,126
68,39,71,126
68,40,71,125
68,39,71,125
67,41,71,124
67,39,70,124
67,39,70,123
66,39,70,123
66,39,69,122
65,39,69,123
65,39,69,121
65,39,69,121
65,39,67,120
65,38,67,120
65,39,67,118
64,39,67,118
64,38,67,118
63,38,67,118
64,38,66,117
63,37,66,117
63,38,66,115
63,37,65,115
63,37,65,115
63,36,65,115
62,37,65,114
62,36,65,114
61,37,65,114
62,36,64,114
61,36,63,112
61,35,63,112
61,36,63,112
61,36,63,112
60,36,63,111
60,35,63,110
60,35,62,109
60,35,61,110
59,35,61,109
59,34,61,109
59,34,62,109
59,34,61,108
59,34,61,107
58,34,60,107
58,34,60,107
57,34,60,107
58,33,60,106
57,33,59,105
57,33,60,105
57,33,59,103
57,33,59,103
56,33,58,103
56,33,58,103
56,32,58,103
55,33,58,103
56,32,57,102
56,31,58,102
56,32,57,102
55,31,57,101
55,32,56,101
56,31,57,100
55,31,57,99
54,31,56,99
53,31,56,99
54,31,56,99
53,31,56,99
53,31,56,98
53,31,56,98
54,30,55,98
52,30,55,98
53,30,54,96
52,31,54,97
53,30,54,96
51,30,54,96
51,30,54,96
51,30,54,95
51,30,53,96
51,29,53,94
51,29,53,94
50,29,53,94
51,29,52,103
51,30,52,121
51,29,52,121
51,29,52,120
50,29,52,119
50,28,51,119
51,29,51,117
49,28,51,117
50,28,51,117
49,28,51,116
49,28,51,115
51,28,51,115
51,28,50,115
51,28,49,114
52,27,50,114
51,53,50,114
51,60,49,112
51,59,50,112
50,59,49,112
50,59,49,112
51,59,83,111
49,58,82,110
50,59,82,110
50,57,81,109
49,58,82,109
49,57,81,108
49,57,81,108
49,56,79,108
48,56,79,107
49,56,79,107
48,56,78,105
48,55,78,105
47,55,78,105
47,55,78,105
47,54,78,103
47,54,77,103
50,54,77,103
50,54,76,103
50,54,76,102
50,53,76,102
50,53,75,101
49,52,75,101
50,52,75,101
48,52,74,100
49,52,75,100
49,52,73,99
48,51,73,99
48,51,73,98
48,51,73,98
48,51,72,99
48,51,71,97
47,50,71,98
47,50,71,96
47,50,71,96
46,50,71,96
47,50,78,118
47,49,79,117
46,49,78,117
46,49,78,115
46,49,77,115
46,48,77,115
45,48,77,113
45,48,77,113
45,48,76,113
45,48,76,112
44,48,76,112
44,47,75,111
44,47,74,111
44,47,75,110
43,46,74,110
44,46,74,109
43,46,73,109
44,46,73,108
43,46,73,108
43,46,72,108
43,45,73,107
43,45,71,107
42,45,71,106
42,44,71,105
42,44,71,105
41,44,70,103
41,44,70,103
42,43,70,103
42,43,70,103
41,43,70,103
41,43,69,103
75,44,69,101
75,43,68,102
74,42,68,101
74,43,67,101
73,43,67,99
73,42,67,100
73,42,67,99
71,43,67,98
72,41,67,98
71,41,67,98
71,41,66,98
71,41,65,97
71,41,66,97
73,41,65,96
71,41,65,96
71,39,65,96
71,39,65,96
71,39,63,95
71,39,64,95
70,39,63,94
71,39,63,93
70,39,63,94
70,39,63,94
69,39,63,92
69,39,63,92
69,39,62,93
69,39,62,92
68,39,61,91
68,38,62,91
67,38,61,91
67,39,61,90
67,37,61,90
67,37,60,89
66,38,60,89
65,38,60,89
65,37,61,89
66,37,60,89
65,37,60,88
65,37,60,88
65,37,59,88
63,37,59,88
63,36,58,88
63,35,58,86
63,36,58,87
63,37,57,86
63,36,57,86
63,35,57,85
62,35,57,85
