18,24,27,89
18,24,27,89
18,24,26,88
18,24,27,88
18,24,26,88
18,24,26,88
18,24,26,87
17,24,26,86
17,24,26,86
18,24,26,86
36,24,25,85
36,23,25,85
36,23,25,85
35,23,25,84
35,23,25,83
35,23,25,83
35,22,25,83
35,22,24,83
35,22,25,82
35,22,24,82
34,22,24,82
34,22,24,81
34,22,24,105
34,22,24,105
33,21,24,105
33,21,24,103
33,21,24,103
33,21,24,103
33,21,24,102
33,20,24,102
32,21,24,101
32,20,23,101
32,20,23,100
31,20,23,100
31,20,22,99
31,20,23,99
31,19,22,98
31,19,22,98
31,19,22,98
31,20,22,97
31,26,22,97
31,26,22,96
30,26,22,96
30,26,22,96
30,26,21,95
30,25,21,95
30,26,21,94
30,25,21,94
30,25,21,93
30,25,21,93
29,25,21,92
30,25,21,92
30,25,21,92
29,25,20,91
29,24,20,91
29,25,20,91
29,25,20,90
29,24,20,89
28,24,19,89
28,24,20,89
28,24,19,89
28,24,19,91
28,24,19,91
28,24,19,90
28,24,19,90
28,24,19,89
27,24,19,89
27,23,19,89
27,23,19,88
27,23,19,88
27,23,19,88
26,23,19,88
27,23,18,87
27,22,19,87
27,22,18,89
31,22,19,89
31,22,19,88
31,22,19,88
30,22,18,88
30,22,19,88
30,22,18,87
30,21,18,87
30,21,18,86
30,21,18,86
30,21,18,85
29,21,18,85
29,21,29,86
36,21,29,90
36,20,29,89
36,21,28,89
35,21,28,88
35,20,28,88
35,20,28,88
35,20,28,88
35,20,28,88
34,19,28,87
34,19,27,87
34,19,27,86
34,19,27,86
34,19,27,85
34,19,27,85
33,19,27,85
34,19,27,84
34,19,27,83
33,19,27,83
32,19,27,83
33,18,26,83
33,19,26,82
32,19,25,82
32,18,25,81
32,18,26,81
31,18,25,81
31,18,25,81
31,18,25,91
31,18,25,90
31,18,25,90
31,18,24,89
31,18,25,89
31,17,25,89
31,17,24,88
30,17,24,88
30,17,24,88
30,17,24,87
30,17,24,86
30,17,24,86
30,17,24,86
30,16,24,86
30,16,23,85
29,17,23,84
30,16,23,84
29,16,23,84
29,16,23,83
29,16,23,83
29,16,22,83
29,15,22,82
29,15,23,82
29,16,23,81
28,15,22,81
28,15,22,81
28,15,22,80
28,15,22,79
28,15,22,79
28,15,21,79
28,15,21,79
28,15,21,79
27,15,21,79
27,15,21,78
27,15,21,78
27,15,20,77
27,15,20,77
27,15,21,76
27,14,21,77
26,14,21,77
26,14,21,76
26,14,20,76
26,14,20,75
26,14,20,75
25,14,21,75
25,14,20,74
25,14,19,74
25,14,20,73
25,14,20,73
25,14,19,73
25,14,21,73
25,13,24,71
25,14,24,71
25,13,24,71
25,14,24,71
25,13,24,71
25,13,24,71
25,13,24,71
25,13,24,70
24,13,24,70
25,13,23,70
24,13,24,69
24,13,23,69
24,13,22,69
24,12,23,69
25,13,23,68
61,13,24,69
63,13,24,69
62,13,24,68
61,12,24,68
61,13,24,68
61,13,24,67
61,12,24,67
60,12,23,67
60,13,24,67
60,12,23,67
60,12,23,66
59,12,23,66
59,12,23,66
58,12,23,65
58,12,25,65
58,12,25,65
57,14,25,65
57,15,24,64
57,15,24,64
57,16,24,64
57,15,24,63
56,15,24,63
56,15,39,63
56,15,44,63
56,15,44,63
56,15,47,64
60,15,46,65
59,15,46,64
59,15,46,63
58,15,46,63
58,15,46,63
58,15,45,63
58,14,45,63
57,15,45,63
57,15,44,62
57,15,44,62
56,15,44,62
56,15,46,62
56,15,134,62
56,14,176,64
56,14,174,66
56,14,173,66
55,14,172,66
55,14,171,65
54,14,170,65
54,14,169,65
54,14,168,64
53,14,167,63
53,13,167,63
53,14,166,63
53,13,165,63
53,13,164,63
52,13,163,62
52,13,163,62
52,15,162,62
51,27,161,62
51,27,161,61
51,27,159,62
51,27,159,61
50,26,158,61
50,26,158,60
50,26,157,60
50,26,156,60
49,25,156,61
89,25,155,60
88,25,154,60
87,25,153,59
87,25,153,60
86,25,152,59
86,25,152,59
85,25,151,59
85,25,151,59
84,25,149,58
84,25,149,58
83,25,148,58
83,24,147,57
82,24,147,57
82,25,146,57
82,25,146,57
81,24,145,56
81,24,144,56
80,24,143,56
80,24,143,56
79,24,143,56
79,24,142,56
79,24,141,55
79,24,141,55
78,23,140,55
78,24,140,60
78,24,139,60
77,23,138,59
77,32,138,59
77,33,137,59
76,32,137,59
76,32,135,58
76,31,135,58
75,31,135,58
75,31,135,57
75,31,134,57
74,31,134,57
74,31,133,57
73,31,132,58
71,31,131,57
73,30,131,57
72,30,131,56
71,31,130,56
71,69,129,56
71,68,129,56
71,68,128,56
71,67,127,56
70,67,127,55
70,67,127,55
70,66,126,56
117,66,126,55
124,66,126,55
123,73,125,54
121,73,124,54
121,75,124,54
120,74,123,53
120,74,123,53
119,73,122,53
118,73,121,53
118,73,121,52
117,71,121,52
116,71,120,52
116,71,120,51
115,71,119,51
115,71,118,51
114,75,118,51
114,74,118,51
113,74,117,51
113,73,116,51
112,73,115,50
112,71,115,50
111,71,115,50
110,71,114,50
110,71,114,49
109,71,114,49
109,71,113,49
108,71,113,49
108,77,112,48
107,81,112,49
107,81,111,48
106,79,111,48
105,79,110,48
105,79,110,48
105,79,110,48
103,79,109,48
103,78,108,48
103,78,108,47
103,77,108,47
103,77,107,46
102,77,107,46
102,76,106,46
102,76,105,46
101,76,105,46
100,75,104,46
99,75,103,46
99,75,103,45
99,74,103,45
99,74,103,45
98,73,103,45
98,73,102,44
97,71,102,44
97,71,102,44
96,71,101,44
96,71,100,44
96,71,101,44
95,71,99,43
94,71,99,44
94,71,99,44
94,70,99,44
93,70,98,43
93,70,98,43
93,69,97,43
92,69,97,42
92,68,97,43
91,68,96,42
91,67,96,42
91,67,96,42
91,67,96,42
90,67,95,41
89,67,95,41
89,66,94,41
89,75,94,41
88,78,94,41
88,78,94,41
88,77,93,41
88,77,93,41
88,77,92,39
87,76,92,41
86,76,92,40
86,75,91,39
86,75,91,39
85,75,91,39
85,75,90,39
84,74,90,39
84,73,89,39
84,73,89,45
83,73,89,45
83,73,89,45
83,75,88,45
82,77,88,45
82,77,88,45
82,77,87,45
82,76,88,45
81,76,87,44
81,76,87,44
81,75,86,44
80,75,86,44
79,75,85,43
79,74,85,43
79,74,85,43
79,73,84,43
79,73,84,43
78,71,84,43
78,71,83,43
78,71,83,42
77,71,83,41
77,71,83,41
76,71,82,41
76,71,82,41
76,70,82,41
76,71,81,41
75,70,81,50
75,70,81,61
75,69,81,60
75,69,79,60
74,68,79,60
74,67,79,59
74,67,79,59
73,67,79,59
73,67,78,59
73,67,78,58
71,67,78,58
72,67,78,58
71,66,77,57
71,66,77,98
71,65,77,97
71,65,77,96
70,65,76,96
71,64,76,95
71,64,76,95
70,63,75,95
70,63,75,94
70,99,75,93
69,98,75,93
69,98,74,92
68,98,74,92
68,97,73,92
68,97,73,92
67,96,73,91
70,96,73,91
69,96,73,90
69,95,72,89
68,94,71,89
67,94,71,89
68,94,71,89
67,93,71,88
67,93,71,88
67,92,71,88
67,92,70,87
66,92,71,86
66,91,70,86
66,91,70,86
65,90,69,86
65,90,69,86
65,89,69,85
64,89,69,85
65,89,69,85
64,120,68,83
63,119,67,83
63,119,68,83
63,118,67,83
63,117,67,82
63,116,67,82
63,115,67,99
66,115,67,99
65,115,66,98
65,114,66,97
65,114,66,97
65,113,65,96
64,113,65,96
63,112,65,96
63,111,64,95
63,111,64,95
63,110,63,94
63,110,63,94
62,109,63,93
74,109,63,93
74,108,63,93
73,108,62,92
73,107,63,92
73,107,62,92
71,106,62,91
71,105,62,90
71,105,62,90
71,105,61,89
71,103,61,89
71,103,61,89
70,103,61,88
70,103,60,108
69,103,60,107
69,102,60,107
68,101,60,106
67,101,59,105
67,100,59,105
67,100,59,104
67,99,59,103
67,99,59,103
67,98,58,103
67,98,58,102
66,98,57,102
66,97,57,101
65,97,57,101
65,96,57,100
65,96,57,100
65,96,57,99
64,96,56,99
63,95,56,99
63,94,56,98
63,94,56,98
63,93,56,97
63,93,55,97
63,93,55,96
62,93,55,96
62,92,55,99
62,92,55,98
61,91,55,98
62,91,54,97
61,91,54,97
61,89,54,96
61,89,54,96
60,89,53,96
60,89,53,95
60,88,53,95
60,88,53,94
59,88,53,94
59,88,52,93
59,87,52,126
58,87,52,126
59,86,51,125
58,86,51,124
58,86,51,124
57,85,51,123
57,85,51,122
57,84,51,121
57,84,50,121
57,83,50,121
56,83,50,120
56,83,49,119
56,83,50,119
56,82,49,118
56,82,49,118
55,81,49,117
55,81,49,117
55,81,48,115
54,80,48,115
54,79,48,115
54,79,48,114
54,79,48,114
53,79,47,113
53,78,48,113
53,78,47,112
55,78,47,112
57,77,47,111
56,77,47,111
56,77,46,111
56,77,46,110
56,76,46,109
56,76,46,109
56,76,46,108
55,75,45,108
54,75,45,108
54,75,45,107
54,74,45,106
59,74,45,130
60,73,45,129
59,73,44,127
58,73,44,127
58,73,44,127
58,71,44,126
57,71,44,125
57,71,44,125
57,71,44,124
57,71,43,124
56,71,43,123
56,70,43,123
56,70,43,122
56,70,57,124
55,70,79,124
55,69,80,123
55,69,79,123
54,68,79,122
55,68,78,121
54,68,78,121
54,67,77,120
53,67,77,120
53,67,77,120
53,67,76,119
53,66,76,118
52,67,76,118
52,66,76,117
51,66,75,116
52,65,74,116
51,65,74,115
51,64,74,115
51,64,73,114
51,64,73,114
50,63,73,113
50,63,73,113
50,63,71,112
50,63,71,112
49,63,71,112
49,62,71,111
49,62,71,110
49,62,70,110
49,62,70,110
49,61,70,109
48,61,70,109
48,61,69,108
48,61,69,108
47,61,69,107
47,60,69,106
47,60,68,106
47,60,68,105
46,59,67,105
46,59,67,103
46,59,67,103
46,58,67,103
46,58,66,103
46,58,66,103
45,58,66,102
46,57,65,102
45,57,65,101
45,57,65,101
45,57,64,100
45,57,64,100
130,56,101,142
127,56,110,141
127,56,109,140
126,56,109,139
125,55,108,139
124,55,108,137
124,54,107,137
123,54,106,135
122,54,106,135
121,54,105,135
121,54,103,134
120,54,103,133
120,53,103,132
120,53,103,132
119,53,103,131
118,52,102,131
117,52,102,130
116,52,101,129
116,52,101,128
115,51,100,127
115,51,99,127
114,51,99,126
113,51,98,126
113,50,98,125
112,50,97,125
112,50,97,125
112,49,96,124
111,49,96,123
110,49,96,122
110,49,96,122
109,49,95,121
109,49,94,121
108,48,94,120
108,48,93,120
107,48,100,176
107,48,111,203
106,48,110,201
106,47,110,199
105,47,109,199
103,47,108,198
103,46,108,196
103,46,107,195
103,46,106,194
103,46,106,193
102,46,105,192
102,46,105,191
101,45,103,190
100,45,103,189
100,44,103,188
99,44,103,187
99,45,102,187
99,44,102,185
98,44,101,184
98,44,101,184
97,44,100,183
97,43,100,182
96,43,99,181
96,43,99,179
96,43,99,179
95,42,98,178
95,42,98,177
94,42,98,177
94,42,97,176
93,42,96,176
93,41,96,175
93,41,96,174
92,41,95,173
92,41,95,172
91,41,94,172
91,41,94,171
91,41,94,170
90,39,93,169
90,40,93,167
89,39,92,167
89,39,92,167
89,39,92,166
88,39,91,165
88,71,91,164
88,91,90,163
88,90,90,163
87,90,89,163
86,89,89,161
86,89,89,161
86,88,88,161
85,88,88,159
84,88,88,159
84,87,87,159
84,86,87,158
84,86,87,157
83,85,86,156
83,86,86,156
83,85,85,155
82,84,85,154
82,83,85,154
82,83,84,153
81,83,84,152
80,83,83,152
81,82,83,152
80,82,83,151
80,82,83,150
79,81,83,149
79,81,82,149
79,81,82,148
79,80,82,147
79,79,81,147
78,79,81,146
78,79,81,149
77,78,80,149
77,78,79,147
94,78,79,147
93,77,79,146
92,77,79,146
92,76,79,145
91,76,78,144
92,76,78,143
91,76,78,143
90,75,77,143
90,75,77,142
89,75,77,141
89,75,76,141
100,74,76,140
99,73,76,140
99,73,75,139
99,73,75,139
99,73,75,138
98,71,75,137
97,71,74,137
97,71,74,135
97,71,73,135
96,71,73,135
96,71,73,135
95,70,71,134
95,70,71,134
94,70,71,133
94,69,71,132
93,70,71,132
93,70,71,131
93,69,71,131
92,69,71,130
92,68,70,129
91,67,70,129
91,67,70,129
90,70,69,128
90,69,69,127
90,69,69,127
121,69,68,126
120,68,67,126
119,68,68,125
119,67,67,125
118,67,67,124
117,67,67,124
117,66,67,123
116,66,66,123
115,66,66,122
115,65,66,121
114,65,65,121
115,65,65,121
115,65,64,120
115,64,65,120
115,64,64,119
114,63,63,118
114,63,63,118
113,63,63,118
112,63,65,117
112,63,65,117
111,62,65,115
111,62,63,115
111,62,63,115
110,61,63,115
109,61,63,114
109,73,62,114
108,82,63,113
108,81,62,112
107,81,62,112
107,80,61,112
106,80,61,111
106,79,61,111
105,79,62,110
105,78,61,110
103,78,60,109
103,78,60,109
103,77,60,108
103,77,60,108
102,77,59,108
102,76,60,107
101,76,59,106
101,75,59,106
100,75,59,105
99,75,58,105
99,74,58,105
99,74,57,105
99,73,57,103
98,73,57,103
97,73,57,103
97,73,57,103
97,72,56,102
96,71,56,102
96,71,71,102
96,71,71,101
95,71,71,101
95,71,71,100
94,70,71,99
93,70,71,99
94,70,71,99
93,69,70,100
93,69,70,161
92,69,69,171
92,68,69,171
91,68,68,169
91,67,68,167
91,67,68,167
90,67,67,167
90,67,67,166
89,66,67,165
89,66,67,163
88,66,67,163
88,65,66,163
88,65,66,162
88,65,65,161
88,65,65,160
87,64,65,159
87,64,65,159
86,63,64,158
86,63,64,157
85,63,63,157
85,63,63,156
84,63,63,155
84,62,63,155
83,62,63,154
83,62,63,153
82,62,62,152
83,61,62,152
82,61,62,151
82,60,61,151
81,60,61,150
81,60,61,149
81,60,61,148
80,60,60,148
80,59,60,147
80,59,60,147
83,59,59,146
90,59,59,145
89,58,59,144
89,58,59,143
89,57,58,143
88,57,58,142
88,58,57,142
88,58,57,141
87,57,57,141
86,57,57,140
86,57,57,140
86,56,56,139
85,56,56,139
85,56,56,138
84,56,56,137
84,56,56,135
83,56,56,135
83,56,56,135
83,55,55,135
83,56,55,134
82,68,55,134
81,67,54,133
82,67,54,133
81,67,54,132
81,66,53,131
86,66,54,131
109,66,53,130
108,65,52,130
108,65,52,129
107,65,53,128
107,65,52,127
106,64,51,127
106,63,51,127
105,63,51,126
105,63,58,126
103,63,67,125
103,63,67,145
103,62,66,186
103,62,66,184
102,61,65,184
102,61,65,182
101,61,65,181
101,63,66,180
99,62,66,179
99,62,65,178
99,62,64,177
99,61,65,176
98,61,64,176
98,61,64,175
97,61,63,174
97,60,63,173
96,60,63,173
96,60,63,172
96,59,62,171
95,59,62,170
94,59,62,169
94,59,62,167
94,59,61,167
93,58,61,167
93,59,61,167
92,58,61,165
92,58,60,165
92,57,60,163
92,57,60,163
91,57,64,162
90,57,63,161
90,56,63,161
89,56,63,159
89,56,63,159
89,56,62,159
88,56,62,158
88,56,62,157
88,55,61,157
87,55,61,156
87,55,61,156
87,54,61,155
86,54,61,154
86,54,60,154
86,54,60,153
85,54,60,152
84,54,60,152
84,54,59,151
83,53,59,150
83,53,59,150
83,53,58,148
83,53,58,147
92,53,57,147
91,52,58,147
91,52,57,146
90,51,57,145
89,59,57,145
89,59,57,143
89,58,56,143
88,58,56,143
88,57,56,142
88,57,56,142
87,57,95,141
87,57,98,140
86,56,97,165
85,56,96,166
85,56,96,165
85,56,95,164
84,56,94,163
84,56,94,162
83,55,93,162
83,54,93,161
83,54,92,159
83,54,92,159
82,54,92,159
82,54,91,158
81,53,91,157
81,53,90,157
81,52,90,156
80,52,90,155
81,52,89,154
79,51,89,154
79,66,88,153
79,66,88,152
79,65,88,152
78,65,88,151
78,65,87,150
78,64,87,149
77,64,86,149
77,63,88,166
77,63,147,171
76,63,145,170
76,63,144,169
75,62,143,167
75,62,143,167
75,61,142,167
75,61,141,166
74,61,141,165
74,61,140,164
73,60,139,163
73,60,139,162
73,60,137,161
73,59,137,161
71,59,135,159
71,59,135,159
71,59,135,159
71,59,135,158
71,59,134,156
71,59,133,156
71,58,132,156
70,58,132,154
70,58,131,154
70,57,131,153
69,57,133,153
68,57,131,152
68,56,131,151
68,56,131,151
67,56,130,149
67,56,129,149
67,56,128,148
67,55,127,147
67,55,127,146
66,54,127,146
66,54,126,146
66,54,126,145
75,54,125,144
73,53,125,143
73,53,124,143
73,53,124,142
73,52,123,141
71,52,123,141
71,52,121,140
71,51,121,139
71,51,121,139
71,51,120,139
71,51,120,137
80,51,120,137
81,50,119,137
79,51,118,135
79,50,118,135
79,50,117,135
79,58,117,134
78,58,115,134
78,57,115,133
77,57,115,133
77,57,114,131
77,57,114,131
76,56,113,131
76,56,113,130
76,56,112,129
75,56,112,129
75,55,112,128
75,55,111,127
74,54,110,127
73,54,110,127
73,54,109,126
73,53,109,126
73,53,109,125
71,53,108,125
71,53,108,139
71,53,107,139
71,52,107,138
71,52,107,137
71,57,106,136
70,120,105,135
70,119,105,135
70,118,103,134
69,118,103,134
69,116,103,132
68,116,103,131
67,115,103,131
71,115,102,131
71,115,102,130
71,113,101,129
71,113,101,129
71,113,100,127
70,112,100,127
69,112,99,127
69,110,99,126
68,110,98,126
68,110,98,125
68,109,98,125
114,109,97,124
127,108,97,124
126,107,96,123
125,107,96,122
124,106,96,121
124,105,95,121
123,105,95,121
122,103,94,120
121,103,93,120
121,103,94,119
120,103,93,118
120,103,92,118
119,102,92,118
118,101,91,117
118,100,92,117
117,100,90,116
116,99,90,115
115,99,90,115
115,99,89,114
115,98,89,114
114,98,89,113
113,97,89,113
113,97,88,112
112,96,88,124
112,96,87,123
111,96,87,123
111,96,87,122
110,95,86,121
110,94,86,120
109,94,85,120
109,94,85,120
108,93,85,119
108,93,84,118
107,92,84,118
107,92,85,161
107,91,85,263
106,91,85,261
105,91,84,259
105,89,84,257
103,89,84,255
103,94,83,254
103,94,83,252
103,93,83,251
103,92,82,250
102,92,82,248
101,92,81,247
101,91,81,246
100,91,81,244
100,91,80,243
99,90,80,242
99,89,79,241
99,89,79,240
98,89,79,239
98,89,78,238
97,88,78,237
97,88,78,235
96,88,78,234
96,88,78,233
96,87,77,231
115,86,78,231
114,86,77,230
113,85,77,229
113,85,76,227
112,85,76,227
111,84,76,225
111,83,75,224
110,83,75,223
110,83,75,222
109,83,74,221
109,83,74,220
108,82,73,219
108,82,73,218
107,81,73,217
106,81,73,216
105,80,72,215
105,79,71,214
105,79,71,213
103,79,71,212
103,79,76,211
103,79,76,210
103,78,76,209
103,78,75,207
102,78,75,207
101,77,74,206
101,77,74,205
102,77,74,204
102,78,73,204
101,77,73,203
101,77,77,202
101,77,159,201
100,76,165,199
99,76,163,199
99,76,163,198
98,75,162,197
98,75,161,196
97,75,159,195
97,74,159,195
97,73,158,193
96,73,158,193
96,91,157,192
96,91,156,191
95,90,156,190
94,89,157,189
94,89,156,189
94,88,156,188
93,88,155,187
93,88,155,193
92,88,153,192
92,86,153,190
91,86,152,190
91,93,152,189
90,93,151,188
90,92,150,187
89,92,150,186
89,92,148,185
89,91,148,184
88,90,147,184
88,90,147,183
88,89,146,182
87,89,145,181
87,89,144,180
87,88,143,179
86,88,143,179
85,88,143,178
85,88,142,177
85,87,141,176
84,86,141,176
84,86,140,175
83,85,139,174
83,85,139,173
83,85,138,173
83,83,137,172
82,83,137,171
81,83,135,170
81,83,135,169
81,83,135,168
81,82,135,167
80,81,134,167
80,81,133,167
79,81,133,166
79,80,133,165
79,79,131,165
79,79,131,164
126,79,130,163
125,79,130,162
124,78,129,162
124,78,129,161
123,78,128,159
122,77,127,159
122,77,127,159
120,76,127,159
120,76,126,158
120,76,126,156
119,75,125,156
118,75,125,155
117,75,124,155
117,75,123,154
116,73,123,153
115,73,122,152
115,73,122,152
114,72,121,152
114,72,121,150
113,71,120,150
113,71,120,149
112,71,119,149
112,71,119,147
111,71,118,147
110,70,118,147
110,70,117,146
109,70,117,145
108,69,115,144
108,69,115,143
108,69,115,143
107,68,114,143
106,67,114,142
106,67,113,141
105,67,113,141
105,67,112,140
103,67,112,140
103,79,111,139
103,78,110,138
103,78,110,138
102,77,109,137
102,77,109,135
101,76,109,135
101,76,108,135
102,76,108,152
101,75,107,155
102,77,107,153
102,99,107,153
101,98,106,152
100,97,105,152
100,97,105,151
99,96,103,150
99,96,103,149
99,95,103,148
98,94,103,147
133,94,103,147
131,93,102,146
131,93,102,145
130,92,102,145
129,92,101,143
129,91,100,143
127,91,100,142
127,91,99,142
126,90,99,141
126,90,99,140
126,89,98,140
125,89,100,139
124,88,101,147
123,88,99,146
123,87,99,145
122,87,99,144
121,87,99,143
121,86,98,143
120,86,98,142
120,86,97,141
120,85,97,141
119,84,96,140
118,84,96,139
118,84,96,139
132,86,96,138
131,85,95,137
131,85,95,137
130,85,115,135
129,84,114,135
129,83,113,135
127,83,113,134
127,82,112,133
126,82,111,133
126,82,111,132
125,82,110,132
124,81,110,134
124,80,109,143
123,79,109,143
123,79,108,142
122,79,108,142
121,79,107,141
120,78,107,140
120,78,106,140
120,78,105,139
119,77,105,138
118,78,103,137
118,78,103,178
117,77,103,176
116,76,103,175
116,76,102,174
115,76,102,173
115,75,101,172
115,75,101,171
113,74,100,170
113,74,100,169
112,73,99,168
112,73,98,167
111,73,98,167
111,73,98,166
110,71,97,165
137,71,97,164
137,71,97,163
135,71,100,163
135,71,116,162
135,71,115,161
134,71,115,160
133,70,114,159
132,70,114,159
132,69,113,158
131,69,113,157
130,68,112,156
130,68,139,156
129,67,162,155
129,67,161,154
127,67,159,153
127,67,159,152
127,66,158,152
126,66,157,151
125,65,156,150
125,65,155,150
124,65,155,149
123,65,154,148
123,64,153,147
122,64,153,147
121,63,152,146
121,98,151,145
120,111,151,144
120,110,149,143
120,109,148,143
118,108,147,142
118,108,147,142
117,107,146,141
117,107,146,140
116,106,145,140
115,105,144,139
115,105,143,138
114,103,143,137
113,103,142,137
113,103,141,135
113,102,141,135
112,102,140,135
111,101,139,134
110,101,139,133
129,100,137,133
129,99,137,132
128,99,135,131
127,99,135,131
127,102,135,130
126,101,134,129
125,101,134,129
125,100,133,128
124,99,132,127
123,99,131,127
123,99,131,127
122,98,131,126
121,97,130,125
121,97,130,125
120,96,129,124
120,96,128,124
119,96,127,123
119,95,127,123
117,94,126,122
117,94,126,121
117,94,125,121
115,93,125,120
115,93,124,120
115,92,124,120
115,91,123,120
114,91,122,119
113,91,122,118
112,91,121,118
112,90,121,117
112,89,120,116
111,89,120,116
110,89,119,115
110,88,118,115
109,88,118,115
109,88,118,114
108,87,117,114
108,87,117,113
107,88,116,113
107,88,115,112
106,87,115,112
105,87,114,111
105,86,114,111
103,86,113,110
103,85,113,111
103,85,112,110
103,84,112,110
103,83,111,109
102,83,110,109
102,86,110,108
101,86,110,108
100,85,109,107
100,85,109,107
100,84,108,107
99,83,108,106
99,83,108,106
99,83,107,105
98,83,107,105
97,83,106,103
97,82,106,103
97,82,105,103
96,81,105,103
96,81,103,103
95,80,103,103
95,80,103,102
94,79,103,102
94,79,103,101
94,79,102,179
93,79,102,178
93,78,101,177
92,78,101,176
92,77,100,175
92,77,100,174
91,77,99,173
91,76,99,172
90,76,100,172
90,75,144,171
89,75,143,169
89,75,142,167
89,74,142,167
89,74,141,167
88,74,140,166
88,73,140,165
88,73,139,165
87,73,138,163
86,73,137,163
86,71,135,162
86,71,135,161
86,71,135,161
85,71,135,159
84,71,134,159
85,70,134,158
84,70,133,157
83,70,132,157
83,70,132,156
83,69,131,156
82,69,130,155
82,69,130,154
82,68,129,153
81,67,128,152
81,67,127,152
80,67,127,151
79,67,127,150
79,66,126,149
79,66,126,148
79,66,125,148
79,66,125,147
78,65,124,147
78,65,123,146
78,65,123,145
77,64,123,145
77,64,122,144
77,63,121,143
76,63,121,143
76,63,120,142
76,63,120,141
77,63,119,141
81,62,118,141
81,62,119,140
80,62,117,139
79,62,117,138
79,92,116,137
79,92,115,137
78,91,115,135
78,91,115,135
78,90,114,135
78,89,114,135
77,89,113,134
77,89,113,134
76,88,112,133
76,88,112,133
76,88,111,132
76,87,111,131
75,86,110,131
75,86,110,130
75,85,109,129
74,85,109,129
73,85,108,128
73,84,108,127
73,83,108,127
72,83,107,127
71,83,107,126
71,82,106,126
71,82,105,125
71,82,105,124
71,81,105,124
71,81,103,124
70,80,103,123
70,80,103,122
70,79,103,122
69,79,102,121
69,79,102,121
69,79,102,120
68,78,101,120
69,78,101,120
68,81,100,119
67,80,99,118
67,80,99,118
67,79,99,117
67,79,98,117
66,79,98,116
66,79,98,115
66,78,97,138
66,78,97,137
65,77,96,135
65,77,96,135
65,77,96,135
65,86,96,135
64,85,95,134
64,85,95,133
63,84,95,133
63,83,94,132
63,83,94,131
63,83,93,131
63,83,93,130
62,82,93,130
62,81,92,129
62,81,92,128
61,81,92,127
61,81,91,127
61,80,91,127
61,79,91,126
61,79,90,126
60,79,89,125
60,79,89,124
60,78,89,124
60,78,89,124
119,77,88,123
121,77,88,122
120,77,88,121
120,76,87,121
119,76,87,120
118,76,86,120
117,75,86,119
117,75,86,119
116,74,85,118
115,74,85,118
115,73,85,118
114,74,83,184
114,73,83,183
113,73,83,181
113,71,83,180
112,71,83,179
112,71,82,178
111,71,82,177
110,71,82,176
110,71,81,176
109,70,81,175
108,70,80,174
108,70,80,173
108,69,79,193
107,69,79,195
107,69,79,195
106,68,79,193
105,68,79,192
105,67,78,191
103,67,78,190
103,67,78,189
103,67,77,188
103,66,77,187
102,66,76,186
102,66,77,185
101,65,76,184
101,65,76,184
101,65,76,183
100,64,75,182
99,64,75,181
99,63,75,179
99,63,74,179
98,63,74,178
98,63,74,177
97,63,73,177
97,63,73,176
97,62,73,175
96,62,73,174
96,62,71,173
96,61,71,173
95,61,71,172
94,61,71,171
94,61,71,170
94,60,71,169
93,60,71,169
93,60,70,167
92,59,70,167
92,59,69,167
92,59,71,166
126,59,70,166
125,58,70,179
124,58,70,178
124,58,69,177
123,57,69,177
122,57,69,176
122,57,68,175
121,56,68,174
120,57,67,173
120,56,67,172
119,56,67,172
118,56,67,170
118,56,67,207
117,56,66,250
117,55,66,248
116,55,66,246
115,54,66,245
115,54,65,243
114,54,65,242
114,53,65,240
113,54,64,239
113,53,64,238
112,53,63,237
112,53,63,236
112,52,63,235
112,51,63,233
111,52,63,231
111,51,62,230
110,51,62,230
109,51,62,229
108,51,62,227
108,51,62,226
108,51,61,225
107,50,61,224
107,50,61,223
106,50,61,222
106,49,60,221
105,49,60,220
105,49,59,219
103,48,60,217
103,49,59,217
103,48,59,216
103,48,59,214
102,48,58,213
102,48,58,212
102,48,59,211
101,48,57,211
101,47,58,209
101,47,57,209
100,47,57,207
99,47,56,207
99,46,56,206
99,46,56,205
98,46,56,204
98,46,56,203
98,45,56,202
97,45,56,201
97,45,55,199
96,45,55,199
96,45,55,199
95,44,55,198
95,44,54,197
95,44,54,196
94,44,54,195
94,44,54,194
93,44,54,193
93,44,53,192
92,44,53,192
92,43,53,191
92,43,52,190
92,43,52,190
91,43,52,189
99,42,52,207
102,42,51,209
102,42,51,207
101,42,51,207
101,42,51,206
99,41,51,204
100,41,51,204
99,41,51,202
99,41,50,201
98,41,50,199
98,41,49,199
98,41,49,199
104,39,49,197
108,39,49,197
108,39,49,195
107,39,49,195
107,41,48,194
106,41,48,193
106,41,48,192
105,40,48,191
105,41,48,190
103,39,48,189
103,39,47,188
103,40,48,188
124,39,98,187
123,39,97,186
121,39,96,185
121,39,96,184
121,39,96,184
120,39,95,183
120,38,94,182
119,38,94,181
119,38,93,180
117,38,93,179
117,38,92,178
116,38,92,178
115,37,91,177
115,37,91,176
115,37,90,176
114,36,90,175
113,36,89,174
113,36,89,173
112,36,89,172
112,35,88,172
111,36,88,171
111,35,88,171
110,35,87,169
110,35,87,169
109,35,86,167
108,35,86,167
108,35,85,166
108,34,85,166
107,35,85,165
107,35,84,164
106,35,84,163
105,34,83,163
105,34,83,162
103,34,83,162
103,34,82,161
103,34,82,160
103,34,81,159
103,33,81,159
102,33,81,158
101,45,80,157
101,45,80,157
101,45,79,156
99,45,79,155
99,44,79,155
99,44,78,154
99,44,78,153
98,44,78,163
98,44,77,241
97,43,77,239
97,43,77,237
97,42,77,236
96,45,76,235
96,45,76,233
96,45,76,231
95,45,75,231
95,44,75,230
95,44,75,229
94,44,74,227
93,44,73,226
93,43,73,225
93,43,73,224
93,43,72,227
92,43,71,226
92,42,71,225
91,42,71,224
91,42,71,223
90,43,71,222
90,43,71,221
89,42,71,220
89,42,70,219
89,42,70,217
88,41,70,217
89,41,70,216
91,41,69,215
89,41,69,214
89,41,68,213
88,39,68,211
88,40,67,211
88,39,67,209
88,39,67,209
88,39,67,207
87,39,66,207
87,39,67,206
86,39,66,205
86,39,66,204
85,39,65,203
85,39,65,202
84,44,65,201
84,43,65,199
83,43,65,199
83,43,64,199
83,43,63,198
83,42,63,197
82,42,63,196
82,42,63,195
81,41,63,194
81,41,63,194
81,41,62,193
80,41,62,193
80,40,62,192
79,39,61,190
79,39,61,190
