21,7,71,7
21,7,71,9
21,7,71,8
21,7,71,7
21,7,71,8
22,7,71,9
22,7,71,9
22,7,70,9
22,7,70,8
21,7,70,9
21,7,69,9
22,7,69,9
21,7,69,9
21,7,68,8
21,7,69,8
21,7,67,8
21,7,68,9
21,7,67,9
21,7,67,7
21,7,67,7
21,7,67,7
21,7,66,8
21,7,66,8
21,7,66,7
20,7,65,8
20,7,66,7
21,7,65,9
20,7,65,8
20,7,65,8
19,7,65,7
20,7,64,9
19,7,63,7
19,7,64,8
19,7,63,8
19,7,63,7
19,7,63,7
19,7,63,7
19,7,63,7
19,7,63,7
19,7,63,7
19,7,62,8
19,7,62,8
19,7,62,8
19,7,61,8
19,7,61,7
19,7,61,9
18,7,61,7
30,7,60,7
33,7,61,8
33,7,60,9
33,7,60,8
33,7,60,9
32,7,59,8
33,7,59,8
32,7,59,8
31,7,59,7
31,7,58,8
31,7,58,9
31,7,58,8
31,7,57,8
31,7,58,8
31,7,57,7
31,7,57,8
31,7,57,9
31,7,57,10
31,7,57,9
30,7,56,10
30,7,56,9
30,7,56,9
30,7,56,9
30,7,56,9
30,7,56,10
30,7,56,10
30,7,55,9
30,7,54,9
29,7,55,10
30,7,55,10
30,7,54,10
30,7,54,10
29,7,54,9
29,7,53,9
29,7,53,10
29,7,53,9
29,7,53,9
29,7,53,9
29,7,52,9
29,7,52,9
28,7,51,9
28,7,52,9
28,7,51,9
29,7,51,9
28,7,52,9
28,7,51,10
28,7,51,9
28,7,51,9
28,7,51,9
27,7,51,9
27,7,50,9
28,7,50,9
27,7,50,9
27,7,50,10
27,7,49,9
27,7,49,9
27,7,49,9
26,7,49,9
31,7,49,9
42,7,49,9
42,7,48,9
41,7,48,9
41,7,48,9
41,7,48,8
41,7,48,9
41,7,48,9
40,7,48,9
39,7,48,9
39,7,47,9
39,7,47,9
39,7,47,9
39,7,47,8
39,7,46,9
39,7,47,9
39,7,47,9
39,7,46,9
39,7,46,9
38,7,46,9
39,7,45,9
39,7,46,9
38,7,45,9
38,7,45,9
38,7,45,9
37,7,45,9
37,7,45,9
37,7,45,8
37,7,44,7
37,7,45,9
37,7,44,9
37,7,44,9
37,7,44,10
37,7,49,10
36,7,49,9
36,7,48,9
35,7,49,9
35,7,48,9
35,7,48,9
35,7,48,9
35,7,48,9
35,7,47,9
35,7,47,9
35,7,47,9
35,7,47,9
35,7,47,9
35,7,47,9
35,7,47,9
35,7,46,9
34,7,46,9
34,7,45,9
34,7,46,9
34,7,45,9
33,7,45,9
34,7,45,9
34,7,45,9
33,7,44,8
33,7,44,10
33,7,44,9
33,7,44,9
33,7,45,9
33,7,44,8
33,7,44,9
33,7,44,9
33,7,44,9
32,7,43,8
32,7,43,9
31,7,43,9
32,7,43,9
31,7,43,9
31,7,43,8
31,7,43,8
31,7,42,9
31,7,42,9
31,7,42,9
31,7,41,7
31,7,42,9
31,7,41,9
30,7,41,9
31,7,42,8
31,7,41,7
30,7,40,8
30,7,41,9
30,7,41,9
30,7,39,7
30,7,40,9
30,7,39,9
30,7,39,9
30,7,39,8
30,7,39,7
29,7,39,7
30,7,39,9
29,7,39,9
29,7,39,9
29,7,39,9
29,7,39,9
29,7,39,7
28,7,38,9
29,7,39,8
29,7,38,8
28,7,38,9
28,7,38,9
28,7,38,8
28,7,38,8
28,7,38,9
28,7,37,7
28,7,37,9
28,7,37,7
28,7,52,8
27,7,52,8
27,7,51,9
28,7,51,8
27,7,51,8
27,7,51,8
27,7,50,7
27,7,51,7
27,7,51,9
27,7,51,7
27,7,50,7
26,7,50,9
27,7,50,8
26,7,49,8
26,7,64,8
26,7,68,7
26,7,67,7
26,7,67,7
25,7,67,7
26,7,66,7
25,7,66,7
25,7,66,7
25,7,66,7
25,7,66,7
25,7,66,10
25,7,65,25
25,7,65,28
25,7,65,27
25,7,63,27
25,7,64,27
24,7,63,27
25,7,63,26
24,7,63,26
24,7,63,26
25,7,62,25
24,7,63,25
24,7,62,25
24,7,62,25
24,7,61,25
24,7,62,25
25,7,61,25
25,7,61,25
24,7,60,25
25,7,60,24
24,7,60,25
24,7,60,25
24,7,59,24
24,7,59,24
24,7,59,24
24,7,59,24
24,7,59,24
24,6,58,24
24,7,58,24
24,7,58,24
24,7,58,24
24,7,57,24
24,7,58,24
24,7,57,23
23,7,57,24
23,7,57,23
23,7,57,24
22,7,56,23
22,7,56,23
23,7,56,23
23,7,56,22
23,7,56,23
24,7,56,23
23,7,55,23
23,7,55,22
23,7,55,23
23,7,55,22
23,7,54,22
23,7,54,22
22,7,54,22
22,8,54,22
22,7,54,22
22,7,53,22
22,7,53,22
22,7,53,21
21,7,53,22
24,7,52,21
24,7,52,21
24,7,53,22
24,7,51,21
24,7,51,21
24,7,51,21
24,7,51,21
23,7,51,21
23,7,51,21
23,7,51,20
24,7,51,21
22,7,51,21
22,7,50,21
23,7,50,21
23,7,49,21
22,7,50,21
22,7,49,21
22,7,50,20
22,8,49,20
22,8,49,20
22,9,49,20
22,8,49,19
22,7,48,20
22,8,48,19
21,7,48,20
22,7,48,19
21,9,48,24
29,9,48,25
31,9,47,26
30,9,47,25
30,8,47,25
30,8,47,25
29,7,47,25
30,8,46,25
29,9,46,25
29,9,46,25
29,9,46,25
29,8,46,25
29,8,45,25
29,9,45,24
38,9,45,25
44,9,45,25
44,9,45,25
43,9,44,24
43,9,44,24
43,8,44,24
43,9,44,24
42,9,44,24
43,9,43,24
42,9,44,24
41,9,44,24
42,9,44,24
41,9,44,24
41,9,43,24
41,9,43,24
41,9,43,23
41,8,42,23
40,8,42,23
39,11,42,23
39,12,42,24
39,14,42,23
39,14,42,22
39,14,41,23
39,14,41,22
39,14,41,23
39,14,41,22
39,14,41,22
39,14,41,22
38,14,41,22
39,14,41,22
39,14,39,22
39,13,39,21
39,13,39,22
38,13,39,21
38,13,39,21
38,13,39,21
38,13,39,21
38,13,39,21
37,13,39,21
37,13,39,21
37,13,39,21
37,13,39,20
37,13,38,21
37,13,38,20
36,13,38,21
36,13,38,20
36,13,38,20
35,13,38,20
36,13,38,20
35,13,37,20
35,13,37,19
35,13,37,20
35,13,37,19
35,13,37,19
35,13,37,19
35,13,36,19
34,13,36,19
35,12,36,19
34,13,36,19
35,12,37,19
34,13,37,19
33,13,36,19
34,12,36,19
34,13,35,19
33,13,35,19
33,12,36,19
34,13,36,19
39,13,35,20
39,12,35,19
39,13,35,19
39,13,35,19
39,13,35,19
38,13,35,19
38,13,35,19
38,13,35,19
38,13,35,19
38,13,35,19
37,13,35,19
38,13,34,19
37,13,35,18
37,13,35,18
37,13,34,21
36,13,33,20
36,13,34,20
36,13,34,20
36,14,34,19
36,14,34,20
35,14,33,20
35,14,33,19
35,14,33,20
35,14,33,19
36,14,103,30
35,14,102,30
38,14,101,30
39,14,101,30
39,15,100,29
39,21,99,30
39,23,99,29
38,23,99,30
38,23,98,29
38,22,98,29
38,22,97,29
38,22,97,28
38,22,96,29
37,22,96,36
38,22,96,36
38,22,95,37
39,23,94,36
38,25,94,36
38,25,94,35
38,25,93,35
38,24,93,35
38,24,92,35
37,25,92,35
37,24,92,35
37,24,91,35
37,24,91,35
55,25,90,35
67,24,90,34
67,24,89,34
66,24,89,33
66,26,89,33
65,26,88,33
65,26,88,33
65,25,88,33
65,25,87,33
63,25,87,33
63,25,86,33
63,25,86,33
63,25,85,35
63,25,85,35
63,27,85,35
63,28,84,35
62,28,84,35
61,29,83,34
61,28,83,34
61,28,83,33
61,28,83,33
61,27,82,37
60,28,81,37
60,28,81,37
60,28,81,37
60,27,81,36
59,27,80,37
59,28,79,36
58,27,79,36
58,27,79,35
58,27,79,35
58,27,79,35
57,27,78,35
57,27,78,35
57,27,77,35
57,27,77,35
57,26,77,35
56,26,77,35
56,26,76,35
56,26,77,35
56,26,76,35
56,27,76,34
56,27,76,34
56,26,75,34
55,26,75,34
55,26,75,34
56,26,75,34
110,29,74,35
110,30,74,35
109,30,74,35
108,31,73,35
108,30,73,35
107,30,73,35
106,30,71,34
105,30,71,34
105,30,71,35
103,30,71,37
103,30,71,36
103,30,70,36
105,43,71,36
103,44,70,36
103,44,69,35
103,44,70,35
103,44,69,35
102,4,69,35
102,43,68,35
101,44,67,35
100,43,68,54
99,43,68,55
100,43,67,54
99,43,124,54
99,42,127,53
98,48,126,53
98,51,125,52
97,51,124,52
96,51,124,52
96,51,123,52
96,51,123,52
96,50,122,57
95,50,121,57
94,50,120,57
94,50,120,57
94,49,122,63
93,49,121,63
93,48,121,63
92,49,121,62
92,48,120,61
91,48,119,62
91,48,119,61
91,48,118,61
90,47,118,60
90,47,117,60
96,48,116,60
96,48,115,59
95,48,115,59
94,48,115,59
94,47,114,59
93,48,113,58
93,47,113,58
92,47,112,57
92,46,112,57
92,46,111,57
91,46,112,57
91,46,110,58
90,46,110,59
90,46,110,59
89,46,109,59
89,46,108,58
89,45,108,57
88,45,107,57
88,45,107,57
88,44,106,57
87,45,106,56
86,44,105,56
86,44,105,59
86,44,105,59
85,44,103,59
85,44,103,58
84,43,103,58
84,43,103,58
83,43,102,57
83,43,102,57
83,43,101,57
82,42,101,56
82,42,100,56
82,42,99,56
82,42,99,56
81,42,99,55
80,41,98,55
80,41,98,55
79,41,98,54
79,41,97,54
79,40,97,54
79,39,96,54
78,40,96,53
78,39,96,54
78,39,95,53
77,39,95,53
77,39,95,53
77,39,94,53
76,39,94,52
76,39,94,52
76,39,97,51
75,38,96,51
75,39,96,51
75,38,96,51
75,39,95,51
74,38,95,51
74,38,95,50
74,37,94,50
73,37,94,50
73,37,94,49
73,37,93,49
71,37,92,49
71,37,92,49
71,36,92,48
71,36,91,48
71,36,90,48
70,36,90,48
71,36,90,48
71,36,90,48
89,35,89,48
89,35,89,48
88,35,88,48
88,35,88,47
88,35,88,47
87,35,88,47
87,35,88,47
87,35,87,46
86,34,86,46
86,34,86,46
85,34,86,46
85,34,85,46
84,34,86,46
84,33,85,45
83,33,83,45
83,33,83,45
83,33,83,45
82,33,83,44
82,33,83,44
82,33,82,44
81,32,82,44
81,32,81,44
80,31,81,43
79,31,81,44
79,31,81,44
79,31,80,43
79,31,80,43
79,31,79,42
78,31,79,42
78,31,79,42
78,31,79,42
77,31,78,42
77,31,78,41
77,30,78,41
76,30,77,41
76,30,77,41
76,30,77,41
75,30,77,41
75,30,76,39
74,30,76,39
74,30,76,39
74,30,75,39
73,29,75,39
73,29,75,39
73,29,75,39
71,29,74,39
71,29,74,39
71,29,74,39
71,28,73,39
71,28,73,38
71,28,73,38
70,28,72,38
70,28,71,38
70,28,71,38
70,28,71,38
69,28,71,37
69,27,71,37
68,28,71,37
68,27,71,37
68,27,70,37
67,27,70,36
67,27,69,36
67,27,69,36
67,27,69,36
67,27,68,35
66,26,68,35
66,25,68,35
65,25,67,35
66,26,67,35
65,26,67,35
65,26,67,35
65,25,67,35
65,26,83,35
64,26,91,35
63,26,90,35
63,26,89,34
63,25,89,35
63,25,88,34
63,25,88,34
62,25,88,34
62,25,87,34
62,25,87,33
62,25,87,33
61,24,86,33
61,25,85,33
61,25,85,33
60,26,85,33
60,26,84,32
60,25,84,32
60,25,83,31
59,25,83,32
59,25,83,31
59,25,83,31
58,25,81,31
59,25,81,31
58,25,81,31
58,24,81,31
58,25,80,31
57,24,80,31
57,24,80,31
57,24,79,31
57,24,79,31
57,24,79,30
56,24,79,30
56,24,78,30
56,24,78,30
56,24,77,30
56,23,77,30
56,24,77,29
55,24,77,29
54,23,76,30
54,23,76,30
54,23,76,29
54,23,75,29
54,22,75,29
53,23,74,29
53,22,74,29
53,22,73,29
53,22,73,29
53,22,73,29
52,22,73,28
52,22,71,28
51,22,71,28
51,21,71,28
51,21,71,28
51,21,71,28
51,21,71,27
51,21,70,28
50,21,70,27
50,21,70,28
50,22,69,27
49,20,69,28
50,21,69,27
49,21,68,27
49,20,68,27
49,20,68,27
48,20,68,26
48,21,67,27
48,20,67,26
48,21,67,26
48,20,66,26
48,20,67,26
48,19,66,26
47,20,65,25
48,19,66,25
47,19,65,25
46,19,65,25
46,20,65,25
46,19,64,25
46,19,63,25
45,19,63,24
46,19,63,25
46,19,63,24
45,19,63,25
46,19,63,25
45,19,63,24
45,18,63,24
45,19,62,24
44,19,62,24
44,19,62,24
44,18,61,24
44,18,61,24
43,18,61,24
43,18,61,23
43,18,60,25
43,18,60,25
43,18,60,25
42,18,60,25
42,18,60,25
42,18,59,25
42,18,59,25
42,17,59,25
41,17,59,24
42,18,59,24
41,17,58,24
41,18,58,24
41,17,58,24
41,17,57,24
40,17,57,24
41,17,57,24
40,17,57,24
40,16,56,24
39,16,56,24
39,17,56,24
39,17,56,24
39,17,56,24
39,16,55,23
39,15,54,22
51,15,55,22
88,15,55,25
88,15,54,24
86,15,54,24
86,15,54,24
86,15,54,24
85,16,53,23
85,15,53,24
84,15,53,23
83,15,52,24
83,15,52,24
83,15,52,24
83,15,52,23
82,15,51,23
82,15,51,23
82,15,51,23
81,14,51,22
81,15,51,23
80,15,51,22
80,15,51,22
79,15,50,23
79,15,50,22
79,14,50,22
79,15,50,21
78,14,50,22
78,14,50,21
78,14,49,22
77,14,49,22
77,14,49,21
77,14,48,21
77,14,49,21
76,14,49,21
76,14,48,21
76,14,48,21
76,14,48,21
75,14,47,21
75,14,48,20
75,14,48,20
74,14,48,20
73,14,47,20
73,14,47,20
73,14,47,20
73,13,46,20
71,13,46,20
71,13,46,19
71,13,46,19
71,13,46,19
71,13,46,19
71,13,45,19
71,13,45,20
71,13,45,19
70,13,45,19
70,13,45,19
69,13,45,19
69,13,45,19
69,12,44,19
69,13,44,19
68,13,44,19
68,13,44,19
67,13,43,19
67,13,44,19
67,13,43,19
67,13,43,19
67,12,43,19
66,12,43,19
66,13,43,19
66,12,43,18
65,12,42,18
65,12,42,18
65,12,42,18
65,12,42,18
64,12,42,18
64,12,41,18
64,12,41,17
63,12,41,18
63,12,41,18
63,12,41,17
63,12,41,18
62,12,40,17
62,12,41,17
62,12,41,17
62,12,39,17
62,12,39,17
61,12,39,17
61,11,39,17
61,12,39,18
61,12,39,17
60,12,39,17
60,12,39,17
60,11,39,17
60,12,39,16
60,12,38,17
60,11,39,17
59,11,39,16
59,12,38,16
59,11,38,16
58,12,38,17
58,12,38,16
57,11,38,16
57,11,38,16
57,11,38,16
57,11,37,16
57,11,37,16
57,11,37,16
57,11,37,15
56,11,37,16
56,11,37,15
56,11,37,16
56,11,37,16
55,11,36,15
55,11,36,15
56,11,85,16
55,11,127,15
54,11,125,15
54,11,125,15
54,11,124,15
54,11,123,15
53,11,123,15
53,10,122,15
53,11,121,15
53,11,120,15
53,11,120,15
52,11,120,15
53,10,119,15
52,10,118,14
51,10,118,14
51,11,118,15
51,10,117,15
51,10,116,15
50,10,115,14
50,10,115,14
50,10,115,15
50,10,114,14
50,10,114,14
49,10,113,14
50,10,113,14
49,10,112,14
49,10,112,14
49,10,111,13
49,10,111,14
48,10,110,14
48,10,110,14
48,10,110,14
48,9,109,14
48,10,109,13
47,9,108,14
47,10,108,14
47,10,108,13
47,9,107,13
47,9,106,13
46,9,106,13
46,9,105,13
46,9,105,13
46,9,105,13
46,10,103,13
46,10,103,13
45,10,103,13
45,9,103,13
45,10,103,13
45,9,102,13
44,9,102,13
44,10,101,13
44,9,101,13
44,9,101,13
44,9,100,13
44,9,99,12
43,10,99,13
43,9,99,13
44,10,99,13
43,10,98,12
43,9,98,12
43,9,97,13
43,9,97,13
43,9,97,13
42,9,97,12
41,9,96,12
41,9,95,12
41,9,95,12
41,9,94,12
41,9,94,12
41,9,94,12
41,9,94,12
41,9,93,12
40,9,93,12
39,8,93,11
39,7,92,11
39,9,92,12
39,8,91,12
39,8,91,12
39,9,91,12
39,9,91,12
39,9,91,11
39,8,90,12
39,9,89,12
39,9,89,11
38,8,88,12
39,8,88,12
39,7,88,12
38,8,88,12
38,8,88,11
38,9,88,11
38,8,88,11
38,9,86,11
38,7,87,11
37,9,86,11
37,9,86,11
37,9,86,11
37,9,86,11
37,9,85,11
37,9,84,11
37,9,84,11
36,9,83,11
36,9,83,11
36,9,83,11
36,9,82,10
36,9,83,11
35,9,82,11
35,9,82,11
35,9,82,11
35,9,81,11
35,9,81,11
35,9,81,10
35,9,81,11
35,9,80,11
35,9,80,10
34,9,79,10
34,9,79,10
34,9,79,11
34,9,78,11
34,9,79,10
34,9,78,12
34,9,78,10
34,9,78,10
33,9,78,10
33,9,77,10
33,9,77,11
33,9,77,10
33,9,76,10
33,14,76,11
32,17,76,10
32,17,76,9
33,16,76,10
32,16,75,10
33,16,75,10
31,17,74,10
31,16,74,10
31,16,74,10
31,16,73,10
31,16,73,10
31,16,73,10
31,15,73,10
31,16,71,10
31,16,71,9
31,15,71,10
31,15,71,10
31,15,71,10
30,15,71,10
30,15,71,10
30,15,71,10
30,15,70,9
30,15,70,10
30,15,70,10
30,15,70,9
30,15,69,10
30,15,69,10
29,15,69,9
29,14,68,9
29,14,68,9
29,14,67,9
29,14,67,9
29,14,67,9
28,14,67,9
28,14,67,9
28,14,66,9
28,14,66,9
28,14,66,9
28,14,65,9
28,14,66,9
28,14,65,9
27,14,65,9
28,14,65,8
28,13,65,9
27,14,64,9
27,13,63,9
28,13,63,9
27,13,63,9
27,13,63,9
27,13,63,10
27,13,63,9
26,13,63,9
27,13,63,9
26,13,62,9
26,13,62,8
26,12,61,8
26,13,61,8
26,13,62,9
26,12,62,9
27,13,62,9
26,13,61,9
26,13,60,9
26,13,61,9
25,13,61,9
25,13,60,9
25,14,60,9
25,14,60,9
26,15,60,9
30,27,60,9
29,26,59,9
29,26,59,9
29,25,59,9
29,25,59,9
29,26,59,9
29,25,58,9
28,25,57,9
28,25,57,8
28,25,57,9
28,25,57,9
28,25,57,9
28,25,57,9
28,25,57,9
28,24,56,8
28,24,56,9
28,25,56,9
27,24,56,9
28,24,56,8
27,24,56,8
27,24,56,8
27,24,55,9
27,24,55,8
27,24,54,8
26,24,55,9
26,26,54,9
26,26,55,9
26,26,54,8
27,26,54,10
26,25,53,9
25,26,54,8
26,26,53,9
25,25,53,7
25,25,53,7
25,26,53,9
25,25,53,7
25,25,52,8
25,25,52,9
25,25,51,8
25,24,51,7
25,25,51,7
25,24,51,9
25,25,51,9
25,24,51,8
25,24,51,7
24,24,51,7
24,24,50,8
25,24,50,8
24,24,50,8
24,24,50,8
24,24,50,9
24,24,50,8
24,23,50,7
24,24,49,7
24,24,49,8
24,24,49,8
23,23,49,7
24,23,49,7
24,24,48,7
24,23,48,7
23,23,48,8
23,23,48,7
23,22,48,8
23,23,48,9
23,24,47,7
23,24,47,8
23,24,47,8
22,24,47,7
22,24,46,8
22,24,47,7
22,24,46,7
22,24,47,7
23,28,46,8
22,47,46,8
21,47,45,7
22,46,46,7
22,46,46,8
22,46,45,8
21,45,45,7
21,45,45,7
22,45,45,7
21,45,44,8
21,45,45,7
21,45,44,8
22,44,44,7
22,44,44,7
22,44,44,7
22,44,43,7
22,43,44,7
21,43,44,7
22,43,44,8
21,43,43,7
21,43,43,7
21,43,43,7
22,43,43,7
21,42,43,7
21,42,43,12
21,41,42,23
21,42,42,24
21,42,42,23
21,41,42,23
20,44,42,23
20,44,41,22
20,44,41,22
21,44,41,22
20,43,41,22
20,43,41,22
20,43,39,22
19,43,41,22
20,43,39,22
35,44,41,22
43,69,39,21
42,81,39,22
42,79,39,21
41,79,39,21
41,79,39,21
41,79,39,21
41,78,39,20
39,78,39,21
39,77,39,21
39,77,39,21
39,77,39,20
39,76,39,21
39,76,39,20
39,76,38,20
39,76,39,20
39,75,38,20
39,75,38,20
39,74,38,20
38,74,37,20
39,73,37,19
38,73,38,20
38,73,37,19
38,71,37,19
38,72,37,19
38,71,36,19
37,71,37,19
37,71,36,19
37,76,37,20
37,76,37,19
37,76,36,19
37,76,37,19
36,75,37,19
36,75,36,19
36,74,35,19
36,74,36,19
35,73,37,19
35,73,37,19
36,73,37,19
35,73,36,19
35,71,36,18
35,71,36,18
35,71,36,19
35,71,36,18
34,71,36,18
35,71,35,18
34,71,35,18
34,70,35,18
34,70,35,18
34,69,35,18
34,69,35,18
63,69,35,18
71,69,35,18
71,68,34,18
71,68,37,18
71,68,48,18
71,67,48,17
71,68,47,17
69,67,48,17
70,67,47,17
69,66,47,17
69,66,47,17
69,66,47,17
68,66,46,17
68,65,46,17
67,65,46,17
67,65,46,17
67,74,46,16
66,76,45,16
67,76,45,17
66,75,45,17
66,75,44,16
65,74,44,16
65,73,44,17
65,73,44,16
65,73,44,15
64,72,43,16
65,73,44,16
64,71,43,15
64,71,43,15
63,71,43,16
63,71,43,16
63,71,43,15
63,71,42,15
63,70,42,15
62,70,42,15
62,70,61,15
62,69,60,15
62,69,60,15
61,69,59,15
62,68,59,15
61,68,59,15
61,68,58,15
60,68,58,15
60,67,57,15
60,67,58,15
59,67,57,15
59,67,57,15
59,66,59,15
59,66,59,15
59,65,59,14
58,65,59,14
57,65,59,14
58,64,58,15
58,64,58,16
57,64,57,16
57,63,57,16
57,63,57,16
57,63,57,16
56,63,57,15
56,63,57,16
56,63,56,16
56,62,56,15
55,62,56,16
55,62,55,15
56,62,55,16
55,61,55,15
65,62,56,15
66,61,55,15
66,61,55,15
65,61,54,15
65,61,54,15
63,60,54,15
64,61,53,15
63,60,53,15
63,60,52,14
63,59,52,15
63,59,52,14
63,59,52,15
62,59,52,15
62,59,52,18
62,58,51,18
62,57,51,18
62,58,51,18
62,57,50,18
61,57,51,17
61,57,51,17
60,56,51,17
60,56,50,17
60,56,50,17
60,56,50,17
59,56,50,17
59,56,49,17
60,56,49,18
59,55,49,20
59,59,49,20
58,107,48,20
57,105,48,19
58,103,49,20
57,103,54,19
57,103,54,19
57,103,53,19
57,103,54,19
56,101,53,19
56,101,52,19
56,100,52,19
56,100,53,19
56,99,52,19
56,99,51,19
55,99,51,19
55,98,51,19
54,98,51,18
54,98,51,18
53,97,51,18
54,96,51,18
53,96,50,19
53,96,50,18
53,96,50,17
53,95,50,18
53,95,49,29
52,94,49,29
52,94,49,28
53,94,49,28
51,93,48,28
52,93,48,28
52,92,48,28
51,92,48,28
51,91,48,27
51,91,48,27
51,91,47,27
51,90,47,27
50,90,47,27
50,90,47,27
50,89,47,27
50,89,46,26
50,88,47,27
49,88,46,26
49,88,46,26
49,88,46,26
48,88,46,25
49,86,45,26
48,87,45,26
48,86,45,25
48,85,45,25
48,85,44,25
48,85,45,25
48,85,44,25
48,84,44,25
47,83,44,24
47,83,44,24
46,83,43,25
46,83,44,25
46,82,43,24
46,82,43,24
46,82,43,24
46,81,43,24
45,81,43,24
45,81,43,24
46,80,43,24
46,80,43,24
45,79,42,24
45,79,41,24
45,79,41,24
45,79,41,24
44,79,41,24
44,78,45,23
44,78,56,24
44,78,54,23
43,77,55,23
44,77,54,23
44,77,54,23
44,76,53,23
44,76,54,23
43,76,84,22
43,75,83,22
43,75,83,22
43,75,82,22
42,75,82,22
43,74,82,22
42,75,81,22
42,73,80,22
41,73,80,22
41,73,80,22
41,73,79,23
41,71,79,23
61,71,79,23
61,71,79,23
61,71,78,23
60,71,78,22
60,71,78,22
60,71,77,22
60,71,77,22
59,70,77,22
59,70,76,22
58,69,76,22
58,69,76,21
58,69,76,22
58,69,75,22
58,68,75,21
58,68,75,21
57,67,74,22
57,68,73,21
57,68,73,21
57,67,73,21
56,67,73,21
57,67,73,21
56,66,71,21
56,66,71,20
56,66,71,21
55,66,71,20
56,65,71,20
56,65,71,20
55,65,71,20
55,66,71,20
55,65,70,20
54,64,70,20
54,64,69,19
54,64,69,19
54,64,69,19
54,63,69,20
53,63,68,19
53,63,68,19
53,63,68,20
53,63,68,41
52,62,67,41
51,62,67,40
52,62,67,39
51,61,67,39
51,62,67,39
51,61,66,39
51,61,66,39
51,61,66,39
50,61,65,39
50,60,65,39
50,60,65,38
50,60,65,38
50,59,63,39
50,59,64,38
50,60,64,38
50,59,63,38
49,59,63,37
49,59,63,37
49,58,63,37
48,57,63,37
49,57,62,37
48,57,62,36
48,57,62,36
48,57,62,38
114,88,62,36
113,88,62,36
112,86,61,35
111,86,61,35
110,85,60,35
110,85,60,36
110,84,60,35
109,84,60,35
108,83,60,35
107,83,59,35
107,83,59,35
107,83,59,34
106,83,59,34
106,82,59,35
105,82,58,34
105,81,58,34
103,81,57,34
103,81,57,33
103,79,57,33
103,79,57,33
102,79,56,33
102,79,56,33
102,79,56,33
101,78,56,44
100,78,56,44
101,77,56,44
100,77,55,43
99,77,55,43
99,77,55,43
98,76,55,42
98,76,54,42
97,75,54,42
97,75,54,42
97,74,53,41
96,74,54,42
96,75,54,41
96,74,53,41
96,74,53,41
95,74,53,41
98,73,52,39
98,73,52,39
98,71,51,39
97,71,52,39
97,71,51,39
96,71,53,39
96,71,55,39
96,71,55,39
95,70,55,39
95,71,54,39
94,70,54,39
94,70,54,39
94,70,53,38
93,69,53,39
93,69,53,38
93,69,53,38
92,68,53,38
91,68,52,38
91,68,52,37
91,67,52,37
91,67,51,37
90,67,51,37
89,66,51,37
89,67,51,36
89,66,50,37
89,66,51,36
89,66,51,36
89,66,50,35
88,66,50,36
89,66,71,35
88,65,70,35
88,64,70,35
88,65,69,35
87,63,69,35
86,63,68,35
86,63,68,35
86,63,67,34
86,63,67,34
85,63,67,35
88,63,67,34
89,63,66,33
88,62,66,34
88,62,66,33
88,62,66,34
87,62,66,33
87,61,65,33
86,61,65,33
87,61,64,33
86,60,64,33
85,60,64,33
85,60,64,32
85,60,63,32
85,60,63,32
90,59,63,32
90,59,63,32
89,59,63,31
88,59,62,31
88,58,62,31
88,58,62,32
88,57,61,31
88,57,62,31
87,57,61,31
87,57,61,31
86,57,61,31
86,57,60,31
85,57,60,30
85,57,60,30
85,56,59,30
85,56,59,30
84,56,59,30
84,56,59,30
83,58,59,30
83,59,58,29
83,57,58,29
82,57,58,29
82,57,57,29
81,57,57,29
82,57,57,29
81,57,57,33
81,56,57,35
81,56,65,38
80,56,65,37
79,56,65,37
79,55,64,37
79,56,63,38
79,55,63,37
78,54,63,37
78,55,63,37
78,55,63,37
77,54,63,36
77,54,62,37
77,54,62,37
83,53,62,36
83,53,61,35
82,54,61,36
82,53,60,35
81,53,61,35
81,52,60,35
81,52,60,35
81,52,59,35
79,51,60,35
79,51,59,35
79,51,60,35
119,51,59,35
117,51,59,34
117,51,58,34
115,51,58,33
115,55,58,34
115,74,57,33
114,73,57,33
114,73,57,33
113,71,57,33
113,72,57,33
112,71,56,33
112,71,56,32
111,71,56,32
110,71,56,34
111,71,56,98
110,71,55,135
110,70,55,135
109,70,54,134
108,70,55,133
108,69,54,132
108,69,54,131
107,68,54,130
106,68,53,130
105,67,53,129
105,67,53,129
105,67,53,127
103,67,52,127
103,67,51,127
103,66,51,126
103,66,57,125
102,65,57,124
102,65,56,124
101,65,56,124
101,65,56,123
101,64,56,123
100,64,56,122
99,63,55,121
99,63,55,121
99,63,54,120
98,62,55,120
99,63,54,120
97,62,54,119
97,62,54,118
97,62,54,117
97,62,53,117
96,61,53,117
96,61,52,116
95,61,52,115
94,60,52,115
94,60,51,114
94,60,67,114
94,60,111,114
93,60,146,113
93,59,145,112
92,59,143,112
91,59,143,112
91,58,142,111
91,58,142,110
91,57,141,110
91,58,140,109
89,57,140,109
89,57,139,109
89,57,138,108
89,57,138,107
88,56,137,108
88,56,135,107
88,56,135,106
87,56,135,105
87,56,135,106
87,82,134,103
86,81,133,103
86,81,132,103
85,80,131,103
85,79,131,103
84,79,130,102
83,79,130,102
83,79,130,102
83,78,129,101
83,78,128,101
83,78,127,100
82,77,127,100
81,77,127,99
81,77,126,98
81,76,126,99
80,76,125,98
81,76,124,98
79,76,124,97
79,75,123,96
79,75,123,96
79,75,123,96
79,74,122,96
78,74,121,95
78,73,121,95
78,73,120,95
77,73,120,94
77,71,119,94
77,71,119,94
76,71,118,93
76,71,118,92
76,71,118,92
76,71,117,92
76,70,116,91
75,70,116,91
75,70,115,91
75,69,115,91
74,69,114,90
73,68,114,89
73,69,113,89
73,68,113,88
73,68,112,88
71,67,112,88
72,68,112,88
71,67,111,88
71,67,110,87
71,67,110,86
71,66,110,86
71,66,109,86
71,66,109,86
70,65,109,85
70,65,109,84
69,65,108,84
70,65,108,84
69,64,107,83
69,63,107,83
69,63,106,83
68,63,105,83
67,63,105,82
68,63,105,82
67,63,103,81
67,62,103,82
67,62,103,81
67,62,103,80
66,61,103,80
66,61,102,80
66,61,102,79
66,61,102,79
65,60,101,79
65,61,101,79
65,60,100,79
64,60,100,78
64,60,100,78
63,59,99,77
63,59,99,77
63,59,98,77
63,59,98,77
63,58,98,76
63,58,97,76
63,58,97,76
62,58,96,76
71,57,96,75
71,57,96,75
71,56,96,75
71,57,95,74
71,56,95,74
70,56,95,73
70,56,94,73
69,56,94,73
69,56,93,73
69,55,93,73
69,55,93,71
69,56,92,71
86,55,92,71
85,54,92,71
85,55,107,71
84,54,115,71
83,53,115,71
83,53,114,70
83,53,113,70
83,53,113,70
82,53,113,69
82,52,112,69
81,52,112,69
81,51,112,69
80,52,111,68
80,51,110,68
79,51,110,67
79,51,109,67
79,51,109,67
79,51,108,67
79,50,108,67
78,50,107,67
78,50,107,66
78,50,107,66
77,49,105,66
77,49,105,65
77,49,105,65
76,49,104,65
76,49,103,65
76,48,103,63
75,48,103,63
75,48,103,63
74,48,102,63
74,48,102,63
73,48,101,63
73,47,101,63
73,47,101,63
73,47,100,62
73,47,100,62
73,47,99,62
73,46,99,62
71,46,99,61
71,46,98,61
71,46,98,61
71,46,97,61
71,45,97,60
71,45,97,60
71,45,97,91
71,45,96,121
70,45,96,120
70,45,95,120
69,45,95,119
70,77,95,118
69,76,94,118
69,75,94,117
68,75,93,116
67,75,93,116
67,75,92,115
67,74,92,115
67,73,92,115
67,73,91,114
67,73,92,113
66,73,91,113
66,71,90,112
66,71,90,112
66,71,89,111
65,71,89,110
65,71,89,110
65,71,88,110
65,71,88,109
64,70,88,109
64,70,88,108
63,69,87,108
63,69,86,108
63,69,87,107
63,69,87,106
71,68,86,106
71,68,85,106
71,67,85,105
70,67,85,104
70,67,84,104
69,67,84,103
69,66,83,103
69,66,83,103
68,65,83,102
68,65,83,102
68,65,96,101
67,65,96,123
67,65,96,122
67,64,95,121
67,63,94,121
66,63,94,120
66,63,93,120
66,63,92,119
65,63,92,119
66,63,92,118
65,63,92,117
65,62,91,117
64,62,91,117
63,62,91,115
63,61,90,115
63,61,89,115
63,61,89,114
63,61,89,114
63,60,88,113
63,60,88,112
62,60,88,112
61,60,88,111
61,59,87,111
61,59,87,111
61,59,86,110
61,58,86,110
61,58,86,109
60,58,85,109
59,58,85,108
60,57,85,108
59,57,84,107
60,57,84,107
59,57,83,107
59,56,83,106
58,56,83,105
58,56,82,105
57,56,82,105
57,56,82,103
