24,23,76,17
24,22,76,17
24,22,75,16
24,23,75,17
24,23,74,16
24,22,75,16
24,21,74,16
24,22,74,16
23,22,74,15
23,22,73,16
24,21,73,16
23,21,71,15
23,21,71,15
23,21,71,16
22,21,71,16
22,21,71,15
23,21,71,15
23,20,71,15
28,35,71,15
42,48,71,15
41,46,70,15
41,46,70,15
41,46,70,15
39,46,69,15
41,46,70,15
39,45,69,15
40,46,68,15
39,45,68,15
39,44,67,22
39,45,68,29
39,44,67,29
39,44,67,28
39,56,67,28
39,55,67,28
38,55,66,28
38,55,66,27
38,54,66,27
38,54,65,27
37,54,65,27
37,54,65,27
37,53,65,27
37,53,63,27
36,53,64,27
37,53,64,27
36,52,63,27
37,51,63,26
36,52,63,25
36,51,63,26
36,51,62,27
35,51,62,26
36,50,62,25
35,50,62,26
35,50,61,25
35,49,62,26
35,49,61,25
35,49,61,25
34,50,60,26
35,49,60,24
34,49,61,30
34,48,60,30
34,48,60,31
33,48,59,30
34,48,59,30
33,48,59,30
33,48,59,30
33,47,58,30
33,46,59,30
33,47,57,29
33,46,57,29
33,47,57,29
32,47,57,29
32,46,57,29
32,46,57,28
32,46,57,28
32,46,56,28
31,45,56,28
31,45,56,27
31,44,56,29
31,45,56,28
31,45,56,27
31,44,55,28
31,44,55,27
31,43,55,27
31,44,54,27
31,43,54,27
31,43,54,27
31,43,53,27
31,43,53,27
31,43,53,26
31,42,53,26
31,42,53,26
31,42,52,25
31,41,52,27
31,41,51,26
30,41,52,26
30,41,51,25
31,42,51,25
30,41,52,25
30,39,51,25
30,40,51,25
30,39,51,25
30,39,51,25
29,39,50,24
29,39,50,24
29,39,50,25
29,39,49,24
29,39,49,24
29,39,49,25
29,39,50,24
28,38,49,24
28,38,48,24
28,39,49,24
28,38,48,24
28,38,48,25
28,38,48,24
27,38,48,24
27,38,48,24
28,37,48,24
28,37,47,24
27,36,47,24
27,37,47,24
27,36,47,24
27,36,47,24
26,36,47,24
26,36,46,23
27,36,46,23
26,36,46,23
26,35,45,22
25,36,46,22
25,35,45,22
26,35,45,22
25,35,45,23
25,34,45,21
26,35,45,21
25,35,45,22
25,35,43,21
25,34,44,22
25,33,44,22
25,34,44,22
25,34,44,21
25,33,44,21
24,33,43,21
24,33,43,21
24,33,43,20
24,33,43,21
24,33,43,20
24,33,41,20
24,32,42,19
24,31,42,21
23,33,42,20
23,31,41,19
24,32,42,20
23,31,41,19
24,31,41,19
22,31,41,19
23,31,41,20
23,31,42,19
23,31,42,19
23,30,41,19
22,31,41,19
22,30,41,19
22,30,41,18
22,30,41,19
24,30,39,19
23,29,41,18
22,29,39,18
22,30,39,18
22,30,39,18
22,30,39,18
22,29,39,18
22,29,39,19
22,29,39,18
21,28,39,18
21,29,39,17
21,28,39,18
22,28,38,17
21,28,38,17
22,28,38,17
21,27,38,18
21,28,38,17
21,27,38,17
20,28,38,17
21,27,37,17
20,28,38,16
20,27,37,17
19,27,38,16
20,27,50,16
19,27,54,17
20,27,53,16
24,27,53,16
24,27,52,16
25,26,52,16
24,26,52,15
24,26,52,16
24,25,52,16
24,26,51,15
24,25,51,15
24,26,51,16
24,25,51,19
23,25,50,21
24,25,50,20
24,25,50,19
24,25,50,20
24,25,50,19
24,25,49,19
24,24,49,19
24,24,49,19
23,24,48,19
23,24,48,19
23,25,48,19
24,25,48,19
23,24,48,19
23,24,48,19
22,24,47,19
22,24,47,18
25,24,47,18
24,24,47,18
24,24,46,18
24,24,46,18
24,23,47,18
24,23,45,18
24,24,45,18
24,23,46,18
24,22,45,18
24,23,44,18
23,22,45,19
24,23,45,18
23,22,45,17
23,22,44,18
23,22,45,18
22,22,44,18
22,23,44,18
22,22,44,18
22,21,43,18
23,22,43,17
22,21,43,17
22,21,42,17
22,22,43,17
21,22,42,17
21,22,42,19
28,22,43,18
29,21,41,18
30,21,41,18
29,21,41,18
29,20,41,19
29,21,41,17
29,20,41,17
28,21,41,18
28,20,41,17
28,20,39,17
27,21,39,17
28,20,43,17
28,21,49,17
27,19,48,16
27,19,48,16
27,20,48,18
27,19,48,17
26,19,48,16
26,19,47,16
26,19,47,16
26,19,47,16
26,19,47,15
26,19,46,16
26,19,46,15
25,19,46,15
25,19,46,16
26,18,45,16
26,18,45,15
25,19,46,15
25,18,46,15
25,18,45,16
25,18,45,15
24,18,45,15
25,18,45,15
24,17,45,16
24,17,44,15
25,18,44,15
24,18,44,15
24,17,43,15
24,17,44,15
24,17,44,21
24,17,43,23
57,18,43,23
91,56,43,23
90,56,42,23
89,56,43,22
89,56,42,22
88,55,43,22
88,55,42,22
88,54,42,22
87,54,42,21
87,53,41,22
86,54,41,22
85,54,41,21
85,53,41,21
85,53,39,22
84,53,39,21
84,57,39,22
83,58,39,22
83,58,39,22
83,57,39,21
82,57,39,21
82,57,39,20
82,56,39,21
82,56,39,21
81,56,41,20
81,71,41,21
80,80,41,20
79,89,41,19
80,103,41,19
79,102,39,21
79,101,39,19
78,101,39,19
78,100,39,19
77,99,39,19
78,99,39,19
77,98,39,19
77,98,39,19
76,97,39,19
77,97,39,19
76,98,39,19
76,98,39,19
75,98,39,19
75,97,39,19
75,96,38,19
74,96,38,18
74,96,38,18
73,96,37,19
74,95,37,18
73,95,37,19
73,94,37,18
71,94,37,18
74,93,36,19
140,137,36,18
139,135,37,18
137,135,36,17
137,134,37,17
136,133,43,18
135,133,43,18
135,131,42,17
134,131,42,18
133,130,42,18
133,130,41,18
132,129,42,18
131,128,41,17
131,127,41,17
130,127,41,17
129,126,40,31
129,126,39,30
127,125,39,29
127,124,39,29
127,124,39,29
126,123,39,29
125,123,39,29
125,122,39,29
124,121,39,29
127,121,38,28
126,121,39,28
126,120,38,27
126,119,39,28
124,118,38,28
124,118,37,27
124,118,37,69
123,117,38,101
122,116,37,100
121,116,76,99
121,115,122,99
120,115,120,98
120,114,120,98
120,113,119,97
119,113,118,96
117,112,117,96
117,112,117,96
116,112,115,94
116,111,115,94
115,110,115,94
115,109,114,94
114,109,114,93
114,108,113,93
113,108,112,92
113,116,112,92
113,176,112,91
111,174,111,91
111,173,110,90
111,172,110,89
110,171,109,89
110,170,108,89
109,169,108,88
109,167,108,88
146,167,107,88
144,166,106,87
195,166,105,86
255,164,105,86
282,163,104,86
281,163,103,85
279,162,103,85
350,161,103,85
409,159,103,84
405,159,193,84
401,158,220,83
399,158,230,82
396,157,227,82
393,156,227,81
391,187,226,81
387,184,225,81
385,184,223,80
384,182,221,79
381,181,221,80
421,180,220,79
417,179,218,79
413,178,217,78
410,178,216,78
408,177,216,78
405,175,214,77
403,174,212,77
399,174,211,76
398,172,210,76
395,172,209,76
391,171,207,75
391,169,207,75
388,169,206,78
385,167,206,78
384,169,205,78
382,167,203,77
379,165,202,77
376,165,201,76
374,164,199,76
371,163,199,76
370,162,199,76
368,162,197,75
366,161,197,75
364,161,195,75
362,159,195,75
359,159,194,74
358,158,193,73
355,157,192,74
369,156,191,73
366,156,190,73
364,154,189,71
361,154,188,71
359,153,188,71
357,152,186,71
355,152,185,71
353,151,184,71
352,150,184,70
349,149,184,70
348,153,183,69
345,151,182,69
344,150,180,68
342,149,180,68
339,149,179,67
338,147,179,69
336,147,177,67
335,147,177,67
333,146,176,67
331,145,175,67
329,145,175,66
327,143,173,66
326,143,173,66
325,143,172,65
323,142,171,65
321,142,170,65
319,140,169,64
318,140,169,65
316,139,167,72
314,139,167,83
313,138,167,83
312,137,166,82
310,137,165,82
307,137,165,81
306,137,163,81
305,135,163,81
304,135,162,80
302,135,161,79
300,134,160,79
300,134,159,79
298,133,159,127
295,133,159,126
295,131,158,125
293,131,157,124
291,130,156,123
289,130,156,123
353,183,154,122
349,181,153,121
347,179,153,121
344,178,152,140
343,177,152,140
340,177,151,139
338,175,151,138
336,175,149,137
334,173,149,135
332,172,148,135
330,172,147,135
327,171,147,134
326,169,146,133
324,169,145,132
323,167,145,131
321,167,145,131
318,167,143,130
316,165,143,129
315,165,142,129
313,163,142,129
312,179,141,127
310,177,141,127
307,177,139,126
306,175,140,125
304,174,138,124
303,174,137,124
301,173,137,123
300,171,137,123
297,171,135,122
295,170,135,122
295,169,135,121
293,167,134,120
291,167,133,120
289,166,133,119
287,166,132,118
286,163,132,119
286,163,131,118
284,163,130,117
282,161,130,116
280,161,129,115
280,159,129,115
278,159,128,114
276,158,127,114
275,172,127,113
273,173,126,112
271,172,126,112
271,172,126,111
269,171,125,110
268,169,124,110
267,167,124,110
265,167,123,109
263,167,123,123
263,166,122,122
262,164,122,122
260,164,121,121
259,163,120,120
258,163,120,119
255,162,120,119
255,161,119,118
254,159,119,117
252,159,118,116
263,159,117,115
263,158,117,115
262,157,116,115
259,156,116,114
258,155,115,114
257,153,115,113
255,153,114,112
254,153,114,112
252,152,114,111
251,151,113,111
250,150,112,110
249,150,112,109
248,149,112,109
246,147,111,109
245,147,110,108
244,147,110,107
242,145,109,107
241,145,109,107
241,143,108,105
239,143,108,105
238,143,107,103
237,142,107,103
236,141,107,103
235,141,107,103
233,140,105,103
233,171,105,102
231,169,105,102
230,168,103,101
229,167,103,100
227,167,103,99
227,165,103,99
226,165,102,99
225,165,102,98
224,163,101,99
223,162,102,97
222,161,101,97
222,160,100,97
221,159,100,96
219,159,99,96
219,158,99,96
217,157,98,96
217,157,98,95
216,156,98,94
215,156,97,94
214,154,97,94
213,154,96,93
211,152,96,93
211,152,96,93
209,152,95,92
209,151,95,92
208,151,94,91
207,149,94,91
206,148,94,90
206,147,94,89
204,147,93,89
204,147,93,89
203,146,93,88
203,145,92,88
202,143,92,88
199,143,92,88
199,143,91,87
199,142,91,86
199,142,90,86
198,141,90,86
196,140,89,85
195,140,89,86
194,139,89,85
194,138,89,84
193,138,88,86
193,137,88,86
192,137,88,86
191,135,88,86
190,135,87,85
189,135,86,85
188,134,86,84
188,134,86,84
187,133,85,83
186,133,85,83
186,132,85,82
184,131,85,82
184,130,84,82
183,130,83,82
183,130,83,81
182,129,83,81
181,129,82,81
180,127,82,80
179,127,82,79
179,127,82,79
178,126,82,79
177,126,81,79
177,125,80,78
176,125,81,78
176,138,80,78
219,169,79,77
217,167,79,76
216,167,81,77
215,165,81,76
213,165,80,76
213,163,80,76
211,163,79,76
211,162,79,75
209,162,79,75
208,160,79,85
207,167,114,113
206,167,114,112
205,165,113,111
204,164,112,111
203,163,112,110
201,162,111,110
199,161,111,108
199,159,110,108
198,159,109,108
198,159,109,107
196,158,108,106
195,157,108,106
194,157,107,105
193,156,106,103
192,154,105,103
191,153,106,103
191,153,105,103
190,152,103,103
188,152,103,102
187,150,103,101
186,149,103,100
185,149,102,100
184,149,102,100
184,147,102,99
182,147,100,98
182,146,101,98
181,145,100,97
180,144,99,97
179,143,99,97
179,143,98,96
178,142,98,96
177,142,97,96
176,141,97,96
175,140,97,96
195,141,96,94
194,140,95,94
193,139,96,94
192,139,95,93
190,138,94,93
190,137,95,92
189,137,93,92
188,137,92,92
187,135,93,91
185,135,92,91
185,135,92,90
184,134,91,89
183,134,91,89
182,133,91,89
182,132,89,88
181,132,89,88
179,130,89,88
179,131,89,88
178,130,89,87
178,129,88,87
176,129,88,86
175,127,87,85
174,127,87,86
174,127,87,86
173,126,87,84
173,125,86,84
172,125,86,83
171,124,85,83
170,124,85,83
169,124,85,83
168,123,84,81
167,123,83,81
167,123,83,81
167,121,83,81
166,121,83,80
165,120,82,80
165,120,82,80
163,119,81,79
163,119,80,79
163,118,81,79
162,117,79,78
161,117,79,78
161,116,79,78
159,116,79,77
159,115,79,77
158,115,78,77
158,114,78,77
157,114,78,76
157,113,77,76
156,113,77,75
156,112,76,75
155,112,76,75
155,111,76,73
153,111,75,74
152,111,76,73
153,110,75,73
152,109,75,72
151,109,74,71
150,109,75,71
151,108,74,71
149,108,73,71
149,107,73,71
147,107,73,71
147,106,73,71
147,106,72,70
147,105,71,70
146,105,71,70
146,103,71,69
143,103,71,70
145,103,71,69
143,103,71,69
143,102,70,68
142,102,70,68
142,102,71,67
141,101,70,67
140,101,69,67
140,100,69,66
139,100,69,66
139,99,68,66
139,99,68,66
139,98,67,66
137,99,67,66
137,98,67,65
137,97,67,65
135,97,67,64
135,96,67,64
135,96,67,63
135,96,66,63
134,96,65,63
134,95,66,63
133,94,66,63
132,94,65,63
133,94,65,62
131,94,65,63
131,93,64,62
130,93,64,61
130,92,63,62
129,92,63,61
129,91,63,61
128,91,63,60
127,91,63,60
127,91,63,60
127,90,62,60
126,90,62,60
126,89,62,60
126,89,62,60
125,89,61,60
125,88,62,59
124,88,61,58
123,88,61,58
124,87,60,57
123,87,60,58
122,87,60,57
122,86,60,57
122,86,59,57
121,85,60,56
121,85,59,56
121,85,59,56
120,84,92,56
120,84,124,56
119,83,123,56
119,83,122,56
118,83,121,55
117,82,120,55
117,82,120,55
117,82,120,55
116,82,124,88
116,81,124,86
115,81,124,86
115,80,123,86
114,79,122,85
114,79,121,84
114,79,120,84
113,79,120,83
112,79,120,83
112,78,118,83
111,79,118,83
112,78,118,82
111,78,118,82
110,77,116,81
109,77,115,81
109,76,116,79
109,76,115,79
109,78,115,79
109,82,113,79
108,82,114,79
108,81,112,78
108,81,112,79
107,82,112,78
107,80,111,77
105,80,111,77
105,79,110,77
105,79,110,76
103,79,109,76
103,78,108,76
103,78,108,75
103,78,108,75
103,77,107,74
102,77,107,74
102,77,106,73
102,76,105,73
102,75,105,73
101,76,105,72
101,75,103,73
100,75,103,71
99,75,103,71
99,74,103,71
99,74,103,71
99,73,102,71
98,73,102,71
98,73,101,70
98,73,101,70
97,72,101,70
97,73,99,70
97,71,99,68
96,71,99,69
96,71,99,69
95,71,99,67
96,71,98,68
95,71,98,67
94,70,97,67
94,71,97,67
93,69,97,66
94,70,96,67
93,69,96,66
92,84,96,66
93,84,95,65
92,84,95,65
92,83,94,65
92,82,94,64
92,82,93,65
91,82,93,64
90,81,92,63
91,81,92,63
90,80,92,63
89,80,92,63
89,81,91,62
89,79,91,62
89,79,90,61
88,79,89,62
88,78,89,61
88,78,89,61
88,77,89,61
87,78,88,61
87,77,88,61
86,77,88,60
86,77,88,60
86,76,88,61
86,76,87,60
85,76,87,59
85,75,86,59
85,75,87,59
84,75,86,59
84,74,85,58
83,74,85,58
83,74,85,58
83,73,83,57
83,73,84,57
83,71,83,57
82,71,83,60
82,71,83,60
82,71,83,60
82,71,82,59
81,71,82,59
81,71,81,59
80,70,81,59
79,71,80,58
79,70,79,57
79,69,80,57
80,69,80,57
79,68,80,57
79,68,79,57
78,68,79,56
78,70,78,56
79,81,78,56
78,82,78,56
78,81,77,56
77,80,77,56
77,80,77,56
77,79,76,55
77,79,76,56
77,79,77,55
77,79,76,54
76,79,75,55
76,78,75,62
75,77,75,70
75,77,74,70
75,76,74,69
75,76,74,69
74,76,73,68
74,76,73,68
73,76,73,67
73,75,73,67
73,75,72,67
73,74,72,66
71,73,73,66
71,73,71,66
71,73,71,66
71,73,71,65
71,73,71,65
71,71,70,65
71,71,71,65
71,71,70,65
70,71,70,64
71,71,69,63
70,70,69,63
70,70,70,63
69,70,69,63
70,70,69,62
69,69,69,62
69,69,68,62
69,69,68,62
68,69,67,61
68,68,67,61
67,69,67,61
67,67,67,61
67,67,66,61
67,67,66,61
67,67,66,60
67,66,65,60
67,66,65,60
66,66,65,59
66,65,64,59
66,65,65,59
65,65,64,58
66,65,64,58
65,64,63,58
65,65,63,57
65,64,63,57
64,63,63,57
64,64,63,58
64,63,63,56
63,63,63,56
63,63,62,56
63,62,83,56
63,62,83,56
62,63,82,56
63,62,82,55
62,62,81,55
62,62,82,55
62,61,80,54
61,61,80,55
61,61,79,56
61,60,79,56
61,60,79,56
60,60,79,56
60,60,79,56
61,60,78,55
60,59,78,55
60,59,78,55
60,59,77,54
60,59,77,54
59,58,76,54
59,59,76,54
59,58,76,54
59,57,76,54
58,58,75,53
58,57,75,53
58,57,75,53
57,57,74,52
57,57,74,53
57,57,73,51
57,56,74,51
57,56,73,51
57,56,71,51
57,56,71,51
56,56,71,50
57,56,71,50
56,56,71,51
56,54,71,50
56,55,71,50
56,54,70,50
56,54,70,50
55,54,70,50
55,53,70,49
54,53,69,49
54,53,70,49
54,53,68,49
54,52,68,48
54,52,68,48
54,52,67,48
54,51,67,48
53,51,68,48
53,52,67,47
52,51,67,48
53,51,67,47
52,51,66,47
53,51,66,46
52,50,66,46
57,50,65,46
57,50,86,46
57,50,87,46
56,49,85,46
56,49,85,46
56,50,85,45
56,50,84,45
56,49,84,45
56,48,83,45
55,48,83,45
56,49,83,45
55,49,83,44
54,48,82,44
55,48,82,44
67,68,82,44
67,67,81,44
67,67,81,44
66,67,79,43
65,67,80,43
66,66,79,43
65,66,79,43
65,65,79,43
64,65,79,43
64,64,78,43
64,65,78,42
63,65,78,42
63,63,79,103
63,63,78,103
63,63,77,101
62,63,77,102
63,63,76,100
63,63,76,100
62,62,76,99
62,61,76,99
62,61,75,98
61,61,75,98
61,61,75,97
61,60,75,97
60,61,74,97
60,60,73,96
59,61,73,95
60,59,73,96
59,59,71,95
59,59,72,95
58,59,73,94
58,59,71,93
58,58,71,93
58,59,71,93
57,57,71,92
57,57,70,92
57,57,70,91
57,57,70,92
57,56,70,90
57,57,69,90
56,56,69,90
56,56,69,89
56,56,67,89
55,56,68,88
56,56,68,89
55,55,67,88
55,55,67,88
55,55,67,88
54,54,67,87
55,55,67,86
54,54,66,86
53,54,67,86
53,54,66,85
54,53,65,85
53,52,65,85
53,52,65,84
53,52,64,83
52,52,65,83
51,52,63,83
51,51,64,83
51,51,63,83
51,51,63,82
51,50,63,82
51,51,63,81
51,51,63,81
50,51,62,81
50,50,62,80
50,50,63,79
51,50,62,80
50,50,62,79
49,49,61,79
50,49,61,79
49,49,60,78
49,48,60,78
48,49,60,77
49,48,60,78
48,48,59,77
48,48,60,77
48,48,60,76
48,47,59,76
47,47,59,76
48,47,59,76
47,47,58,75
47,47,58,75
47,46,58,75
47,46,57,75
46,46,57,74
46,46,57,74
47,46,57,73
46,46,57,73
46,45,56,73
46,45,56,71
45,45,56,71
45,45,56,71
45,45,56,71
45,45,56,71
44,44,56,71
44,44,55,71
45,44,55,70
44,43,55,70
44,43,54,70
44,43,54,70
44,43,55,70
44,43,54,68
43,43,54,69
44,43,54,68
43,43,53,67
44,43,53,67
43,43,53,67
43,42,53,67
43,41,53,67
43,41,52,67
42,41,52,112
43,42,51,110
43,41,52,110
42,59,52,109
107,120,51,108
106,119,51,108
105,117,51,107
103,116,50,107
103,115,50,106
103,115,51,115
103,115,50,185
103,114,50,184
102,113,50,182
101,112,49,180
100,112,49,180
99,112,49,179
99,111,48,178
98,111,49,177
99,110,49,176
98,109,48,175
97,108,48,174
97,108,48,174
96,108,48,172
96,107,48,172
96,107,48,171
94,107,47,170
94,105,47,169
94,105,47,167
94,104,47,167
93,103,47,166
92,103,46,166
92,103,46,164
92,102,46,164
91,102,46,163
91,102,45,162
90,101,45,162
90,100,45,161
89,101,45,159
89,99,44,159
89,99,45,159
89,99,45,158
88,98,44,158
88,98,44,156
88,97,44,156
86,97,44,155
86,96,44,154
86,96,44,153
85,96,43,153
85,96,43,152
84,95,42,152
84,94,43,151
84,94,42,151
84,93,42,150
83,93,42,149
83,93,41,148
83,92,41,147
82,92,41,147
81,92,41,147
81,91,41,146
81,91,41,145
81,90,41,144
81,90,40,144
79,90,41,220
79,89,40,262
116,89,40,258
115,88,39,257
115,88,39,255
113,88,39,254
113,87,39,253
112,86,39,251
112,86,39,249
111,86,39,248
111,85,39,248
110,85,39,246
109,85,39,245
109,85,39,243
109,83,39,242
108,83,38,241
108,83,38,239
107,83,37,238
107,82,38,237
107,82,38,236
106,81,38,235
105,81,37,233
105,81,37,231
103,81,37,231
103,79,37,230
103,79,36,229
102,79,36,227
102,79,36,227
101,78,36,226
101,78,36,225
101,78,36,223
100,78,35,223
99,77,35,222
99,77,35,221
99,76,35,219
98,76,35,219
98,76,35,217
97,75,35,217
97,75,35,216
97,74,35,215
96,75,35,214
95,73,34,213
96,74,34,212
96,73,34,211
95,73,34,210
94,73,34,209
94,71,33,207
93,71,34,207
92,71,34,207
92,71,33,205
92,71,33,205
92,71,33,203
91,71,32,203
91,70,33,202
90,70,33,201
89,70,32,199
89,69,32,199
89,69,32,199
89,69,33,198
88,69,31,197
88,68,33,197
88,68,33,195
88,67,32,194
88,68,31,193
87,67,32,193
87,67,31,192
86,66,31,191
85,66,31,190
85,66,31,189
85,66,31,189
84,65,30,188
84,65,30,187
83,65,30,187
83,64,30,186
83,64,30,185
83,65,30,184
82,63,30,184
81,63,30,182
81,63,29,182
81,63,30,181
81,63,30,181
79,63,29,179
80,62,29,179
79,62,29,178
79,61,29,177
79,61,29,176
79,61,29,176
79,61,29,175
78,61,29,174
77,60,29,174
77,60,28,172
77,59,28,172
77,60,29,172
76,59,28,171
76,59,28,171
76,59,28,169
75,59,28,169
76,58,27,167
75,58,27,167
74,58,28,167
75,58,28,167
75,57,27,166
74,57,27,164
71,56,27,164
73,57,26,163
73,56,27,163
71,56,26,162
71,56,27,161
71,56,28,159
71,55,27,159
71,55,27,159
71,55,27,158
70,54,28,158
70,54,26,157
70,54,27,157
70,54,26,156
69,53,26,156
69,53,26,155
68,53,26,154
68,52,25,153
68,52,25,153
67,52,26,152
67,52,25,152
67,52,26,151
66,51,25,150
66,51,25,150
66,51,24,149
65,50,25,148
65,50,25,147
65,50,25,147
65,50,24,147
64,50,24,146
63,49,24,145
63,49,24,145
63,50,24,144
63,49,24,143
63,49,24,143
63,48,23,142
63,48,24,143
62,48,24,141
62,48,24,141
62,49,24,141
61,47,24,140
61,48,23,139
62,47,23,139
61,47,23,138
60,46,23,138
61,46,23,137
60,46,23,137
59,46,22,135
60,45,23,135
59,46,22,135
59,45,23,135
59,45,23,134
59,46,22,134
57,45,21,133
59,45,22,133
57,45,22,131
57,44,22,131
57,44,21,131
57,44,21,130
57,44,21,130
57,44,22,130
56,44,22,129
57,43,22,128
56,43,21,127
56,43,21,127
55,43,21,127
55,42,21,126
55,42,21,125
54,42,21,126
55,42,21,125
54,42,21,124
55,42,21,124
54,41,20,123
53,41,21,123
53,41,21,122
53,41,20,122
53,39,21,121
52,40,20,121
52,39,20,121
52,39,21,120
51,39,20,120
51,39,20,119
51,39,20,119
51,39,19,119
51,40,41,118
50,39,42,117
51,39,41,117
50,39,41,117
51,39,41,115
50,39,41,115
50,39,39,115
49,39,41,115
49,39,39,115
49,39,39,114
49,38,39,113
49,39,39,113
48,38,39,112
48,38,38,112
48,38,38,111
48,38,38,111
47,37,38,110
48,37,38,110
47,37,38,110
47,37,38,110
46,37,38,109
46,36,37,109
46,37,37,108
47,36,37,108
46,36,37,107
45,35,36,108
46,36,37,106
45,35,36,107
45,35,35,106
45,35,36,106
46,35,35,105
45,35,35,103
45,35,35,103
45,35,35,103
44,35,35,103
43,35,35,103
44,34,34,102
44,34,34,102
44,34,34,101
44,34,35,101
43,34,34,101
43,34,34,100
43,33,34,100
43,33,33,99
41,33,34,99
41,34,33,99
41,33,33,99
42,33,33,99
41,32,33,98
41,32,32,97
42,32,33,97
41,33,32,97
41,32,32,96
41,32,31,96
41,31,31,96
39,31,31,95
39,31,31,95
39,31,31,95
39,32,31,94
39,31,31,94
39,31,31,94
39,31,31,93
39,31,30,93
39,30,30,92
39,30,31,93
39,31,30,92
39,31,30,92
39,30,30,91
38,30,30,91
38,29,29,91
39,30,29,91
38,29,30,90
38,30,29,90
38,29,29,89
38,30,29,89
37,29,29,89
37,29,29,88
37,29,29,88
37,29,28,88
37,29,28,88
37,29,28,88
37,29,29,87
37,28,28,86
37,28,28,86
36,28,28,86
36,28,28,85
36,28,28,85
35,28,28,85
35,28,28,84
35,28,28,85
35,27,28,84
35,27,28,84
35,27,28,83
35,27,27,83
35,27,27,83
34,27,27,82
34,27,27,82
34,27,27,82
35,27,26,82
34,26,27,82
34,27,26,81
34,26,26,81
34,26,26,81
34,26,26,80
33,26,25,79
33,27,26,79
33,26,25,79
33,26,25,79
33,26,26,79
33,26,25,79
32,26,25,78
32,25,25,78
31,26,25,78
33,26,25,77
32,25,24,77
31,25,24,77
32,25,24,76
31,25,25,76
31,25,25,76
31,25,24,76
32,25,25,76
32,25,25,76
31,24,24,75
31,25,25,75
31,24,24,74
31,25,24,74
31,25,24,74
31,24,24,73
31,24,24,73
30,24,24,73
30,24,24,72
30,24,24,71
30,24,24,71
30,24,23,71
30,24,23,71
30,23,23,71
29,23,23,71
30,23,22,71
29,23,22,71
29,23,22,70
29,23,22,70
30,23,22,70
30,22,23,69
28,22,22,69
29,22,22,70
28,23,22,69
28,21,22,68
28,22,21,68
28,22,22,68
28,22,22,68
28,22,21,67
28,21,21,67
28,21,21,67
28,22,23,67
28,21,24,67
27,22,23,66
28,21,23,66
27,21,23,66
28,21,22,65
27,22,23,65
28,20,23,65
28,20,22,65
27,20,22,65
27,20,23,64
27,20,22,63
27,21,23,63
26,20,22,63
26,20,23,63
27,20,22,63
26,20,21,63
26,20,22,63
26,21,21,63
26,20,21,62
26,19,22,63
25,19,21,62
25,19,21,61
25,19,20,61
25,19,21,62
25,19,20,61
25,19,20,61
25,19,21,60
25,19,21,61
25,19,21,60
24,18,21,60
25,18,21,60
24,18,21,60
24,18,20,59
24,19,21,59
24,18,20,59
24,18,20,59
24,18,20,58
24,18,20,58
24,18,20,57
24,18,20,57
23,18,26,58
24,18,29,57
24,17,30,57
24,18,29,57
24,17,30,56
23,18,30,57
23,18,29,56
23,18,29,56
22,17,29,56
23,17,29,55
22,17,28,56
23,18,29,55
23,16,29,55
22,17,28,55
22,17,28,55
22,16,28,55
22,16,28,54
22,16,28,54
22,17,27,53
21,16,27,54
22,17,28,54
22,16,27,53
22,16,27,53
21,16,27,52
21,16,26,53
21,15,27,53
22,56,27,52
21,55,26,52
22,54,26,52
21,54,26,51
21,54,25,51
21,54,26,52
22,53,26,51
21,53,25,51
21,53,25,51
21,52,26,51
21,52,25,50
20,51,25,50
20,51,25,50
20,51,25,50
21,51,25,50
20,51,24,49
20,51,25,49
21,49,25,48
20,50,24,49
20,49,24,48
20,50,24,48
19,48,24,49
19,49,24,48
20,48,24,48
19,48,23,48
19,48,24,48
19,48,23,48
19,48,23,47
19,48,23,47
19,47,24,47
19,47,23,46
19,47,23,46
19,47,22,46
18,46,23,46
19,46,23,46
19,46,22,45
18,46,22,46
18,45,22,45
18,45,22,46
18,45,22,45
18,45,22,45
18,45,22,45
19,45,21,45
18,44,22,44
18,44,22,44
17,44,22,43
18,44,21,44
18,43,21,44
17,44,21,44
18,43,21,44
17,43,21,43
17,43,21,43
17,43,21,43
18,42,20,43
17,43,20,43
17,42,22,43
17,41,23,42
17,41,23,42
17,41,23,42
17,41,22,41
17,41,23,41
17,41,22,41
17,39,23,41
16,39,23,41
16,39,22,41
16,41,22,40
16,39,22,41
16,39,22,39
16,39,22,41
16,39,22,39
17,39,22,39
16,39,22,39
15,38,21,39
16,38,22,39
15,39,21,39
15,38,21,39
15,38,20,39
15,38,20,39
15,37,20,39
15,37,21,38
15,38,21,39
15,37,20,38
15,37,20,39
15,37,19,39
15,36,21,38
15,37,21,38
15,36,20,38
14,36,20,38
14,36,20,38
14,35,20,37
14,35,27,37
14,35,31,37
15,35,31,37
14,35,30,37
14,35,31,37
15,35,30,36
15,34,30,36
14,35,30,35
14,34,30,37
14,34,29,36
14,34,30,35
14,33,30,36
14,33,29,35
15,33,29,35
14,33,29,35
13,33,28,35
15,33,29,34
14,32,29,35
14,33,29,35
13,32,29,34
13,33,28,34
14,32,28,34
13,31,27,35
13,31,28,34
13,31,28,34
14,32,27,34
13,31,27,33
13,31,27,33
14,31,27,34
13,31,27,34
13,31,27,33
13,31,26,33
13,30,27,33
12,30,26,33
13,30,27,33
12,30,26,31
12,30,26,32
13,30,25,32
12,30,26,33
12,29,25,31
12,30,25,32
12,30,25,31
12,29,25,31
12,29,24,31
13,29,25,31
12,29,25,31
13,28,25,31
12,29,25,31
12,28,24,31
12,28,24,31
12,28,25,30
11,28,24,31
12,28,24,30
12,28,47,30
12,28,47,30
12,28,46,30
12,27,47,29
12,28,46,30
12,27,46,29
11,27,46,30
11,27,46,30
11,27,45,29
12,27,45,29
12,27,44,29
11,26,44,29
11,26,44,29
11,26,44,28
11,26,44,28
11,26,44,29
11,25,43,29
11,26,43,28
12,26,43,29
11,25,43,28
11,25,43,28
11,25,43,28
11,25,42,27
11,24,42,28
10,24,41,28
10,25,42,27
11,24,41,28
11,56,41,27
11,61,59,27
11,61,69,27
10,60,68,27
10,59,68,27
10,59,67,26
10,59,67,27
11,59,67,26
11,58,67,27
10,58,66,27
9,58,67,26
9,57,65,26
10,57,65,26
10,57,65,26
10,57,65,26
10,56,64,25
10,56,65,25
10,56,64,25
9,56,63,25
10,56,63,25
9,55,63,25
9,55,63,25
9,55,62,25
9,55,62,25
9,54,62,25
9,54,62,25
10,54,62,24
10,54,61,24
9,53,62,24
9,53,61,24
10,53,60,24
9,53,61,24
10,52,60,24
9,52,59,24
9,52,60,24
9,51,60,24
9,51,58,24
10,51,59,24
9,51,59,24
9,50,58,24
9,50,58,24
9,50,58,23
9,51,58,23
9,50,57,23
9,49,57,23
9,49,56,22
9,49,56,23
9,49,56,22
9,49,56,23
9,48,56,23
8,49,56,23
7,49,56,22
8,48,56,22
7,48,55,22
8,47,55,21
7,47,54,22
9,47,55,21
9,47,54,22
7,46,54,21
7,46,54,22
7,46,53,22
7,46,53,22
7,46,53,21
9,45,53,21
8,45,53,21
7,46,51,21
7,45,51,21
7,45,51,21
7,44,51,20
7,45,51,20
7,44,51,20
7,44,51,21
7,44,51,20
