23,24,59,39
23,23,59,39
23,23,59,39
23,23,58,38
22,23,59,39
23,23,57,38
22,22,57,38
22,22,57,38
22,22,57,38
22,22,56,37
22,22,57,37
22,21,57,37
22,22,56,37
21,22,56,37
22,21,56,37
21,21,56,36
21,21,55,36
21,21,55,36
21,21,55,35
21,21,54,36
21,21,55,35
20,20,54,35
20,21,53,35
20,21,53,35
20,21,53,35
20,20,53,35
20,20,52,35
21,19,53,34
23,20,52,34
25,19,52,34
25,20,52,33
25,19,51,34
25,19,51,34
25,19,51,33
25,19,51,33
25,19,51,33
25,19,50,33
25,19,50,32
24,19,50,32
25,19,50,32
24,18,49,31
24,18,50,31
24,18,49,31
24,18,49,31
24,18,48,31
24,18,48,31
24,18,48,31
23,18,48,31
23,17,48,31
23,17,48,31
23,18,47,31
23,17,47,30
23,17,47,30
22,17,47,30
23,17,71,33
23,17,71,33
22,17,71,33
22,17,70,33
22,17,70,33
21,17,70,33
22,17,69,32
22,16,69,32
21,16,69,32
21,16,68,31
21,16,68,31
21,16,68,31
21,16,67,31
21,16,67,31
21,15,67,31
20,15,67,31
20,15,66,30
20,15,66,30
21,15,66,31
20,15,65,30
19,16,65,30
19,15,65,30
19,15,64,30
19,15,63,30
19,15,63,29
19,15,63,29
19,15,63,29
20,14,63,29
21,14,63,29
21,14,62,29
21,15,62,28
20,14,62,28
21,14,61,28
20,14,62,28
21,14,61,28
20,14,60,28
21,13,61,28
20,14,60,27
20,14,60,27
19,13,60,27
19,14,60,27
19,13,59,27
19,14,59,27
19,13,59,27
19,13,58,27
19,13,58,27
19,13,58,26
19,13,58,26
19,13,57,26
18,12,57,26
19,13,57,26
18,12,56,25
18,12,57,25
18,12,56,25
18,21,56,25
18,24,56,25
18,23,55,25
17,23,55,25
18,22,55,25
17,22,55,25
17,23,54,24
17,22,54,24
17,22,54,24
17,22,54,24
17,22,53,24
17,22,54,24
19,22,53,24
19,21,53,24
19,21,52,24
19,21,53,24
19,21,51,24
18,21,52,24
18,21,51,23
18,20,51,24
18,20,51,24
18,21,51,23
18,20,50,22
18,20,51,22
18,20,51,23
21,20,54,22
20,19,54,22
20,19,53,22
19,19,53,21
19,19,53,22
19,19,53,21
19,19,53,21
19,19,52,21
19,19,52,22
19,19,51,21
19,18,51,21
19,19,51,21
19,19,51,20
18,18,51,21
19,18,51,21
19,18,50,20
18,19,50,20
19,18,50,20
18,18,50,20
19,18,49,20
18,18,49,20
17,17,49,20
18,17,49,19
18,17,48,19
18,17,49,19
17,17,48,19
18,17,48,20
18,17,48,21
18,17,48,20
18,17,47,20
18,17,47,20
18,17,47,19
18,16,47,20
18,16,47,19
18,17,46,19
18,16,46,19
17,16,46,19
17,16,46,19
17,16,45,19
18,16,45,19
18,15,45,19
19,15,45,19
18,15,45,19
18,15,45,19
18,15,44,19
18,15,45,19
17,15,44,19
17,15,44,18
17,15,43,19
17,15,44,19
17,15,43,19
17,15,43,18
19,15,43,18
20,15,43,18
19,15,43,18
19,15,43,18
19,15,42,18
19,15,41,18
19,15,42,18
19,15,41,17
19,14,41,18
19,14,41,18
19,14,41,17
19,14,48,17
18,14,47,17
19,14,47,17
19,14,48,17
19,14,47,16
19,14,46,17
19,14,46,16
18,14,46,17
18,13,46,17
18,14,45,16
18,14,45,16
17,13,45,16
17,13,45,16
17,13,45,15
18,13,44,16
18,13,44,15
18,13,44,15
17,13,44,15
17,13,44,15
17,13,44,15
18,13,43,15
17,13,43,15
17,13,43,15
17,13,43,15
17,13,43,15
17,12,42,15
17,13,41,15
17,13,42,15
17,13,41,39
16,13,81,95
17,12,81,94
17,13,79,93
16,12,79,92
16,13,79,91
16,13,79,91
16,12,78,90
16,12,78,90
16,12,78,89
16,12,77,89
16,12,76,89
15,12,76,88
16,12,76,88
15,12,76,88
15,12,75,86
15,12,75,86
15,11,75,86
15,12,74,86
15,12,74,85
15,12,73,85
15,11,73,85
15,11,73,84
15,11,72,83
15,11,71,83
15,11,71,83
16,11,71,82
20,11,71,82
19,11,71,81
20,11,71,81
20,11,71,81
20,11,70,80
19,11,70,80
19,11,69,80
19,10,69,79
19,10,69,79
19,10,69,79
19,10,68,78
19,10,68,78
19,10,67,78
19,11,67,78
19,11,67,77
19,11,66,77
19,11,67,77
19,11,66,76
19,11,66,76
19,11,66,76
19,10,65,75
19,10,65,75
18,11,64,74
18,11,64,74
18,10,63,74
19,10,63,74
19,10,63,73
19,10,63,72
18,13,63,71
19,12,63,71
18,12,62,71
18,12,62,71
18,12,62,71
18,12,62,71
18,12,61,71
18,12,61,70
17,12,61,70
18,12,60,70
26,12,60,69
29,12,62,69
31,14,62,71
30,14,61,71
30,14,62,71
29,14,61,71
29,14,61,70
29,14,60,70
29,14,60,70
29,13,60,69
29,14,59,69
28,14,59,69
28,13,59,69
28,13,59,68
29,13,59,68
28,13,58,67
28,13,58,67
28,14,58,67
28,19,58,66
28,18,57,66
28,18,57,66
27,19,57,66
27,18,56,65
27,18,56,65
27,18,56,65
27,18,56,65
27,18,56,64
26,18,55,64
26,18,55,63
26,17,55,63
26,17,54,63
25,17,55,63
25,17,54,63
26,17,54,62
25,17,54,63
25,17,54,62
25,17,52,62
25,17,53,61
25,17,52,61
25,16,52,61
25,16,52,61
25,16,51,60
25,16,51,60
25,16,51,60
25,16,51,59
25,15,51,59
24,15,51,59
24,15,50,59
24,15,50,58
25,15,50,58
24,16,50,58
24,15,50,58
24,15,49,57
24,15,49,57
24,15,49,57
23,15,49,57
24,14,49,57
23,15,48,56
23,15,48,56
23,15,48,56
22,15,48,55
23,15,47,55
22,14,47,55
22,14,47,55
22,14,47,55
22,14,46,54
22,15,46,54
38,18,46,54
38,18,46,54
37,18,46,54
37,17,45,53
37,17,45,52
37,17,46,53
37,17,45,52
37,17,44,52
37,17,45,52
36,17,45,51
35,17,44,51
35,17,73,51
35,16,73,51
35,16,73,51
35,16,71,50
35,16,71,50
35,16,71,51
34,15,71,50
34,16,71,50
34,15,70,49
34,15,70,49
34,15,70,49
34,15,69,49
33,15,69,48
34,15,68,48
35,15,68,48
35,15,68,48
34,15,67,48
35,15,67,48
34,15,67,48
34,15,66,47
34,15,66,47
33,14,66,46
33,14,66,46
33,14,65,47
33,14,65,46
33,14,65,46
35,14,65,46
34,14,65,46
34,15,64,46
34,52,64,45
34,63,63,45
34,62,63,45
33,62,63,45
34,62,63,44
33,62,63,44
33,61,62,45
33,60,62,44
32,60,62,44
33,60,62,44
32,60,61,44
33,66,103,135
33,79,124,145
34,81,122,143
34,81,121,143
34,80,121,142
33,79,120,142
33,79,120,140
33,79,118,140
32,78,118,139
32,78,118,138
32,77,117,137
33,77,116,137
31,76,115,135
33,76,115,135
32,76,114,135
32,76,114,134
32,75,113,133
31,75,113,132
31,75,112,131
31,74,112,131
33,73,111,130
32,73,111,130
32,73,110,130
32,71,110,129
33,71,109,127
32,71,109,127
31,71,108,127
31,71,108,126
31,70,107,125
31,70,106,126
31,70,107,124
31,70,106,124
31,69,105,124
31,69,105,123
83,103,103,123
97,102,103,122
103,101,103,121
102,100,103,120
101,100,102,120
100,99,101,119
99,98,101,118
99,98,100,118
98,97,100,117
98,97,99,116
98,96,99,116
97,96,99,116
96,95,99,115
96,95,98,115
96,95,98,114
95,95,97,114
95,94,96,113
94,93,96,112
93,93,96,112
93,92,96,112
93,92,95,111
92,91,95,111
92,91,94,110
92,91,93,109
91,90,93,109
91,89,93,108
90,89,93,108
90,89,92,108
89,88,91,107
89,88,92,107
89,88,91,107
88,88,91,107
88,87,90,106
88,86,89,105
87,86,89,105
87,86,89,103
87,85,89,103
86,85,89,103
85,84,88,103
85,83,88,102
86,83,88,102
85,83,87,102
85,82,87,101
84,82,86,100
83,82,86,100
83,81,85,99
83,81,85,99
83,80,84,99
83,81,84,99
82,80,84,98
89,80,83,97
114,79,83,98
113,79,83,97
112,79,83,96
112,78,82,96
111,78,81,96
110,78,81,95
110,77,81,95
110,77,81,94
109,76,81,94
109,163,79,94
108,162,79,93
107,160,79,93
135,159,79,92
134,159,78,92
134,157,79,91
133,157,78,91
132,156,78,91
131,155,77,91
131,156,76,90
130,155,76,89
129,155,76,89
129,153,76,89
127,152,75,88
127,152,75,88
126,152,75,88
126,151,75,87
125,150,75,87
125,149,74,86
124,148,73,86
124,147,73,86
123,147,73,85
122,146,73,85
122,145,71,85
121,144,71,84
121,143,71,83
120,143,71,83
119,142,71,82
118,142,71,83
118,141,70,82
117,140,70,82
117,140,70,81
116,139,69,81
116,138,69,81
115,137,69,80
115,137,68,79
114,135,68,79
114,135,67,88
113,135,67,88
112,134,67,88
112,134,67,87
112,133,66,86
111,132,66,86
111,131,66,85
110,131,65,85
109,131,65,84
109,130,65,84
108,129,65,83
108,129,65,83
107,128,65,83
107,127,65,83
106,127,64,83
106,127,64,82
105,126,63,81
104,125,63,81
103,125,63,81
103,124,63,80
103,124,63,79
103,123,62,79
103,122,62,79
103,134,62,79
103,133,62,78
103,132,61,78
102,131,61,78
102,131,61,77
102,130,60,77
101,129,60,77
101,128,60,76
100,127,60,76
99,127,59,76
99,127,59,75
99,126,59,76
98,125,59,75
98,125,58,74
97,125,58,74
97,124,58,74
96,133,58,73
96,133,57,73
96,132,57,73
95,131,57,73
94,131,57,71
94,130,56,71
94,130,56,71
94,129,56,71
93,129,56,71
93,127,56,70
112,127,68,71
115,126,68,70
114,126,67,70
113,126,67,69
112,125,67,69
112,124,66,68
112,124,66,68
111,142,66,68
110,164,65,67
109,163,65,67
112,162,65,67
114,239,64,67
113,274,63,73
112,271,64,73
112,270,63,73
112,268,63,71
110,267,63,71
110,265,63,71
109,263,62,71
109,263,62,71
108,261,62,71
108,259,61,70
108,257,61,70
107,347,61,69
107,351,61,69
106,349,60,68
105,347,60,68
105,344,60,68
103,343,59,67
103,339,59,67
103,338,58,67
103,336,59,67
120,334,58,66
119,333,58,66
119,330,58,66
118,327,57,65
117,327,57,65
117,325,57,64
116,323,56,64
115,322,56,63
115,319,56,63
115,318,56,63
114,317,56,63
113,315,56,63
113,313,55,63
112,312,57,134
174,310,57,132
243,308,56,131
241,307,56,130
239,304,56,129
238,304,56,129
236,302,55,128
235,300,55,127
233,299,54,127
231,295,55,126
231,295,54,126
230,294,54,125
229,293,54,124
227,291,53,124
226,289,53,123
225,287,53,123
224,286,52,122
222,285,52,121
221,283,52,120
220,282,51,120
219,281,51,120
217,279,51,128
217,278,51,127
216,276,51,126
214,275,51,126
213,273,50,125
211,271,50,124
211,271,49,124
210,269,49,123
209,268,49,123
207,267,49,122
207,265,49,123
206,263,49,122
205,262,48,122
204,261,48,121
203,260,48,121
202,259,48,120
201,257,47,120
199,256,47,120
199,255,47,119
198,254,47,118
196,253,46,117
195,251,47,117
195,249,46,116
194,249,46,115
193,248,46,115
192,247,45,115
192,245,45,114
191,243,45,114
190,243,45,113
188,241,44,112
188,240,44,112
187,239,44,111
186,238,44,111
185,237,43,110
184,236,43,109
184,235,46,109
235,300,45,108
233,317,45,108
231,314,45,108
230,312,44,107
228,311,44,106
227,308,44,106
225,307,43,105
225,305,43,103
224,303,44,103
222,302,43,103
221,300,43,103
220,298,51,103
219,295,51,102
217,295,51,102
216,293,50,102
215,291,50,101
214,289,49,100
213,287,50,99
212,287,49,99
211,285,49,99
210,284,48,99
209,283,48,98
207,281,62,97
207,280,61,97
206,278,61,96
205,277,61,96
204,275,60,96
203,275,60,96
202,273,60,95
201,271,60,95
199,271,59,94
199,269,59,94
198,268,59,93
197,267,59,93
196,265,94,92
195,263,94,92
194,263,92,92
193,262,92,91
192,259,92,91
192,259,90,90
191,258,91,89
190,256,90,89
189,255,89,88
188,253,89,88
187,252,89,88
187,251,88,88
185,250,103,88
184,249,102,88
258,278,102,87
262,308,102,86
259,307,101,86
258,304,100,101
257,302,99,100
255,301,99,99
254,299,99,99
253,297,98,99
251,295,97,98
250,295,97,97
248,293,96,97
247,291,96,97
246,290,96,96
244,287,95,96
243,287,94,95
242,285,95,95
241,284,94,94
240,283,93,94
239,281,93,93
237,279,93,93
236,278,92,93
235,276,91,92
233,275,92,91
231,273,91,91
231,272,90,91
231,271,90,90
229,270,89,89
227,269,89,89
227,267,88,89
226,266,88,88
225,263,88,88
224,263,87,88
223,262,87,87
222,260,87,87
221,259,113,96
220,258,112,95
219,257,111,94
217,255,110,94
216,254,110,94
216,252,110,93
214,251,109,92
213,249,108,92
212,249,108,92
211,248,107,91
239,246,107,90
237,245,107,90
236,243,105,90
234,242,105,89
233,241,104,89
231,240,103,88
231,239,103,88
229,238,103,88
228,236,102,87
227,236,102,87
225,234,102,86
224,233,101,86
223,231,100,85
222,231,100,84
221,230,99,84
220,229,99,84
218,227,99,83
217,227,98,98
216,226,98,97
215,225,97,97
214,224,97,96
214,223,96,96
212,222,96,95
211,221,95,95
210,219,95,95
209,287,94,94
207,285,94,93
207,283,93,93
206,281,93,92
205,280,93,92
205,279,92,92
204,277,92,91
202,275,91,91
201,274,91,90
201,273,90,89
199,271,90,89
199,269,89,89
198,268,89,88
230,267,89,88
228,265,88,88
227,263,88,87
226,263,88,87
225,261,87,86
224,260,86,86
222,259,87,86
222,258,86,85
220,255,86,84
219,255,86,84
218,253,85,129
217,252,84,131
216,251,84,130
215,249,83,129
214,248,83,128
211,247,83,127
211,245,83,127
210,244,81,126
209,243,82,125
207,242,81,125
207,241,80,124
207,240,80,123
207,238,79,123
206,237,79,122
204,236,79,121
204,235,79,120
202,233,78,120
201,231,78,120
199,231,78,119
199,230,78,118
198,229,77,118
198,227,76,117
197,227,76,117
195,225,76,116
195,306,75,115
194,304,75,115
193,302,75,114
192,300,74,113
191,298,74,113
190,295,74,112
189,295,73,112
188,293,73,111
187,291,71,111
186,290,71,110
185,287,71,110
185,287,71,109
184,285,71,108
183,284,71,108
182,281,70,108
181,280,70,107
180,279,70,107
179,277,69,105
179,276,69,105
178,274,69,105
177,273,69,103
176,271,68,103
175,270,68,103
174,268,67,102
174,267,67,102
173,265,67,102
172,263,66,101
171,263,66,101
171,262,66,100
170,260,66,99
169,259,65,99
167,257,65,100
167,257,123,99
167,255,121,99
166,254,120,99
165,252,119,98
164,251,119,98
163,249,118,98
163,248,118,97
162,247,117,97
161,246,115,96
161,245,115,96
160,243,115,95
159,242,114,94
159,241,113,94
158,240,113,93
157,238,112,93
156,238,112,93
156,236,111,92
155,235,111,92
154,233,110,92
154,231,109,91
153,231,109,90
152,231,108,89
152,229,108,89
151,227,108,89
150,227,107,89
149,226,107,88
149,225,105,88
147,224,105,88
147,223,105,87
147,236,103,86
146,233,103,86
145,233,103,85
145,231,103,85
145,230,102,85
143,229,102,84
143,228,101,84
142,227,101,83
142,225,99,83
141,224,99,82
140,222,99,82
140,222,99,82
139,221,99,82
139,220,98,81
138,219,97,81
137,218,97,81
137,217,97,80
137,216,96,79
135,216,96,79
135,243,96,79
135,241,95,79
134,240,94,78
134,238,94,78
133,257,93,77
132,274,93,77
131,271,93,77
131,271,92,76
131,269,92,76
130,268,91,76
130,266,91,76
129,265,90,76
128,263,90,76
127,262,89,76
127,261,89,75
127,259,89,75
126,258,88,74
133,256,88,74
132,255,88,74
131,254,87,73
130,252,87,73
131,251,86,73
129,251,86,71
129,249,86,71
128,248,85,71
127,247,85,71
127,245,85,71
126,243,84,71
126,243,83,70
125,241,83,70
124,240,83,70
125,239,82,70
124,238,82,69
123,237,81,69
123,236,81,96
122,235,81,96
121,233,81,96
121,231,80,95
121,231,79,94
120,230,79,94
120,229,79,93
119,227,79,93
119,227,78,92
118,225,78,92
118,224,78,91
118,223,78,91
116,222,77,90
116,221,77,89
115,220,76,90
115,219,76,89
115,218,76,89
114,217,76,88
114,216,75,88
113,215,75,87
112,214,74,87
163,236,74,86
161,233,74,86
161,231,73,85
159,231,73,85
159,230,73,85
158,228,71,84
157,227,71,83
156,226,71,83
155,225,71,83
155,224,71,82
153,222,71,82
153,221,71,82
152,221,71,81
152,220,70,81
152,218,70,80
150,217,70,79
150,216,69,79
149,215,69,79
147,214,68,78
147,213,68,79
146,211,67,78
146,211,67,78
145,209,67,78
144,209,66,77
143,207,66,77
143,207,66,76
142,206,65,76
142,205,65,75
141,204,65,76
140,203,65,75
140,203,65,75
139,202,64,74
138,242,63,73
137,287,63,73
137,286,63,73
137,284,63,73
135,283,63,71
135,281,63,74
134,280,63,73
134,278,62,71
133,276,62,73
132,275,61,71
132,273,62,71
171,271,61,71
169,271,60,71
169,269,60,71
167,268,60,71
167,266,60,70
166,265,59,76
166,263,59,76
164,262,59,76
163,261,59,75
163,259,58,74
162,258,58,74
161,257,57,74
159,255,57,73
159,254,57,73
159,253,57,72
158,251,57,71
157,250,125,71
156,249,124,71
156,248,123,71
155,247,123,71
154,245,121,71
153,244,121,71
152,243,120,70
152,241,120,70
152,240,119,69
150,239,118,69
150,238,117,69
148,237,117,68
148,236,115,68
147,235,115,67
147,233,115,67
146,231,114,67
145,231,114,67
144,230,113,66
143,228,112,66
143,227,112,65
142,226,112,65
141,225,111,64
141,224,110,65
140,223,110,64
139,222,110,63
139,220,109,63
138,220,108,63
137,218,108,63
136,217,107,63
135,216,106,62
135,215,106,62
135,214,106,62
134,213,105,61
133,212,104,61
220,211,103,61
257,270,103,61
255,293,103,60
253,291,103,60
251,289,102,60
249,287,101,59
248,285,101,59
247,283,101,59
245,281,100,59
244,280,99,59
243,279,99,58
241,277,99,58
240,275,98,57
239,274,98,57
238,273,97,57
237,271,97,56
235,270,96,57
234,269,96,56
233,267,96,56
231,265,95,56
231,263,94,56
230,263,95,56
228,262,94,55
227,260,94,55
226,259,93,54
225,258,93,54
224,257,92,55
223,255,92,54
222,254,91,54
221,252,91,54
220,251,90,53
219,250,90,53
217,249,89,53
216,248,89,52
216,246,89,53
215,246,88,51
217,243,88,51
308,243,88,51
305,242,88,51
304,241,86,51
302,240,86,51
300,238,86,50
298,237,86,50
295,236,85,50
295,235,85,49
293,233,84,50
291,231,84,49
290,231,83,48
288,231,83,48
287,230,83,48
285,228,82,48
284,227,82,48
283,226,81,48
281,225,81,48
280,224,81,48
279,223,80,47
277,222,80,47
275,221,79,47
274,220,79,46
272,219,98,60
271,218,97,59
270,217,97,59
268,216,96,59
267,215,96,59
266,214,95,58
265,213,95,57
263,211,94,57
262,211,94,57
260,210,93,56
259,209,93,131
258,207,92,146
257,207,92,145
255,206,92,143
254,205,91,143
252,204,91,142
251,203,90,141
250,202,89,141
249,201,89,140
248,199,89,140
246,199,89,138
245,199,88,137
244,197,88,137
243,196,87,135
241,195,87,135
240,195,86,135
240,194,85,134
238,193,85,133
237,192,85,133
236,192,85,132
234,191,84,131
233,190,83,130
231,189,83,130
231,188,83,129
230,188,83,129
229,186,82,127
227,185,81,127
227,184,81,127
225,184,81,126
224,184,80,125
224,182,79,125
222,181,79,124
222,180,79,123
220,179,79,123
219,179,78,122
218,179,78,124
217,177,77,127
216,176,77,126
215,176,77,126
214,175,76,125
213,219,76,125
212,218,76,124
211,216,76,123
210,215,75,123
209,213,75,122
207,213,75,121
207,211,74,121
206,210,73,120
205,209,73,120
204,207,73,119
204,207,71,119
202,206,71,118
201,205,71,117
199,204,71,117
199,203,71,116
199,201,71,115
198,201,71,115
197,199,70,114
195,198,70,114
195,225,70,113
194,223,69,113
193,222,69,112
192,221,68,111
192,219,68,111
190,218,67,111
190,217,67,110
189,216,67,109
188,215,67,109
187,214,66,108
186,212,66,108
185,211,66,107
185,210,66,107
184,209,66,107
183,207,65,105
182,220,65,105
181,227,65,105
180,226,64,105
179,225,63,103
179,224,63,103
177,222,63,103
177,221,63,103
176,220,63,102
231,219,62,101
230,239,62,101
228,287,62,100
227,285,61,99
226,283,61,99
224,281,61,99
223,280,60,99
222,279,62,98
220,277,62,98
220,275,62,97
218,274,62,97
217,272,62,96
217,271,61,96
215,270,61,96
214,268,61,95
213,267,60,94
212,265,60,94
211,263,60,94
210,263,59,93
208,307,60,93
207,305,59,93
207,303,59,92
206,302,59,92
205,299,58,91
204,298,57,91
203,295,57,90
202,295,57,90
201,295,56,89
199,295,57,89
199,293,57,88
198,291,56,88
197,290,56,88
196,288,56,88
195,287,56,88
194,285,55,87
194,284,55,87
192,282,55,86
192,281,54,85
191,280,55,85
190,278,54,84
189,276,54,84
188,275,54,84
187,273,53,83
186,272,53,83
185,271,53,83
185,269,53,83
184,268,52,82
184,267,52,82
220,265,51,81
217,263,51,81
216,263,51,80
216,262,51,80
214,260,51,79
213,259,51,79
211,257,51,79
211,255,51,79
209,255,50,78
209,254,50,78
207,253,49,78
206,251,50,78
206,250,50,77
205,249,49,76
203,248,49,77
203,247,49,76
201,245,48,75
199,244,48,76
199,243,48,75
199,242,51,75
197,241,51,75
197,240,51,74
195,239,50,73
195,237,50,73
194,236,50,73
193,235,49,71
192,234,49,71
192,233,49,71
190,231,49,71
189,231,49,71
188,230,54,71
213,229,53,71
211,227,53,70
211,227,53,70
210,225,52,70
209,224,52,69
207,224,52,69
207,222,51,69
205,221,51,68
205,220,51,68
204,219,51,68
202,219,50,67
202,217,103,107
199,216,106,105
199,215,105,105
198,214,105,103
197,213,103,103
195,212,103,103
195,211,103,103
194,210,102,102
193,208,102,101
192,207,101,100
191,207,101,100
190,206,100,99
189,205,99,99
188,204,99,98
187,203,99,99
186,202,98,98
185,201,98,97
184,199,97,97
184,199,96,96
183,199,96,96
182,197,96,95
181,196,95,95
180,195,95,94
179,195,95,94
179,194,94,101
177,193,94,101
177,192,93,101
176,192,93,100
175,190,93,99
175,190,92,99
174,189,92,99
173,188,91,98
172,187,91,97
172,186,90,97
171,186,89,96
170,185,89,96
169,184,89,96
169,183,89,95
167,182,88,95
167,182,88,94
167,181,87,94
166,179,87,93
165,179,87,93
164,178,86,92
163,177,86,92
163,177,85,91
162,176,85,91
161,175,85,91
161,174,84,90
159,173,83,90
159,173,83,89
159,172,83,89
158,172,82,88
158,171,82,88
156,170,82,88
156,169,81,87
155,167,81,87
155,167,80,86
154,167,79,86
153,198,79,85
153,197,79,86
152,195,79,84
152,195,78,84
152,193,78,83
150,192,77,83
150,192,77,83
149,190,77,82
149,189,77,82
147,188,76,81
147,188,76,81
173,187,75,81
172,185,75,81
171,185,75,80
169,184,75,79
169,183,74,79
167,182,74,79
167,197,73,79
166,195,73,79
166,194,73,78
165,193,72,78
164,192,71,77
163,191,71,77
163,190,71,77
161,189,71,76
161,188,71,76
159,187,71,75
159,187,70,75
158,185,70,75
157,184,70,74
157,184,69,74
156,183,69,73
155,182,69,73
154,181,68,73
153,179,68,72
153,179,67,71
152,178,67,71
152,177,67,71
151,177,67,71
150,176,67,71
149,175,66,71
149,174,66,70
149,173,66,71
147,173,65,69
147,172,65,69
146,171,65,68
145,170,64,68
145,169,63,68
144,167,64,67
143,167,63,67
143,167,63,67
142,167,63,67
142,165,62,66
141,164,62,66
140,165,62,66
140,163,62,65
140,163,62,65
138,162,61,65
138,161,61,65
138,161,62,87
138,159,61,86
138,159,61,85
137,158,61,85
135,158,61,84
135,157,60,83
135,157,60,83
135,156,60,83
134,156,59,82
134,155,59,82
133,154,58,81
132,153,59,81
132,153,58,81
131,152,58,80
131,152,58,79
130,150,57,79
130,151,57,79
129,150,57,79
129,149,57,78
128,148,56,78
127,148,56,78
127,147,56,77
227,146,56,77
260,145,55,76
259,145,56,76
257,144,54,76
255,144,54,75
254,143,54,75
252,143,53,74
251,142,54,74
249,141,54,74
248,141,53,73
247,140,53,73
245,140,53,72
244,139,52,71
243,139,52,79
242,138,52,79
240,138,51,79
240,137,52,78
238,135,51,78
237,135,51,77
236,135,51,77
235,135,51,77
233,134,50,77
231,134,50,76
231,133,49,75
230,132,49,75
230,132,49,75
228,131,49,74
227,131,49,74
226,130,49,73
225,129,48,73
224,129,48,73
224,129,48,71
222,128,47,71
221,127,47,71
220,127,47,71
219,127,47,71
217,126,47,71
217,125,47,70
216,125,47,70
214,125,46,70
214,124,46,69
213,123,46,69
211,123,45,69
211,122,45,68
210,122,45,68
209,122,44,67
207,121,45,67
206,121,46,67
206,182,46,66
205,180,46,66
205,179,45,67
204,178,45,66
203,177,45,66
202,176,44,65
201,175,44,65
199,174,44,64
199,173,44,65
198,173,44,64
197,172,44,64
196,170,44,63
195,170,43,63
195,169,43,63
193,167,43,63
193,167,42,62
192,167,42,62
191,166,42,62
190,165,41,62
189,164,42,61
188,163,41,61
188,163,41,61
187,161,41,61
186,160,41,60
185,159,41,60
184,159,41,60
184,159,41,60
183,158,39,59
182,157,39,59
181,156,40,59
180,156,39,58
179,155,39,58
178,154,39,58
177,153,39,57
177,153,42,57
176,152,42,57
176,152,41,61
174,151,41,60
173,149,41,60
173,149,41,60
172,149,39,59
171,147,40,59
171,147,39,59
170,146,39,59
169,199,39,58
169,207,39,57
167,206,39,57
167,205,39,57
167,204,39,57
165,203,39,56
165,202,38,56
164,201,38,56
163,199,38,56
163,199,38,56
162,198,38,56
161,197,38,55
160,195,37,55
159,195,37,54
159,194,37,54
159,193,37,54
158,192,37,54
157,191,36,54
156,190,37,53
156,190,36,53
155,188,36,53
155,187,36,52
153,186,35,52
153,185,35,52
153,184,35,52
152,184,35,51
151,183,35,51
176,182,34,51
175,181,35,51
174,180,35,51
173,179,34,51
172,179,34,50
172,177,34,50
170,176,34,50
170,176,34,49
169,175,34,49
167,174,33,49
207,190,33,50
283,259,38,49
280,257,38,49
278,255,37,48
276,253,37,48
275,252,36,48
273,251,36,47
271,249,37,48
270,248,36,47
269,247,35,47
268,245,35,48
266,243,35,47
263,243,35,46
263,241,35,46
262,240,35,46
260,239,35,46
259,238,35,46
258,236,35,45
256,236,34,45
255,234,34,45
254,233,34,45
253,231,34,44
251,231,34,44
250,229,34,45
249,229,33,44
248,227,33,44
246,227,33,44
245,225,33,44
243,224,33,44
243,223,32,43
241,222,32,43
240,221,32,43
239,220,32,43
238,219,31,42
237,217,31,42
236,216,31,42
234,216,31,42
234,215,31,54
231,214,31,53
231,213,31,53
230,211,31,52
229,211,31,52
228,209,31,51
227,208,30,51
225,207,30,51
225,206,30,51
224,206,30,51
222,205,30,50
222,204,29,50
221,203,29,50
219,202,30,49
218,201,29,49
217,199,29,49
217,198,29,49
216,198,29,49
215,197,29,48
214,196,28,48
212,195,28,47
211,194,28,48
211,194,28,47
210,193,28,47
209,192,28,47
207,191,28,47
207,190,27,46
206,189,27,46
205,188,27,46
204,188,27,45
203,187,27,45
202,186,26,45
201,185,26,45
199,184,26,45
199,183,26,44
198,183,27,44
198,181,26,44
197,181,26,44
195,179,26,43
195,179,26,43
194,178,25,43
193,177,25,42
192,177,25,43
192,176,25,42
191,175,25,42
190,174,25,42
189,173,25,41
188,173,25,41
187,172,25,41
187,171,25,41
185,170,24,41
185,169,24,41
184,167,24,41
184,167,24,39
183,167,24,39
182,167,24,39
180,166,24,39
180,165,24,39
179,164,24,39
178,163,24,39
178,163,24,39
177,207,23,39
176,205,23,38
176,204,22,38
175,203,22,39
174,202,22,39
173,201,22,39
172,199,22,39
171,199,22,39
171,198,23,39
170,227,23,39
169,283,30,39
167,280,30,39
167,278,29,39
167,276,29,38
166,275,29,38
166,273,29,38
165,271,29,38
164,271,29,38
163,269,28,38
163,268,28,37
162,265,33,37
162,263,33,37
161,263,32,37
159,262,32,36
159,261,32,37
159,259,31,36
158,258,31,36
157,255,31,36
157,255,31,36
156,254,31,35
155,252,31,35
154,251,31,35
153,249,31,35
153,248,31,35
152,248,30,35
152,246,30,35
152,244,30,35
150,243,30,34
150,242,30,34
149,241,30,34
148,240,29,34
147,238,30,33
147,275,29,34
147,275,66,38
146,273,65,37
145,271,64,37
145,270,63,37
144,268,63,37
143,267,63,36
143,265,63,36
143,263,63,36
142,263,63,36
141,261,62,35
141,259,61,35
140,259,61,35
140,258,61,35
140,255,60,35
139,255,60,35
138,253,60,34
137,252,60,34
137,251,60,34
135,249,59,34
135,249,59,34
135,247,59,33
135,246,58,34
134,244,58,33
133,243,57,33
133,242,57,33
133,240,57,33
132,240,57,33
131,238,56,33
131,237,56,32
130,237,56,32
130,235,56,32
129,234,56,31
129,231,55,31
127,231,55,31
127,231,55,31
127,229,54,31
126,229,54,31
126,227,54,31
125,226,53,31
125,225,53,31
124,224,53,30
124,223,53,30
123,222,53,30
123,221,52,30
123,220,52,30
121,219,51,30
121,218,51,30
121,217,51,29
120,216,51,29
120,215,51,29
120,214,51,29
119,213,51,29
118,211,51,29
118,213,50,28
118,212,50,29
117,211,49,28
116,210,49,28
153,209,49,28
152,207,49,28
150,207,57,27
