125,84,1,43
124,84,1,43
124,83,1,43
123,83,1,43
123,83,1,42
122,83,0,42
127,82,1,41
126,82,1,41
126,82,1,41
125,81,1,41
124,81,1,41
124,86,1,43
123,85,0,44
123,84,1,44
122,84,1,44
121,83,1,44
121,83,1,43
120,83,0,43
120,82,1,43
124,82,1,43
124,81,1,43
123,81,1,42
122,81,1,42
122,80,1,42
121,103,1,56
121,102,1,57
120,101,1,57
120,101,1,57
119,101,0,56
118,99,1,56
118,99,1,56
117,99,1,56
132,98,1,55
131,98,1,55
131,97,1,55
130,97,0,54
129,96,0,54
128,127,0,54
127,126,0,54
127,125,1,54
126,124,1,53
126,124,0,53
125,123,1,53
125,122,1,53
124,122,1,52
125,121,1,52
125,121,1,51
124,120,1,51
123,119,1,51
123,120,1,51
122,118,1,51
121,118,1,50
121,117,0,51
120,117,0,50
120,116,0,49
119,115,1,49
119,115,1,49
127,114,1,49
126,113,1,49
126,113,1,48
125,112,1,48
124,112,1,48
124,112,1,49
123,111,1,48
123,110,1,49
121,110,1,48
121,109,1,48
120,109,1,48
120,108,1,47
128,108,2,47
128,108,2,47
127,107,2,47
127,106,2,46
126,105,2,46
126,105,2,49
125,103,2,52
124,103,2,51
124,103,2,51
123,103,1,51
122,103,2,51
121,102,2,51
121,102,1,50
123,101,2,50
122,101,2,50
121,100,1,50
121,99,1,49
120,103,2,49
120,103,2,49
120,103,1,49
119,103,1,48
118,102,1,48
117,102,1,48
117,101,1,47
116,100,2,47
122,99,1,47
121,99,1,47
121,99,2,47
120,99,2,46
120,98,1,46
119,98,2,50
119,97,1,50
118,97,2,50
117,97,2,50
116,96,1,49
116,96,2,49
115,96,1,49
115,95,1,49
124,94,1,49
123,94,2,49
122,94,2,48
122,93,1,48
121,93,1,48
120,97,1,48
120,96,1,47
120,96,1,47
119,95,1,47
118,95,1,47
118,94,1,46
117,94,1,46
116,94,1,46
126,93,1,46
126,93,1,46
125,92,1,45
124,92,1,45
124,91,1,45
123,91,1,45
123,90,1,44
122,90,1,45
121,89,1,44
121,89,1,44
120,89,1,44
120,88,1,44
120,88,1,43
125,88,1,43
124,88,1,43
124,88,1,43
123,87,1,42
123,86,1,42
122,86,1,42
121,86,1,41
121,85,1,41
120,85,1,41
120,84,1,41
119,84,1,41
118,83,1,41
118,83,1,39
123,83,1,39
123,82,1,39
122,82,1,39
121,81,1,39
121,81,1,39
120,83,1,55
120,83,1,57
119,82,1,56
119,82,1,56
117,81,1,56
117,81,1,56
116,81,1,55
116,80,1,55
119,79,1,55
123,79,1,55
122,79,1,54
121,79,1,54
121,79,2,54
120,98,1,53
120,98,1,53
119,97,1,53
119,96,1,52
118,96,1,52
118,96,1,51
117,96,1,51
116,95,1,51
125,94,1,51
127,94,1,51
126,93,1,51
126,93,1,50
125,92,1,50
124,92,1,50
124,92,1,50
123,91,1,50
123,91,1,50
122,90,1,49
121,90,1,49
121,89,1,49
120,88,1,49
123,89,1,48
128,88,2,48
127,88,2,48
127,88,1,48
126,88,1,48
126,87,1,48
125,86,1,48
124,86,1,48
124,85,1,48
123,85,1,48
123,84,1,48
121,84,1,48
121,83,1,47
122,83,2,47
127,83,2,47
127,83,1,46
126,82,1,46
126,81,1,46
125,95,1,46
125,111,1,46
124,110,1,45
123,110,1,45
123,109,1,45
122,108,1,44
121,108,1,44
121,108,1,44
126,107,1,44
125,107,1,44
124,106,1,43
124,105,1,43
123,105,1,43
123,108,1,45
122,107,1,45
121,106,1,44
120,105,1,44
120,105,1,44
119,103,1,44
119,103,2,43
119,103,1,43
129,103,1,43
128,102,1,43
127,102,1,43
127,101,1,42
126,127,1,44
126,125,1,45
125,124,1,45
124,124,1,45
124,123,1,44
123,123,1,44
122,121,1,44
121,121,1,44
129,120,1,43
128,120,1,43
127,119,1,42
127,119,2,42
126,118,1,42
126,117,1,44
125,117,1,44
125,116,1,43
124,116,1,43
123,115,1,43
123,114,1,43
122,114,2,43
130,113,2,42
129,113,2,42
128,112,2,42
128,112,2,41
127,111,2,41
127,123,2,41
126,122,2,42
125,121,1,41
125,121,2,42
124,120,1,41
124,120,2,41
123,119,2,41
123,118,2,41
128,118,2,40
127,117,2,40
127,116,1,39
126,115,2,39
126,118,1,39
125,117,1,39
124,116,2,39
124,115,2,39
123,115,1,39
122,114,1,39
121,114,2,39
121,113,2,38
125,112,2,38
124,112,2,38
124,112,2,38
123,111,2,37
122,110,2,37
121,110,2,37
121,109,1,37
120,109,1,37
120,109,1,37
119,108,1,37
119,107,2,36
118,107,1,36
124,106,1,36
125,105,2,35
124,105,1,35
123,105,1,35
123,103,1,35
122,106,1,35
121,105,1,35
121,105,1,35
120,103,1,35
120,103,1,34
119,103,1,34
119,103,1,34
118,103,2,34
125,102,1,34
124,102,1,33
124,101,1,33
123,100,1,33
122,103,1,33
121,103,2,37
121,103,1,37
120,103,1,37
120,102,1,36
119,101,1,36
119,101,1,36
118,101,1,36
130,100,1,36
129,99,1,35
129,99,1,35
127,98,1,35
127,98,1,35
126,98,1,39
126,97,1,44
125,97,1,44
124,96,1,44
124,96,1,43
123,96,1,43
123,95,1,43
122,94,1,42
131,94,1,43
131,94,1,42
130,93,1,42
130,93,1,41
129,92,1,41
129,116,1,41
127,115,1,41
127,115,1,41
126,114,1,41
126,113,1,39
125,113,1,41
124,112,1,39
124,112,1,39
130,111,1,39
129,110,1,39
128,110,1,39
127,109,1,39
126,109,1,41
126,108,1,47
125,107,1,46
125,107,1,46
124,107,1,46
124,106,1,46
123,105,1,45
122,105,1,45
125,103,1,45
125,103,1,45
124,103,1,45
124,103,1,44
123,102,1,44
122,102,1,45
121,101,1,46
121,101,1,45
120,101,1,45
120,100,1,45
119,99,1,45
118,99,2,45
120,99,2,44
124,98,2,44
123,98,2,44
122,97,2,44
122,97,1,43
121,96,2,43
121,96,2,43
120,96,1,43
120,95,1,42
119,94,2,42
118,94,1,42
118,94,2,42
117,93,1,41
116,93,1,41
117,92,2,41
116,92,2,41
115,92,2,40
115,91,2,39
115,91,1,47
114,91,2,49
114,90,1,49
113,90,1,49
112,89,1,48
112,89,1,48
111,88,1,48
111,88,2,48
111,88,1,48
128,88,2,47
127,87,1,47
127,87,2,47
126,86,1,47
125,86,2,48
125,93,1,53
124,93,1,52
123,92,1,51
123,92,1,51
122,91,1,51
121,91,1,51
121,90,2,51
121,89,2,50
134,89,2,50
133,89,2,50
132,88,2,50
132,88,2,50
131,88,2,49
131,88,2,49
130,87,2,49
129,86,2,48
129,86,2,48
127,86,1,48
127,85,2,48
127,85,2,48
126,84,2,48
133,84,3,47
132,83,3,47
131,83,3,47
131,83,3,46
130,83,3,46
129,82,3,62
129,82,3,62
127,81,3,61
127,81,3,61
127,80,3,60
126,80,3,60
125,80,3,60
125,79,3,59
128,79,3,59
127,79,3,59
127,79,3,58
127,78,2,58
126,78,2,58
125,110,2,57
124,110,2,57
124,109,3,57
123,108,2,57
123,108,3,56
122,107,2,56
121,106,2,56
121,106,2,56
127,105,2,56
126,105,2,55
126,103,2,54
125,103,2,54
124,103,2,54
124,103,3,54
123,102,2,53
122,102,2,53
121,101,2,53
121,101,2,52
121,100,2,52
120,99,2,52
135,99,3,51
134,99,2,52
134,98,2,51
133,97,2,51
132,97,2,51
131,97,2,52
131,96,2,53
130,96,2,52
130,96,2,52
129,95,2,51
129,94,2,51
127,94,2,51
127,94,2,51
127,93,2,51
127,93,2,51
127,93,2,51
126,92,2,50
126,92,2,50
125,98,2,51
124,98,2,52
124,97,2,52
123,97,2,52
122,96,2,51
121,96,2,51
121,95,2,51
121,94,2,51
123,94,3,50
122,94,3,50
121,93,2,50
121,93,3,50
120,92,2,49
120,112,2,49
120,111,3,49
119,110,2,49
118,110,2,48
118,109,2,48
117,108,2,48
117,108,2,48
115,107,3,48
123,107,2,47
121,107,3,47
121,105,3,47
121,105,2,46
120,107,2,46
120,106,2,48
119,105,2,48
118,105,3,47
118,103,2,47
117,103,2,46
116,103,2,46
115,103,2,46
130,102,2,46
129,101,2,45
128,101,2,45
127,100,2,45
127,100,2,45
126,99,2,46
126,99,2,46
125,99,2,46
124,98,2,46
124,97,2,45
123,97,2,45
123,97,2,45
122,96,3,45
127,96,2,45
127,96,2,44
127,95,2,44
126,95,2,44
125,94,2,44
124,97,2,44
124,97,2,43
123,96,2,43
123,96,2,43
122,96,2,42
122,95,2,42
121,94,2,42
121,94,2,42
130,94,2,41
130,93,2,41
129,92,2,41
128,92,2,41
127,92,2,41
127,92,2,43
126,91,2,45
125,91,2,44
125,91,2,44
124,90,2,44
124,90,2,44
123,89,2,44
123,89,2,44
131,88,2,43
130,88,2,43
129,88,2,43
129,87,2,43
128,87,2,43
127,90,2,47
127,90,2,49
126,89,2,49
125,89,2,49
125,89,2,48
124,88,2,48
124,88,2,48
123,88,2,48
132,88,2,48
131,87,1,47
130,86,2,47
130,85,2,47
129,85,2,47
129,115,2,58
127,113,1,58
127,113,2,57
126,112,1,57
126,112,1,57
125,111,1,57
125,110,2,56
124,110,2,56
125,109,1,56
124,109,2,55
124,108,2,55
123,108,2,55
123,107,2,55
122,107,2,54
121,106,2,54
120,105,2,54
120,105,2,53
120,105,1,53
119,103,2,53
118,103,1,52
122,103,2,52
121,102,2,52
120,102,1,51
120,102,1,51
120,101,1,51
119,125,1,51
118,124,1,51
117,124,1,51
117,123,2,50
117,122,1,49
115,121,1,50
115,121,2,49
123,120,2,49
127,120,2,49
127,120,2,48
126,119,2,48
126,118,2,48
125,118,2,48
124,117,1,48
124,116,2,48
123,115,2,47
123,115,2,47
121,114,2,47
121,114,1,46
121,113,2,46
130,113,1,46
130,112,1,46
129,111,1,46
128,111,1,45
127,111,1,45
127,110,2,45
126,110,2,45
126,109,1,45
125,109,1,44
124,108,1,44
124,108,1,44
123,107,1,44
131,107,2,44
130,106,1,44
129,105,1,43
129,105,2,43
127,105,1,42
127,103,1,43
126,103,1,44
126,103,1,44
125,103,1,44
124,102,1,44
124,102,1,43
123,101,1,43
123,100,1,43
127,100,1,43
126,99,1,42
126,99,1,42
125,99,1,42
124,98,1,41
124,98,1,41
123,97,1,41
123,96,1,41
122,96,1,41
121,96,1,41
121,96,1,39
120,95,1,39
120,95,1,39
125,94,1,39
124,93,1,39
124,93,1,39
123,93,2,39
122,93,1,42
121,92,1,64
121,92,1,63
121,91,1,63
120,91,1,63
120,90,1,63
119,90,1,62
118,89,1,62
118,89,1,62
130,89,1,61
129,88,1,61
128,88,1,61
127,88,1,60
127,93,1,60
127,95,1,60
126,95,1,60
125,94,1,59
125,94,1,59
124,93,1,59
124,93,1,58
123,92,1,58
123,92,1,58
129,92,1,57
129,91,1,57
128,91,1,57
127,90,1,57
127,92,2,56
126,98,1,56
126,98,1,56
125,97,2,56
124,97,1,55
124,97,1,55
123,96,1,55
123,96,1,55
122,95,2,55
130,95,2,54
129,94,2,54
127,94,2,54
127,93,2,53
127,93,2,53
126,93,2,53
125,92,1,53
125,92,1,52
124,91,1,51
124,91,1,52
123,91,1,51
122,90,2,51
122,90,2,51
125,89,2,51
125,88,2,50
124,88,2,51
124,88,2,50
123,88,2,50
123,88,2,54
122,88,2,56
121,88,1,56
120,87,2,55
120,86,2,55
120,86,1,55
119,86,2,54
119,85,2,54
126,85,2,53
125,84,2,53
124,84,2,53
124,83,2,53
124,83,2,52
123,95,2,52
122,95,2,52
121,94,2,52
121,94,2,52
120,93,2,51
120,92,2,51
119,92,2,51
119,92,2,51
136,91,2,50
135,91,2,50
135,90,2,50
134,90,2,50
133,89,2,50
133,90,2,53
132,89,2,53
131,89,2,52
131,88,2,52
130,88,2,51
129,88,2,51
129,88,2,51
128,88,2,51
131,87,2,51
130,86,2,50
130,86,2,50
129,85,2,50
129,85,2,50
127,85,2,50
127,84,2,51
126,84,2,51
126,83,2,51
125,83,2,51
125,83,2,50
124,82,2,50
123,82,2,49
130,82,2,49
129,81,2,49
128,81,2,49
127,80,2,48
127,80,1,48
127,113,2,51
126,112,2,50
125,112,1,50
125,111,1,50
124,110,1,49
123,110,2,49
123,109,1,49
122,108,1,49
129,108,1,49
129,107,2,48
127,107,1,48
127,106,2,48
126,107,1,49
126,106,1,54
125,105,1,54
125,105,1,54
124,104,1,53
124,103,1,53
123,103,1,53
122,103,1,52
127,102,1,52
127,102,1,51
126,101,1,51
125,101,1,51
125,100,1,51
124,103,1,52
123,103,1,51
122,103,1,51
122,102,1,51
121,101,1,51
121,101,1,51
120,100,2,50
125,100,2,50
129,99,2,50
127,99,2,50
127,99,2,49
127,98,2,49
126,134,2,49
125,132,2,49
125,131,2,48
124,130,2,48
123,130,2,48
123,129,2,48
122,127,2,47
121,127,2,47
128,127,2,47
127,126,2,47
127,125,2,47
126,124,2,46
125,124,2,46
125,124,2,47
124,123,2,47
124,122,2,47
123,121,2,46
122,121,2,46
121,120,2,46
121,120,2,46
133,120,2,45
132,118,2,45
131,118,2,45
131,117,2,44
130,116,2,45
129,116,2,48
128,115,2,48
127,115,1,48
127,115,2,48
127,114,2,48
126,113,2,47
125,113,2,47
125,112,1,47
126,112,2,46
125,111,1,46
125,111,2,46
124,110,1,46
124,110,1,45
123,109,1,45
122,108,1,45
122,108,1,44
121,108,1,45
121,107,1,44
120,107,2,44
120,105,2,44
127,105,2,44
126,105,1,43
126,103,2,43
125,103,1,43
125,103,1,43
124,138,1,44
123,137,1,43
123,135,1,44
122,135,1,43
121,135,1,43
121,134,1,43
120,134,3,42
127,133,2,42
131,132,2,41
131,131,2,42
131,131,2,41
130,130,2,41
129,129,2,43
128,129,2,45
127,128,2,45
127,127,2,44
126,127,2,44
126,126,2,44
125,126,2,44
124,125,3,43
130,124,2,43
129,123,3,43
128,123,2,42
127,123,2,42
127,122,2,43
126,121,2,46
126,120,2,45
125,120,2,45
124,120,2,45
124,119,2,45
123,118,2,45
123,117,2,45
133,117,2,44
132,116,2,44
131,115,2,44
131,115,2,44
130,115,2,43
129,114,2,43
128,114,2,44
127,113,2,44
127,113,2,43
126,112,2,43
126,111,2,43
125,111,2,43
125,111,3,42
127,110,2,42
127,109,2,42
127,109,2,41
126,108,2,41
125,108,2,41
124,107,2,42
124,107,2,41
123,106,2,41
123,105,2,41
121,105,2,41
121,105,2,41
121,103,2,41
127,103,2,39
126,103,2,39
126,103,2,39
125,102,2,39
124,113,2,41
124,116,2,49
123,115,2,48
122,115,2,48
121,113,2,48
121,113,2,48
121,113,2,48
120,112,2,47
122,112,2,47
122,111,2,47
121,111,2,81
121,110,2,82
120,110,2,81
120,147,2,80
119,147,2,79
118,146,2,79
118,145,2,79
117,144,2,79
117,143,2,78
116,143,3,78
115,142,3,77
117,141,3,77
117,140,3,77
116,140,2,76
115,139,3,76
115,150,3,76
114,150,3,75
114,149,2,112
113,148,2,178
112,147,2,178
112,146,2,177
111,145,2,175
111,145,2,174
110,143,12,173
110,143,12,172
109,142,12,171
108,141,12,170
108,159,12,169
108,158,11,167
107,157,11,167
107,156,11,166
106,155,12,165
105,154,11,165
105,153,33,163
110,152,34,163
109,152,34,162
109,151,33,199
108,150,33,326
107,221,33,420
107,318,32,414
106,327,32,409
105,324,31,408
105,321,31,403
103,319,31,401
170,318,31,398
251,315,31,395
248,313,31,393
246,312,31,390
244,310,31,387
243,307,31,385
241,305,30,383
240,304,30,381
239,302,29,378
237,300,29,403
236,298,29,560
235,295,29,676
233,295,30,665
231,293,30,658
230,291,30,653
230,289,29,646
227,287,29,641
226,286,29,635
225,284,29,629
224,283,28,624
223,281,28,619
222,280,28,615
221,279,28,750
220,277,29,809
218,275,28,801
217,274,29,792
216,271,64,783
215,270,63,775
214,316,63,768
212,313,62,760
211,312,62,751
210,310,61,745
209,307,61,738
207,306,61,732
207,304,60,724
206,302,60,717
205,300,110,711
204,298,109,704
203,295,108,697
201,294,107,691
199,292,106,686
199,291,105,679
198,289,105,671
197,287,103,666
195,286,103,662
195,284,103,655
193,282,102,649
193,280,102,643
192,279,101,639
190,277,100,633
189,275,100,628
189,274,99,623
188,272,99,654
187,271,99,719
185,270,98,713
185,268,97,705
184,266,97,700
183,265,96,693
182,263,96,686
181,262,95,679
179,260,94,673
179,259,94,668
179,258,94,663
177,255,93,655
176,255,92,652
176,253,92,645
175,252,92,639
174,292,91,635
173,367,91,629
172,364,90,625
172,361,89,664
171,359,89,683
169,357,89,675
169,354,88,671
167,352,88,664
167,349,88,657
166,348,87,653
166,345,87,647
164,344,86,641
164,341,85,636
163,339,85,630
162,337,85,751
162,335,83,856
161,407,83,891
159,455,83,878
159,451,83,866
158,448,82,858
158,444,82,847
156,441,81,839
156,438,81,830
155,434,80,823
155,432,79,813
154,428,79,804
153,426,79,797
152,423,79,789
152,420,84,782
151,417,105,894
150,414,110,908
149,411,114,912
148,409,118,912
147,406,118,903
147,403,141,885
173,399,147,873
172,398,145,865
171,395,144,862
169,391,143,851
169,390,143,903
167,387,142,910
167,385,141,914
167,382,140,917
165,380,139,920
251,377,138,920
276,376,137,919
274,372,137,910
272,442,135,888
271,568,135,876
268,746,135,902
267,735,134,910
265,726,133,914
263,718,132,917
262,711,131,919
260,704,130,920
259,697,130,921
257,689,159,921
255,684,157,919
254,677,202,902
252,670,201,882
251,664,199,871
249,659,198,863
248,653,197,853
246,646,195,844
245,639,194,833
243,636,193,824
312,630,192,817
322,624,191,807
319,618,189,799
317,614,188,791
315,608,188,783
313,603,186,775
312,598,185,768
309,594,184,760
307,588,183,753
305,583,182,746
304,578,181,738
302,575,180,731
299,570,179,726
297,565,178,718
295,560,177,893
294,556,176,902
292,551,175,891
291,548,174,878
289,543,173,866
287,539,172,856
285,536,172,847
284,531,171,838
281,527,170,829
280,523,169,819
279,519,167,812
277,516,167,803
275,512,166,794
274,508,165,785
271,505,164,776
271,501,163,770
269,497,162,761
268,494,161,753
266,491,161,746
265,487,159,740
263,483,159,732
262,480,158,725
260,478,158,719
259,475,157,713
257,472,156,706
255,467,155,700
254,463,154,693
253,462,153,688
252,459,152,681
250,455,152,675
248,452,151,669
248,450,150,664
246,447,149,658
245,444,148,653
243,440,147,647
242,438,147,643
241,435,146,637
239,432,145,632
238,429,145,626
236,427,144,622
236,423,143,617
234,422,142,611
233,419,142,607
231,417,141,601
231,414,140,598
229,411,140,593
228,408,139,588
227,406,138,583
226,403,137,579
224,401,135,575
223,398,135,571
222,396,135,567
221,393,135,563
220,391,134,558
219,389,133,554
217,386,133,550
216,384,131,547
215,382,131,542
214,379,130,538
213,377,130,535
211,376,129,531
211,447,129,527
209,608,127,524
207,600,127,519
207,595,126,517
206,589,126,513
205,583,125,509
204,578,124,505
203,574,124,503
202,569,123,499
201,564,123,496
199,559,122,492
199,556,121,489
198,551,121,487
197,546,120,483
196,563,120,479
195,560,119,476
194,555,118,473
193,550,118,471
192,545,117,467
191,541,117,464
190,536,116,462
189,531,115,459
188,527,115,455
187,524,115,453
186,519,113,451
185,515,113,448
184,511,113,445
184,507,112,442
182,504,111,440
181,500,111,437
180,496,110,434
179,492,110,432
179,489,109,429
178,486,108,427
177,482,108,423
176,478,108,421
175,476,107,419
174,472,106,416
173,469,106,414
173,465,105,412
172,463,105,409
171,459,103,408
170,455,103,405
169,452,103,402
167,450,103,399
167,447,102,398
167,444,102,395
166,440,101,393
165,438,101,391
164,435,100,389
163,432,99,387
163,428,99,384
162,427,99,383
161,423,98,380
159,422,98,379
159,422,97,376
159,427,97,375
158,423,96,372
157,421,96,370
157,418,96,369
156,415,95,366
155,413,95,365
154,410,94,363
153,408,94,361
153,467,153,359
152,658,182,357
152,661,180,355
151,654,179,353
150,649,177,352
149,642,176,350
149,636,176,347
148,630,174,345
147,625,173,344
147,619,172,342
146,613,171,340
145,647,170,339
145,806,169,337
143,898,195,335
263,885,251,333
388,873,248,332
515,864,246,330
509,853,244,327
504,843,243,327
499,833,241,324
496,825,240,323
492,815,238,321
487,806,237,319
484,796,236,318
481,790,234,316
478,781,231,315
474,772,231,313
471,764,230,312
467,757,229,310
463,749,227,309
460,741,226,307
457,734,225,305
454,726,224,304
451,719,222,303
448,713,221,301
445,706,220,299
442,699,219,297
440,694,217,295
435,687,216,295
433,679,215,294
430,673,214,291
428,670,213,290
423,663,211,289
422,657,227,287
419,651,225,286
415,647,224,285
414,639,222,284
411,635,220,282
408,629,220,281
406,625,219,280
403,619,217,278
401,614,216,277
398,608,215,275
396,604,244,274
393,600,243,273
391,595,241,271
389,589,240,270
399,585,238,269
453,581,237,268
450,575,235,267
447,571,234,265
443,567,248,263
440,563,379,263
437,559,521,261
433,554,565,259
431,550,559,259
428,546,553,258
425,542,549,257
422,538,545,255
556,534,540,254
559,531,536,253
553,527,531,252
548,522,527,250
543,519,524,249
540,515,519,248
536,511,515,247
531,507,511,246
527,504,508,244
524,501,504,344
519,497,501,396
515,494,497,547
511,489,494,675
507,487,490,728
504,483,487,721
499,480,483,711
496,476,480,705
493,474,477,697
489,471,473,692
486,467,470,685
483,463,467,678
479,461,464,671
639,459,461,667
665,455,458,660
659,452,455,654
653,449,452,647
647,447,449,643
639,444,446,637
635,441,444,632
630,438,441,626
624,435,438,621
619,432,435,615
613,430,433,611
608,427,430,605
603,423,427,601
599,422,423,595
593,419,422,591
588,415,419,586
583,414,417,581
579,412,414,578
575,409,412,573
571,406,409,568
566,404,407,563
561,402,404,560
558,399,402,556
553,396,399,551
549,394,397,547
545,391,395,543
541,390,391,539
537,387,391,536
533,385,388,531
529,383,385,527
525,380,384,524
521,378,382,519
518,376,379,516
514,374,377,513
510,371,375,509
507,369,373,505
504,367,371,502
499,365,368,499
496,364,366,495
492,361,364,492
489,359,362,487
486,357,359,484
483,355,358,482
480,353,356,479
476,351,354,475
473,349,352,472
470,347,350,470
467,345,348,467
463,344,347,463
461,342,345,460
457,339,343,457
455,337,341,454
452,335,339,451
449,334,337,448
446,332,335,446
443,330,333,443
440,327,332,440
438,327,330,437
435,325,327,435
432,323,326,432
430,321,325,429
427,319,323,427
423,318,321,423
422,316,319,422
419,314,318,419
417,313,316,415
414,312,315,414
412,310,313,412
409,307,311,409
407,306,310,406
403,305,307,403
402,303,306,401
399,301,304,399
397,300,303,397
395,298,301,394
391,295,300,391
390,295,298,390
387,294,297,387
385,292,295,385
383,291,294,384
381,289,292,381
379,287,291,379
376,286,289,377
374,284,287,375
372,283,286,372
370,281,285,370
368,280,284,368
366,279,282,367
364,277,280,364
361,275,280,361
359,274,278,359
358,273,276,359
355,271,275,356
353,270,273,354
352,269,271,352
350,267,271,350
348,266,270,348
345,265,268,346
344,263,267,344
342,262,265,342
340,261,263,341
338,259,263,339
335,258,262,337
334,257,260,335
332,255,259,334
331,254,257,332
329,253,256,330
327,252,255,327
325,251,254,327
323,249,252,325
322,248,251,323
319,246,250,321
318,246,249,319
317,244,248,318
315,243,246,316
313,242,245,315
473,241,243,313
637,240,243,312
697,238,241,310
865,237,240,308
905,236,239,307
912,235,238,305
915,233,237,304
919,231,236,302
920,231,235,301
921,230,233,299
923,229,231,297
924,228,231,295
925,227,230,294
926,226,229,293
926,225,227,291
927,224,227,290
927,223,226,287
929,222,225,287
929,220,224,285
930,220,223,284
931,219,222,283
931,217,220,281
931,216,219,280
930,216,219,278
921,214,217,277
890,214,216,275
880,212,216,274
870,211,214,273
861,210,213,271
851,209,212,270
841,207,211,269
832,207,211,268
824,206,209,266
816,206,208,265
807,205,207,263
799,203,206,262
791,203,205,261
783,202,204,259
775,201,204,258
768,199,203,257
760,199,201,255
753,198,201,254
746,197,199,254
739,196,199,252
732,195,198,251
726,194,197,249
719,193,195,249
712,192,195,248
706,192,195,246
700,191,193,245
694,189,193,243
688,189,192,243
682,188,191,242
675,187,190,240
670,186,189,239
665,185,188,238
659,185,187,237
654,184,186,236
649,183,185,235
643,182,184,234
638,181,184,231
633,180,183,231
627,179,182,231
623,178,181,230
617,177,180,228
613,177,179,227
608,176,179,227
604,176,178,225
600,174,177,224
594,174,176,223
590,173,176,222
585,172,175,222
581,171,174,220
577,171,173,219
572,170,172,218
568,169,172,217
564,167,171,216
560,167,170,215
556,167,169,214
551,166,167,213
548,165,167,212
544,164,167,211
540,163,166,210
536,163,165,210
533,162,165,208
529,161,163,207
526,160,163,207
521,159,162,206
518,159,161,204
515,159,161,204
511,158,160,203
508,157,159,202
504,157,158,201
501,156,158,199
497,155,157,199
494,155,157,199
491,153,156,198
487,153,155,196
484,152,155,195
481,152,154,195
478,152,153,194
476,150,152,193
472,149,152,192
469,149,151,192
466,148,150,191
463,147,150,190
461,146,149,189
457,146,148,188
455,145,147,187
452,145,147,186
449,143,146,185
446,143,146,185
444,143,145,184
441,142,144,183
438,142,143,182
435,141,143,182
433,140,142,181
430,140,142,179
428,139,141,179
425,139,140,179
423,138,140,177
419,137,139,177
417,137,139,176
415,135,138,175
413,135,137,175
411,135,137,174
408,134,135,172
406,133,135,172
403,133,135,172
401,132,134,171
399,131,134,170
396,131,133,169
394,131,132,167
391,130,131,167
390,129,131,167
387,129,131,166
385,128,130,166
383,127,129,165
381,127,129,164
378,126,128,163
376,126,127,162
374,125,127,162
371,125,126,161
370,124,126,160
368,124,125,159
366,123,125,159
364,139,124,159
362,204,124,158
359,202,123,157
358,201,123,157
355,199,122,156
354,198,121,155
352,196,121,154
350,195,120,153
348,195,120,153
347,193,119,152
345,192,119,152
343,191,118,151
341,190,118,151
339,189,117,150
337,188,117,149
335,187,116,148
334,185,115,147
332,184,123,147
331,183,121,146
327,182,121,146
327,181,120,145
325,179,120,145
323,179,119,143
321,178,118,143
319,177,118,143
318,176,117,142
317,175,116,142
315,174,115,141
313,173,115,140
312,172,115,140
310,171,114,139
308,170,113,139
307,169,113,138
305,167,112,137
304,167,112,137
302,166,112,135
301,166,111,135
299,164,111,135
297,163,110,134
295,163,109,134
294,162,109,133
293,161,108,133
291,159,108,132
290,159,108,131
288,159,107,131
287,158,106,130
286,157,105,130
284,156,105,129
283,155,105,128
281,154,103,128
280,153,103,127
279,152,103,127
277,152,103,126
275,151,103,126
274,163,102,125
273,293,102,125
271,334,101,124
270,332,101,124
269,329,100,124
268,326,99,123
267,324,99,123
265,322,99,122
263,319,99,121
263,318,98,121
261,316,98,120
260,314,97,120
259,312,97,137
258,310,96,137
255,308,96,135
255,306,96,135
254,305,95,134
253,303,95,133
252,301,94,133
250,299,94,132
249,297,93,131
248,295,93,131
247,294,93,130
246,292,92,129
245,290,92,129
243,288,92,127
242,287,91,127
241,285,91,126
240,284,91,126
239,282,90,125
238,280,89,125
237,280,89,124
236,277,89,123
235,275,89,123
233,274,88,122
231,273,88,121
231,271,88,121
231,270,87,120
229,268,87,120
228,267,86,120
227,265,86,119
226,263,85,118
225,262,85,118
224,261,84,118
224,259,84,117
222,258,84,116
221,257,83,115
220,255,83,115
219,254,83,158
218,252,82,173
217,251,82,172
216,249,82,171
216,248,81,170
214,248,81,169
213,246,81,167
211,244,80,167
211,243,79,166
210,242,79,165
209,240,79,164
208,239,79,163
207,238,79,163
207,237,78,162
206,236,78,161
205,234,78,159
204,233,77,159
203,231,82,158
202,231,133,158
201,230,184,156
199,228,181,156
199,227,180,155
198,226,179,154
198,224,178,153
196,224,177,152
195,222,179,152
195,221,179,151
194,220,178,150
193,219,177,149
192,217,176,148
191,216,175,147
191,215,174,147
189,214,173,146
188,213,172,145
188,211,171,144
187,211,169,143
186,210,169,143
185,209,167,142
184,207,167,141
184,206,166,140
183,205,165,140
182,204,164,140
181,203,163,139
180,202,163,137
179,201,161,137
178,199,160,135
178,199,159,135
177,198,159,135
176,197,158,134
175,195,157,133
174,195,156,133
174,194,156,217
173,193,155,276
172,192,153,274
172,191,152,271
171,190,152,270
169,189,152,268
169,188,151,266
167,187,150,265
167,186,149,263
167,185,148,261
166,184,147,260
165,184,146,258
164,183,146,257
163,181,145,255
163,181,143,254
162,179,143,252
161,178,142,251
161,177,142,249
159,177,141,248
159,176,140,246
159,175,140,245
158,174,139,243
157,173,138,242
156,173,137,241
156,172,136,240
155,171,135,238
154,170,135,237
153,169,135,235
