179,103,3,11
195,103,3,11
194,103,3,11
193,103,3,11
192,103,3,11
191,102,3,10
190,101,3,11
189,100,3,10
188,100,3,10
187,99,3,10
186,99,3,10
185,99,3,10
184,98,3,9
184,98,3,10
198,97,3,10
197,97,3,9
196,96,3,10
195,96,3,9
194,96,3,9
193,95,3,10
192,95,3,9
191,94,3,9
191,94,3,9
190,93,3,9
188,93,3,9
188,93,3,9
187,92,3,9
195,92,3,9
197,91,3,9
196,90,3,9
195,90,3,9
194,90,3,9
193,90,3,9
192,89,3,9
192,89,3,8
190,89,3,8
190,88,3,7
189,88,3,7
188,87,3,7
187,87,3,7
187,87,3,8
199,86,3,7
199,86,3,8
198,85,3,8
197,85,3,8
196,85,3,7
195,84,3,7
195,84,3,8
194,83,3,9
192,83,3,7
192,82,3,7
191,82,3,7
190,82,3,7
189,82,3,7
188,81,3,7
194,81,3,7
193,80,3,7
192,79,3,7
191,79,3,7
190,79,3,7
189,79,3,9
188,79,4,7
188,79,3,7
187,78,3,7
185,78,3,7
185,78,3,7
184,77,3,7
183,77,3,7
182,76,5,7
189,76,5,7
188,76,4,7
187,76,4,14
186,75,4,14
185,75,4,14
184,103,4,14
184,103,4,14
182,103,4,14
182,102,4,13
180,102,4,13
179,101,4,13
179,101,4,13
178,100,5,13
197,99,4,14
195,99,5,14
195,99,5,15
194,98,4,15
192,98,4,15
192,97,5,15
191,97,4,15
190,96,4,15
189,96,4,15
188,95,4,14
187,95,4,14
186,94,4,14
185,94,4,14
202,93,4,14
201,93,4,14
199,93,4,14
199,92,4,14
198,92,4,14
197,91,4,14
196,91,4,14
195,91,4,13
194,89,4,14
193,89,4,14
192,89,3,13
192,89,3,13
190,88,5,13
197,88,5,13
196,88,5,13
195,87,5,13
194,87,5,14
193,86,5,13
192,86,5,13
192,85,5,13
191,85,5,13
190,85,4,13
189,84,4,13
188,83,4,13
187,83,4,13
186,83,4,13
194,83,5,12
193,82,4,12
192,82,4,13
191,82,4,13
190,81,4,14
189,81,4,16
188,81,4,16
187,80,4,15
186,79,4,15
185,79,4,15
185,79,3,15
184,78,3,15
183,78,4,15
194,78,4,15
193,77,4,15
192,77,4,15
191,77,4,14
190,76,4,14
189,78,4,15
188,78,4,14
187,77,3,14
186,77,4,15
185,76,4,14
184,76,3,14
184,76,3,14
183,76,4,14
201,75,4,13
199,75,4,14
199,74,4,14
198,74,4,14
196,74,4,13
195,75,4,13
195,74,4,13
194,74,4,13
193,73,3,13
192,73,3,13
191,73,3,13
190,71,3,13
189,71,3,13
205,71,4,13
204,71,3,12
203,71,3,13
202,71,4,13
201,71,3,13
199,77,3,13
199,78,3,13
198,78,3,13
197,77,3,13
196,77,3,13
195,76,3,13
194,76,3,12
193,76,3,13
199,75,4,13
199,75,4,13
199,74,4,14
198,74,4,14
197,73,4,13
196,73,4,30
195,73,4,30
194,73,4,29
193,71,3,29
192,71,4,29
192,71,3,29
191,71,3,29
190,71,4,28
211,71,4,28
210,71,3,28
209,70,4,28
207,70,3,28
207,69,4,28
206,69,3,28
204,69,3,28
204,69,3,27
203,68,3,27
201,68,3,27
199,67,3,27
199,67,3,27
199,67,3,27
199,67,3,26
203,67,4,26
202,66,3,26
201,66,4,27
199,65,3,27
199,65,3,27
198,65,3,27
197,65,3,27
195,65,3,27
195,64,3,26
194,63,3,76
193,63,3,86
192,63,5,85
191,63,6,84
190,63,5,83
189,63,5,83
188,62,5,82
187,62,5,82
187,62,5,82
185,61,5,81
185,61,5,81
184,61,5,80
183,61,5,79
183,60,4,79
181,60,4,79
181,60,4,79
180,60,4,78
181,59,4,78
180,59,4,78
179,59,4,93
178,59,4,92
178,62,4,91
177,79,4,91
176,79,4,90
175,79,4,89
174,78,4,89
174,78,4,89
173,77,4,88
172,77,4,88
175,76,3,88
177,76,3,99
176,76,4,105
176,76,3,103
174,75,3,106
174,89,3,199
173,89,3,274
172,88,3,271
171,88,3,268
171,88,3,267
169,87,3,265
169,86,3,263
167,86,3,262
196,85,3,260
195,85,3,259
193,85,3,257
192,84,3,255
192,83,3,255
190,83,3,254
189,83,3,252
188,82,3,251
187,82,3,249
187,82,3,248
185,81,3,247
184,81,3,246
184,79,3,244
184,79,3,243
183,79,3,242
182,79,3,241
181,79,3,240
180,78,2,315
179,78,3,432
179,77,2,428
177,77,3,423
177,76,2,422
175,76,2,418
175,76,2,415
174,76,3,414
173,75,25,411
172,75,31,408
172,74,31,406
171,73,31,403
169,73,31,399
169,73,30,397
167,73,30,395
167,71,29,393
166,71,30,390
165,71,29,388
164,71,29,446
163,71,29,561
163,71,29,556
162,75,29,550
161,105,28,545
161,110,28,540
159,163,28,536
159,161,28,532
159,159,27,527
157,159,27,524
157,158,27,519
156,156,27,515
155,156,27,512
155,155,27,508
153,154,27,505
152,153,27,501
152,152,27,497
152,173,27,494
151,175,26,491
150,174,25,487
149,173,26,484
148,172,25,481
147,171,25,478
147,169,25,527
146,169,25,664
145,227,25,760
145,326,25,752
143,388,24,743
143,384,24,734
142,381,24,729
142,378,24,720
141,376,24,715
140,373,24,707
140,370,24,700
139,368,57,695
139,366,71,688
201,370,76,683
199,399,76,851
197,395,76,901
197,391,75,910
195,390,75,914
194,387,75,917
193,384,74,919
192,382,79,920
191,380,97,920
190,376,121,910
204,375,124,887
214,371,124,878
213,369,123,867
211,366,122,857
210,364,121,847
209,362,120,839
207,359,120,829
207,357,119,820
205,355,119,811
204,353,118,803
203,350,118,795
203,348,117,787
201,345,117,779
199,344,115,773
199,342,115,764
199,339,115,755
197,337,114,748
195,335,113,743
195,333,112,735
193,331,112,728
193,329,111,719
192,327,111,715
254,325,110,709
252,323,109,702
250,321,109,695
248,319,108,690
247,318,107,684
246,315,107,677
244,313,106,671
242,312,106,665
241,310,105,660
240,308,103,654
238,306,103,649
237,305,103,643
235,303,103,638
233,301,102,633
231,299,102,627
231,297,101,622
230,295,100,618
228,294,100,613
227,292,99,780
226,291,99,893
225,289,98,907
224,287,98,903
222,286,97,888
221,284,97,876
220,283,96,867
219,281,96,856
217,280,95,849
216,279,95,839
216,277,94,829
214,275,94,822
213,274,94,812
211,273,93,805
211,271,92,796
209,270,92,787
208,268,91,781
207,267,91,772
206,265,90,766
205,263,90,758
204,263,89,752
203,261,89,744
203,260,101,737
201,259,115,729
199,257,115,724
199,255,201,717
247,254,261,710
245,253,259,703
243,252,255,697
242,250,254,691
240,249,253,684
239,248,251,678
237,247,249,673
236,245,248,667
235,243,246,661
233,242,245,655
235,241,243,650
265,240,242,644
263,254,240,639
262,253,239,668
260,251,237,663
258,249,236,655
257,248,235,649
255,246,233,643
254,245,231,638
252,243,231,632
251,242,229,627
316,240,228,621
313,239,227,615
311,238,225,612
309,236,224,607
306,235,223,602
304,234,222,710
302,233,220,704
300,231,220,696
299,230,218,689
295,229,217,681
294,228,216,677
294,227,215,670
291,225,214,664
290,224,212,657
287,223,211,653
287,331,210,646
285,359,209,639
283,355,207,634
281,354,207,630
280,351,206,624
278,349,205,618
276,346,204,613
275,344,202,608
273,411,201,604
271,571,199,598
270,760,199,593
268,759,198,588
267,749,197,584
265,740,196,579
263,732,195,575
262,726,194,571
261,718,193,568
259,710,192,563
258,703,191,559
256,697,190,554
255,690,189,551
253,683,188,547
252,675,187,543
251,671,186,539
249,664,185,536
248,658,184,531
247,652,183,527
245,646,182,524
243,639,181,521
243,635,180,517
241,629,179,513
240,623,178,509
238,619,178,507
237,614,176,503
236,608,176,499
235,603,175,496
233,599,174,493
231,593,173,489
231,588,172,486
235,583,171,483
233,579,170,480
231,575,169,477
230,603,169,474
229,818,167,471
227,824,167,467
227,812,166,465
225,802,165,462
224,793,165,459
223,786,163,455
222,777,163,454
221,768,162,451
220,760,161,448
219,751,160,445
217,743,159,443
217,736,158,440
216,729,158,437
215,721,157,434
213,716,156,432
212,708,156,429
211,701,155,427
210,694,154,423
209,689,153,422
207,683,152,419
207,675,152,415
206,669,151,414
204,664,150,412
204,658,150,409
202,652,148,407
201,646,148,404
199,641,147,401
199,636,147,399
201,630,146,397
199,624,145,395
199,620,145,391
199,614,143,391
197,608,143,388
196,603,142,386
195,600,142,384
194,594,141,382
193,589,140,380
192,583,140,377
191,579,139,376
190,575,138,374
189,571,137,371
188,566,137,369
188,561,135,367
186,558,135,365
185,553,135,363
184,549,134,361
184,544,134,359
183,541,133,358
182,537,132,355
180,533,131,353
179,528,131,352
179,526,130,350
178,521,130,348
177,518,129,346
176,513,127,344
175,510,127,342
174,507,127,341
173,503,126,339
173,499,126,337
172,496,125,335
171,492,124,334
170,489,124,332
169,485,123,330
167,483,123,327
167,579,122,327
167,735,121,325
166,726,121,323
165,718,120,321
163,711,120,319
163,704,119,318
162,697,118,316
162,689,118,315
161,684,118,313
160,677,117,312
159,671,117,310
158,664,115,308
158,659,115,307
157,653,114,306
156,646,114,304
155,639,113,302
155,635,113,301
153,630,112,299
153,624,112,298
152,617,112,295
152,614,111,295
151,608,110,294
150,603,109,292
149,597,109,291
148,593,108,289
147,588,108,287
147,583,108,286
146,578,107,285
145,574,106,283
145,569,106,282
144,565,105,354
143,560,105,370
143,555,103,366
142,551,103,364
142,547,103,361
141,543,103,359
140,538,102,357
139,536,102,355
139,531,101,352
138,527,101,350
137,523,100,348
137,519,99,345
135,515,99,344
135,511,99,342
135,508,98,339
134,504,98,337
133,501,97,335
133,497,97,333
132,495,97,331
131,491,96,329
131,487,96,327
130,484,95,326
130,481,99,323
129,479,147,321
129,475,217,319
127,472,303,318
127,468,300,316
126,465,297,314
126,463,295,312
126,459,293,310
125,455,291,308
124,454,289,307
124,451,287,305
123,448,286,304
122,444,284,301
121,441,282,300
121,439,280,299
121,435,279,295
120,433,277,295
120,430,275,293
164,428,274,291
302,425,272,290
339,422,271,287
336,419,269,287
334,417,268,285
332,415,265,284
329,412,263,282
327,409,263,280
325,408,261,280
323,404,259,278
321,402,258,276
319,399,257,275
426,398,255,273
575,395,254,272
607,391,252,271
601,390,251,269
595,388,249,268
590,385,248,267
585,384,247,265
579,381,246,263
575,379,244,263
569,376,243,262
565,374,241,260
561,371,240,259
556,369,239,258
551,368,238,257
547,490,236,255
543,536,235,254
540,531,233,253
536,527,233,252
531,522,231,251
527,518,231,249
524,513,229,248
519,510,227,248
516,505,226,246
512,501,225,245
686,497,224,243
834,494,223,243
824,489,222,241
813,486,221,240
803,482,220,239
795,479,219,238
787,476,217,237
779,472,216,236
770,468,216,235
762,465,214,233
755,462,213,231
747,459,211,231
740,455,211,230
733,452,236,229
726,449,234,228
719,446,235,227
713,443,233,226
706,440,231,225
700,437,231,224
693,433,229,223
687,431,228,222
681,427,227,221
675,425,226,220
669,504,224,219
664,499,223,218
657,494,222,217
652,491,220,216
647,487,219,216
641,483,218,214
636,479,216,213
631,476,216,212
626,472,214,211
620,468,213,210
615,464,211,209
611,462,211,207
606,459,210,207
601,455,207,206
596,451,207,205
591,449,206,204
588,445,205,204
583,441,204,203
578,438,203,201
574,435,202,199
569,433,201,199
566,556,199,199
561,557,199,198
557,551,198,197
553,547,197,196
549,543,195,195
545,537,195,194
542,533,194,193
537,529,193,193
534,525,192,192
530,521,191,191
526,516,190,190
523,513,189,189
519,508,188,189
515,504,187,188
511,499,186,187
508,497,185,187
504,493,184,185
501,489,184,184
498,485,183,184
495,483,182,183
491,479,181,182
487,475,179,181
485,472,179,180
481,469,178,179
478,465,177,179
476,462,176,178
472,458,175,177
469,455,174,176
466,451,174,176
463,449,173,175
460,445,172,174
457,442,171,173
455,440,170,172
451,437,169,172
449,433,167,171
446,430,167,170
443,428,167,170
441,425,166,169
438,422,166,167
435,419,164,167
432,417,163,166
430,414,163,166
427,411,162,165
423,408,161,164
422,406,160,163
419,403,159,163
417,400,159,162
415,398,158,161
412,396,157,161
409,393,157,159
408,391,156,159
405,387,155,159
402,386,154,158
399,384,153,157
398,381,153,156
396,378,152,156
393,376,152,155
391,374,151,155
388,371,150,154
386,369,149,153
384,367,148,152
382,365,147,152
380,363,147,152
377,359,146,151
376,358,145,150
373,357,145,149
371,355,144,148
369,352,143,147
367,350,143,147
364,348,142,147
363,347,141,146
361,344,140,145
359,342,140,145
357,341,139,143
355,339,138,143
352,337,138,143
351,335,137,142
349,333,135,142
347,331,135,141
345,329,135,140
344,327,135,140
341,326,134,139
339,324,133,139
338,322,133,137
335,319,132,137
334,318,131,137
332,317,131,135
331,315,130,135
327,313,129,135
327,312,129,134
325,311,128,134
323,308,127,133
322,307,127,133
319,305,126,131
318,304,126,131
317,302,125,131
315,300,125,130
313,299,124,130
312,297,123,129
310,295,123,129
308,294,121,127
307,292,121,127
305,291,121,126
304,289,120,126
302,287,120,126
300,286,120,125
299,285,119,125
297,284,118,124
295,282,118,123
294,280,117,123
293,280,116,123
291,278,115,122
289,276,115,121
288,275,115,121
287,273,115,120
285,271,114,120
284,270,113,120
283,269,112,119
281,268,112,119
280,267,112,118
278,265,111,117
277,263,111,117
275,262,110,116
274,261,109,115
273,259,109,115
271,258,108,115
270,257,108,114
268,255,108,114
267,255,107,113
266,253,106,113
264,252,106,112
263,251,105,112
262,249,105,112
260,248,103,111
259,247,103,110
258,246,103,110
257,245,103,110
255,243,103,109
254,242,102,108
253,241,101,108
252,240,101,108
251,238,100,107
249,237,99,107
248,236,99,107
247,235,99,106
246,233,98,105
245,233,98,105
243,231,98,105
242,231,97,103
241,230,97,103
240,229,96,103
239,227,96,103
238,226,96,102
237,225,95,102
236,224,95,102
235,224,94,101
233,222,94,101
231,221,93,100
231,220,93,100
230,219,92,99
229,219,92,99
228,217,92,99
227,216,91,98
226,216,91,98
225,214,91,97
224,213,90,97
223,212,89,97
222,211,89,96
222,211,89,96
220,209,88,96
220,209,88,95
219,207,88,95
217,207,88,95
217,206,88,94
216,205,87,94
215,205,86,93
214,204,86,93
213,203,86,93
212,201,85,92
211,201,85,92
210,199,85,92
209,199,84,91
209,198,83,91
207,197,83,91
207,197,83,90
206,195,83,89
205,195,82,89
204,194,82,89
203,193,81,89
202,192,81,89
201,192,81,88
199,191,80,88
199,190,80,88
199,189,79,87
198,188,79,87
197,187,79,86
196,187,79,86
195,185,78,86
195,185,78,85
193,184,78,85
193,184,77,84
192,183,77,84
192,182,77,84
191,181,76,83
190,180,76,83
189,179,76,83
188,179,75,82
187,178,75,82
187,177,75,82
185,176,74,82
185,176,74,81
184,175,73,81
184,174,73,80
182,174,73,80
182,173,73,79
181,172,71,79
180,171,71,79
179,171,71,79
179,170,71,79
178,169,71,79
177,167,71,78
177,167,71,78
176,167,70,78
175,167,70,78
174,166,69,77
174,165,69,77
173,164,69,76
172,163,68,76
172,163,68,76
171,162,67,76
170,161,68,75
169,161,67,75
167,159,67,75
167,182,67,74
167,181,67,74
167,180,66,73
166,179,66,73
165,177,65,73
164,176,65,73
163,176,65,71
163,175,65,71
162,174,64,71
161,173,64,71
161,172,64,71
160,171,63,71
159,170,63,71
159,169,63,71
158,167,63,70
158,167,62,70
157,167,62,70
156,166,62,69
156,165,62,69
155,164,61,69
155,163,61,69
154,162,61,68
153,161,61,68
153,161,60,67
152,159,60,67
152,159,60,67
151,159,60,67
150,158,59,67
149,157,59,66
149,156,59,66
195,156,59,66
193,155,58,66
192,155,58,65
190,154,58,65
189,153,57,65
189,153,57,64
187,152,57,64
186,152,56,63
185,151,56,63
184,150,56,63
184,149,56,63
182,149,56,63
182,148,56,63
180,147,55,63
179,147,55,62
179,147,55,62
178,146,54,62
176,145,54,61
176,145,54,61
175,143,54,61
174,143,53,60
173,143,53,60
172,142,53,60
171,141,53,60
170,141,52,60
169,140,52,60
167,140,51,59
167,140,51,59
167,139,51,59
166,138,51,59
165,137,51,58
164,137,51,58
163,135,51,57
163,135,50,57
162,135,50,57
161,135,50,57
159,134,50,57
159,134,49,57
159,133,49,56
158,133,49,56
157,132,49,56
156,131,48,56
156,131,48,56
155,130,48,56
154,130,48,55
153,129,48,55
152,128,48,55
152,127,47,54
152,127,47,54
151,127,47,54
150,126,47,54
149,126,46,53
149,125,46,53
147,125,46,53
147,124,46,53
147,124,45,53
146,123,45,52
145,123,45,52
144,122,45,52
144,121,45,51
143,121,44,51
143,121,44,51
142,120,44,51
142,120,44,51
141,119,44,51
140,119,44,50
140,120,44,50
139,119,43,50
139,119,43,50
138,118,43,50
138,117,43,50
137,116,42,70
135,117,42,88
135,115,42,87
135,115,41,87
135,115,41,86
134,114,41,86
134,114,41,85
133,113,41,84
133,113,41,84
132,112,41,83
131,112,39,83
131,112,39,83
130,111,39,82
130,111,39,82
129,110,39,81
129,110,39,81
127,109,39,81
127,110,39,80
127,109,39,79
126,109,39,79
126,108,38,79
125,108,38,78
125,108,38,78
125,107,38,78
124,107,38,77
123,106,38,77
123,105,37,76
123,105,37,76
121,105,37,76
121,104,37,76
121,103,37,75
120,103,36,74
120,103,36,74
120,103,36,74
119,103,35,73
119,102,35,73
118,101,35,73
118,101,35,71
117,101,35,71
116,100,35,71
115,131,35,71
115,267,35,71
115,299,35,70
114,295,35,70
114,294,34,70
113,291,34,70
116,290,34,69
225,287,34,69
227,286,33,68
226,284,33,68
224,283,33,68
223,281,33,67
221,280,33,67
220,278,33,67
219,276,33,66
217,274,32,66
216,273,32,65
216,271,32,65
258,270,37,65
332,269,53,64
327,267,52,64
326,265,52,64
324,263,51,63
322,263,57,63
319,261,57,63
318,259,57,62
316,258,57,63
314,257,56,62
313,255,56,62
311,254,69,62
383,253,155,61
451,251,207,61
447,250,205,60
444,249,204,60
440,247,202,60
437,246,201,60
434,244,199,59
431,243,199,59
428,241,198,59
425,241,196,59
422,239,195,58
425,238,194,57
496,237,193,57
492,235,192,57
487,234,191,57
484,233,190,57
481,231,188,56
477,230,188,56
474,229,187,56
471,227,185,56
467,226,185,55
463,225,184,55
461,224,183,55
526,223,182,54
521,222,181,54
516,221,179,54
512,220,179,54
508,219,178,53
504,217,177,53
502,216,176,53
497,216,175,52
494,214,174,52
491,213,173,51
487,211,172,51
483,211,171,51
480,209,171,51
477,207,169,51
473,207,169,51
470,206,167,50
467,205,167,50
463,205,166,50
461,203,165,49
458,202,165,49
455,201,163,49
452,199,163,49
449,199,162,48
446,198,220,48
444,197,315,48
441,196,398,48
438,195,395,48
435,194,399,48
432,193,398,47
430,192,396,47
428,192,391,47
425,190,391,47
422,189,387,47
419,188,385,46
419,188,383,46
416,187,380,46
414,185,377,46
412,185,376,46
409,184,373,45
407,183,371,45
404,182,368,45
402,181,366,44
399,180,364,45
397,179,362,44
395,178,359,44
391,177,358,44
390,176,355,43
387,176,353,43
385,175,352,43
383,174,350,43
381,173,348,43
379,172,345,43
376,172,344,42
375,171,342,42
372,169,339,42
370,169,338,41
368,167,335,41
366,167,334,41
364,166,332,41
362,166,330,41
359,165,327,41
358,164,327,41
356,163,325,39
354,163,323,39
352,162,321,39
350,161,319,39
348,159,318,39
346,159,316,39
345,159,315,39
343,158,312,39
341,157,312,39
339,156,309,39
337,155,307,38
335,155,306,39
333,154,304,38
332,153,303,38
330,153,301,38
327,152,300,38
326,152,298,38
324,150,295,37
323,150,295,37
321,149,293,37
319,148,292,37
318,147,290,36
316,147,289,37
314,146,287,36
313,145,286,36
311,145,284,36
309,143,283,35
307,143,281,35
306,143,280,35
305,142,279,35
303,141,277,35
302,141,275,35
300,140,275,35
298,140,273,35
297,139,271,35
295,138,270,34
294,137,269,34
292,135,268,34
291,135,266,34
289,135,265,33
287,135,263,34
286,134,262,33
285,134,261,33
284,133,259,33
282,132,259,33
280,131,257,33
280,131,255,32
278,130,254,32
276,130,253,32
275,129,252,32
291,129,251,31
290,127,249,31
287,127,248,31
286,126,247,31
284,126,246,31
283,125,245,31
281,125,243,31
280,124,242,31
278,124,241,31
277,123,240,31
275,123,239,30
274,122,238,30
273,121,236,30
271,121,235,30
270,120,234,30
269,120,231,30
268,119,231,30
266,119,231,29
265,118,230,29
263,117,229,29
262,117,227,29
261,116,226,29
265,115,225,29
275,115,224,28
274,115,224,29
272,114,222,28
271,114,221,28
269,113,220,28
268,113,219,28
265,112,217,28
263,112,217,28
263,111,216,27
261,110,215,27
260,110,214,28
267,109,213,27
265,109,211,27
263,108,211,27
262,108,210,26
260,108,209,27
259,107,207,27
257,107,207,26
255,106,206,26
255,105,205,26
254,105,204,26
252,105,203,25
263,103,202,25
263,103,201,25
261,103,199,25
259,103,199,25
257,102,198,25
255,102,198,25
254,101,196,25
253,101,195,25
252,100,195,25
250,100,194,24
249,99,193,24
271,99,192,24
270,99,192,24
268,98,191,24
267,98,190,24
265,97,189,24
263,97,188,24
262,97,187,24
261,96,186,24
259,96,185,24
258,96,185,24
256,95,184,23
255,94,184,23
322,94,182,23
319,94,182,23
318,93,181,22
316,93,179,22
314,92,179,22
312,92,178,22
310,92,177,22
308,91,177,22
307,91,176,22
304,91,175,22
303,90,174,22
305,90,174,22
327,89,173,21
325,89,172,21
323,89,172,21
321,88,171,21
319,88,170,21
318,88,169,21
316,88,169,21
314,87,167,21
312,87,167,21
310,86,167,20
308,86,166,20
322,86,165,21
335,85,164,20
333,85,163,20
331,84,163,19
329,84,162,20
327,83,161,19
325,83,161,20
323,83,159,19
321,83,159,19
319,83,159,19
317,82,158,19
316,82,157,19
332,81,157,19
332,81,156,19
331,80,155,19
327,80,155,19
327,79,154,19
324,79,153,18
323,79,153,18
321,79,152,19
319,78,152,18
317,78,152,18
315,78,150,18
313,78,150,18
314,77,149,18
313,77,148,18
311,77,147,18
309,76,147,17
307,76,146,17
305,76,146,17
304,76,145,17
302,75,145,18
300,75,143,17
299,75,143,17
297,74,143,17
295,74,142,17
295,73,142,17
293,73,141,16
291,73,140,16
290,73,140,16
288,72,139,16
287,71,139,17
286,71,138,16
284,71,137,16
282,71,137,16
281,71,135,15
280,71,135,16
278,70,135,15
277,70,135,16
275,70,134,15
274,69,133,15
273,69,133,16
271,69,132,15
270,68,131,15
269,68,131,15
268,67,131,15
266,67,130,15
263,67,129,15
263,67,129,15
271,67,128,15
271,66,127,14
269,66,127,15
268,66,127,15
266,66,126,14
263,65,125,14
263,65,125,15
262,65,125,14
260,64,124,14
259,64,124,14
257,63,123,14
255,63,123,14
298,63,122,14
295,63,121,14
295,63,121,14
293,62,120,14
291,62,120,13
289,62,120,13
287,62,119,14
286,61,118,13
284,61,118,13
283,61,117,13
281,61,117,14
280,60,116,13
281,60,115,13
280,60,115,13
278,60,115,13
276,60,115,12
274,59,114,13
273,59,113,13
271,59,113,12
270,58,112,12
268,58,112,12
267,58,112,12
265,57,111,12
263,57,111,12
263,57,110,12
262,57,110,12
259,57,109,12
259,56,109,12
257,56,108,12
255,56,108,12
254,56,108,12
253,56,107,12
252,56,106,11
251,55,106,12
249,55,105,12
248,54,105,12
248,54,103,11
246,54,103,11
245,54,103,11
243,54,103,11
242,54,103,11
241,53,103,11
240,53,102,11
239,52,102,11
238,52,101,11
237,52,101,11
236,51,100,11
239,52,100,11
238,51,99,10
237,51,99,10
236,51,99,10
235,51,99,10
233,51,98,10
231,50,97,10
231,50,97,10
231,50,97,10
229,50,96,10
228,49,96,9
227,49,96,9
227,49,95,10
239,49,95,10
238,49,94,9
237,49,94,9
236,48,94,9
234,48,93,9
233,48,93,9
231,48,93,9
231,48,92,9
230,48,92,9
229,48,92,9
227,47,91,9
226,47,91,9
234,47,91,9
284,47,90,9
283,46,90,9
281,46,89,9
280,46,89,9
278,46,89,9
276,46,88,9
275,45,88,9
273,45,88,9
271,45,88,7
271,45,88,7
269,45,87,8
268,45,87,7
267,44,86,8
287,44,86,7
286,44,86,8
285,44,85,7
283,44,85,7
282,44,85,7
280,43,84,7
279,43,83,7
278,43,83,7
276,43,83,7
275,43,83,7
273,43,82,7
271,42,82,7
271,42,82,7
270,42,82,7
269,41,81,7
268,42,81,7
266,41,81,7
263,41,80,7
263,41,80,7
262,41,79,7
261,41,79,7
259,41,79,7
258,40,79,7
257,39,78,7
255,39,78,7
254,39,78,7
253,39,78,7
252,39,77,7
251,39,77,7
249,39,77,7
248,39,77,7
248,39,76,7
246,39,76,7
245,39,76,7
244,39,76,7
243,39,75,7
242,38,75,7
240,38,75,7
240,38,74,7
271,38,73,6
271,38,73,7
269,37,73,7
268,37,73,6
266,37,71,7
265,37,71,6
263,37,71,6
262,36,71,6
261,36,71,6
259,36,71,6
258,36,71,6
257,36,71,6
255,36,70,18
265,35,70,59
263,35,70,61
262,35,70,61
260,35,70,60
259,35,69,60
257,35,69,59
255,35,69,59
255,34,68,59
253,35,68,58
252,35,67,58
251,34,67,57
249,34,67,57
271,34,67,57
298,34,66,57
295,33,66,56
295,33,66,56
292,33,66,56
291,33,65,55
289,33,65,56
287,33,65,55
286,33,65,54
285,33,64,54
283,32,64,54
281,32,63,54
280,32,63,53
279,31,63,53
277,31,63,53
275,31,63,52
274,31,62,52
272,31,62,51
271,31,62,51
270,31,62,51
269,31,62,51
267,31,61,51
266,31,61,50
263,30,61,50
263,30,60,50
318,30,60,49
316,30,60,49
313,30,60,49
312,30,60,49
310,30,59,49
308,30,59,48
307,29,59,48
305,29,59,48
303,29,58,48
301,29,58,48
300,29,58,48
298,29,57,47
297,29,57,47
295,28,57,46
295,28,57,46
293,29,57,46
291,28,56,46
290,28,56,46
287,28,56,45
287,28,56,45
285,28,56,45
284,28,55,44
282,27,55,44
281,27,55,44
280,27,55,44
294,27,54,44
292,27,54,44
291,27,54,43
289,27,54,43
287,27,53,43
286,27,53,43
284,26,53,43
283,26,53,42
281,26,52,42
280,26,52,42
278,26,52,41
277,26,51,41
285,25,51,41
291,25,51,41
289,25,51,41
287,25,51,39
286,25,51,39
284,25,50,39
283,25,51,39
281,24,50,39
280,25,50,39
279,24,49,39
277,25,49,39
275,24,49,39
274,24,49,39
280,24,49,38
278,24,48,38
276,24,48,38
275,24,48,38
274,24,48,38
272,24,48,37
271,24,48,37
270,24,48,37
268,23,47,37
267,24,47,36
265,23,47,37
263,23,47,36
263,23,46,36
263,22,46,35
262,22,46,35
260,22,46,35
259,22,46,35
258,22,45,35
256,22,45,35
255,22,45,35
254,22,45,35
252,22,45,34
251,21,44,34
250,22,44,34
255,22,44,34
271,21,44,34
269,21,44,33
268,21,44,33
266,21,43,33
265,21,43,33
263,21,43,33
262,21,43,32
260,20,43,32
259,20,43,32
257,20,42,32
255,20,42,31
255,20,41,31
278,20,41,31
276,19,41,31
275,20,41,31
273,19,41,31
271,19,41,31
270,19,39,31
269,19,40,30
267,19,39,30
265,19,40,31
263,19,39,30
263,19,39,30
262,19,39,30
263,19,39,30
266,19,39,29
265,18,39,30
263,18,39,29
262,18,39,29
260,18,38,29
259,18,38,28
258,18,38,28
255,18,38,28
255,18,38,28
254,18,38,28
252,18,37,28
251,17,38,28
251,18,37,28
249,17,37,28
248,17,37,27
248,17,36,27
246,17,37,27
245,17,37,27
243,17,36,27
243,17,36,27
241,16,35,26
240,16,35,26
239,16,35,26
238,16,35,26
251,16,35,26
249,16,35,26
248,16,35,25
246,16,34,25
245,16,35,25
243,16,34,25
242,16,34,25
241,16,34,25
240,15,34,24
238,16,34,25
237,15,34,24
236,15,33,24
236,15,33,24
243,15,33,24
241,15,33,24
240,15,33,24
239,15,33,24
238,15,32,24
236,15,33,24
236,15,32,24
234,15,32,24
233,15,32,23
231,15,31,23
231,14,31,23
230,14,31,23
229,15,31,22
227,14,31,23
226,14,31,22
225,14,31,22
224,14,31,22
224,14,30,22
222,14,31,22
222,14,30,22
221,13,30,21
220,14,30,21
219,14,30,21
217,13,30,21
233,14,30,21
234,13,29,21
231,13,29,21
231,13,29,20
230,13,29,21
229,13,29,20
227,13,28,20
227,13,29,19
225,13,29,19
224,13,28,19
223,13,29,20
222,13,28,19
220,13,28,19
221,12,28,19
220,12,28,19
219,12,28,19
217,12,27,19
216,12,27,19
216,12,27,18
215,12,27,18
214,12,27,18
213,12,27,18
