141,21,14,90
146,21,18,97
153,21,18,96
152,21,17,96
151,21,17,96
150,20,17,95
150,20,17,94
149,20,17,94
148,20,17,93
147,20,17,93
147,19,17,92
145,19,17,92
145,19,17,92
144,19,24,107
156,19,23,107
155,19,23,105
154,19,22,105
153,19,22,103
152,19,22,103
152,19,22,103
151,19,22,103
150,19,22,103
149,19,21,102
148,18,22,101
147,18,21,101
147,18,22,106
158,18,22,105
157,18,21,104
157,18,21,103
156,18,21,103
155,17,21,103
154,17,21,103
153,17,21,102
152,17,21,101
152,17,20,101
150,17,20,99
150,17,21,99
153,17,21,108
159,16,21,108
158,16,21,107
157,16,21,107
156,16,21,106
156,16,21,105
155,16,20,105
154,15,20,103
153,15,20,103
152,16,19,103
152,15,19,102
151,15,19,102
158,15,20,101
159,15,20,101
158,15,20,100
157,15,19,100
156,15,19,99
155,14,19,99
154,15,19,98
153,14,19,98
153,14,19,97
152,14,19,97
151,14,19,96
151,14,19,98
151,14,19,108
157,14,19,107
156,14,19,107
155,14,19,106
154,14,19,106
153,15,19,105
153,15,19,103
152,15,18,103
152,15,18,103
150,15,18,103
149,15,17,102
148,15,18,106
151,15,18,106
150,14,18,105
149,15,18,103
148,15,18,103
147,15,18,103
147,15,18,103
146,15,17,102
145,15,17,102
144,15,17,102
143,15,17,101
143,15,17,100
142,15,17,108
149,15,17,108
149,15,17,107
147,15,17,106
147,14,17,105
145,14,16,105
145,14,17,103
143,14,16,103
143,14,16,103
143,13,16,103
142,14,16,102
141,14,15,102
142,13,17,102
156,13,17,102
155,14,17,101
154,13,17,100
153,14,17,99
152,13,17,99
152,13,17,99
151,13,17,98
150,13,16,98
149,13,16,97
148,13,16,97
147,13,15,96
147,13,17,103
151,13,17,103
150,12,17,102
149,13,17,101
148,12,16,101
147,12,17,100
146,13,16,99
146,12,16,99
145,12,16,99
144,12,16,98
143,12,16,98
143,12,15,97
142,12,16,114
161,12,16,113
160,12,16,113
159,12,16,112
159,12,15,112
158,12,15,111
157,12,15,110
156,12,15,110
155,12,15,109
154,12,15,108
153,12,15,108
152,12,15,107
152,12,15,113
159,17,15,112
158,50,15,112
157,49,15,111
156,49,15,111
156,48,15,110
155,48,15,109
154,48,15,108
153,48,14,108
152,47,15,107
152,47,14,107
151,46,15,106
150,46,24,108
152,46,24,107
150,46,23,107
150,45,23,106
149,45,22,105
148,45,22,105
147,45,22,103
146,44,22,103
146,44,22,103
145,44,22,103
144,44,21,102
143,43,21,103
159,43,21,103
159,43,21,103
158,42,21,103
157,42,21,102
156,42,21,102
155,42,20,101
154,41,20,101
153,41,20,100
152,41,20,99
152,41,20,99
151,39,19,99
150,39,20,99
153,39,20,101
152,39,20,101
152,39,20,99
151,39,19,99
150,39,19,99
149,39,19,98
148,39,19,98
147,39,19,97
147,38,19,97
146,38,19,96
145,38,19,96
145,38,19,96
146,37,19,112
153,37,19,111
152,43,19,111
152,56,19,110
151,55,19,109
150,55,19,109
149,54,18,108
148,54,18,107
147,53,18,107
147,53,18,106
146,53,18,105
145,52,18,115
149,52,19,114
150,52,19,114
149,51,18,113
148,51,18,112
147,51,18,112
147,51,18,112
146,50,18,111
145,50,18,110
144,50,18,110
143,49,17,109
143,49,18,109
142,49,17,110
159,49,17,110
158,48,17,109
157,48,17,108
156,48,16,108
155,47,16,107
155,47,16,107
153,47,16,105
153,47,16,105
152,46,16,105
151,46,15,103
150,46,16,103
149,46,16,106
159,45,16,105
158,45,16,105
157,45,16,103
156,44,15,103
155,44,15,103
154,44,15,103
153,44,15,102
153,43,15,102
152,43,15,101
152,43,15,100
150,43,15,99
150,43,15,105
153,42,15,105
152,42,15,103
152,42,15,103
151,41,15,103
150,41,15,103
149,41,15,102
148,41,15,102
147,41,14,101
147,39,14,100
146,39,14,99
145,39,14,99
145,39,15,108
148,39,15,107
147,39,15,107
147,39,15,106
145,39,14,105
145,39,15,105
143,38,14,103
143,38,14,103
143,38,14,103
141,38,14,103
141,38,14,102
140,37,14,103
145,37,15,108
150,37,15,107
149,37,15,106
148,36,15,106
147,36,15,105
146,38,15,105
146,37,15,103
145,37,14,103
144,37,14,103
143,37,14,102
142,37,14,102
142,37,14,106
152,36,15,105
150,35,15,105
149,35,15,103
148,35,14,103
147,35,15,103
147,35,14,103
146,34,14,102
145,35,14,102
145,34,14,102
143,34,14,101
143,34,14,100
142,34,19,105
152,34,21,103
151,33,21,103
150,33,21,103
149,33,20,103
148,33,20,103
147,33,20,102
147,32,20,101
146,32,19,101
145,32,19,100
144,31,19,99
143,31,19,99
143,31,19,99
147,31,19,98
146,31,19,98
146,31,19,97
144,31,19,97
143,31,19,96
143,30,18,96
142,30,18,96
142,30,18,95
141,30,18,94
140,30,18,94
140,30,18,94
139,29,18,95
152,29,18,96
152,29,18,95
151,29,18,95
150,29,18,94
149,28,18,93
148,28,18,93
147,28,18,93
147,28,18,92
146,28,17,92
145,28,17,91
145,28,17,91
143,28,17,90
145,27,17,98
157,27,17,98
156,29,17,97
155,30,16,96
154,29,17,96
153,28,16,96
152,29,16,95
152,28,16,95
152,28,16,94
151,28,16,94
150,28,16,93
149,28,15,93
148,28,17,111
157,28,16,110
156,30,16,109
155,31,16,109
154,31,16,108
153,46,16,108
152,46,15,107
152,45,15,107
151,45,15,105
150,44,15,105
149,44,15,103
148,44,15,103
147,43,15,119
159,43,15,118
158,43,15,117
158,43,15,116
157,42,15,116
156,42,15,115
155,42,15,115
154,41,14,114
153,41,14,113
152,41,15,113
152,41,14,112
151,39,15,112
150,39,15,117
152,39,15,116
150,39,15,115
149,39,15,115
148,39,15,114
147,39,15,113
147,39,15,112
146,39,15,112
145,38,14,111
144,38,14,111
143,38,14,110
143,38,15,110
152,37,16,111
152,37,16,110
150,46,16,110
150,45,16,109
149,45,15,109
147,45,15,108
147,44,15,108
147,44,15,107
145,44,15,106
145,43,15,106
143,43,15,105
143,43,17,109
158,42,17,109
158,42,17,108
156,42,16,107
156,41,16,107
155,42,16,106
154,41,16,105
153,41,15,105
152,41,16,104
152,39,15,103
151,39,15,103
150,39,15,103
149,39,17,105
156,39,17,105
155,39,17,103
154,39,16,103
153,39,16,103
152,39,16,103
152,38,16,102
151,38,16,101
150,38,16,101
149,37,16,100
148,38,16,99
147,37,15,99
147,37,19,107
163,37,18,106
161,36,18,105
160,36,18,105
159,36,19,103
159,35,18,103
158,36,18,103
157,35,18,103
156,35,18,102
156,35,18,102
155,35,17,101
153,35,17,101
154,35,18,109
156,34,17,108
156,36,17,108
155,37,17,107
154,36,17,106
153,36,17,106
152,36,17,105
152,35,17,104
151,35,17,103
150,35,16,103
149,35,16,103
148,35,17,102
161,35,17,102
160,34,17,102
159,35,17,101
158,35,17,100
158,36,17,99
157,37,17,99
156,37,17,99
155,37,16,98
154,36,16,98
153,36,16,98
153,36,16,97
152,36,16,97
159,35,17,109
159,35,17,108
159,35,17,107
158,35,17,107
158,35,17,106
157,34,16,106
156,34,16,105
155,34,16,105
154,33,16,103
153,33,16,103
153,33,16,103
152,33,16,109
159,33,16,110
159,33,16,109
158,33,16,108
157,32,15,108
156,32,15,107
155,31,15,107
155,31,15,105
154,31,15,105
153,31,15,103
152,31,15,103
152,31,15,103
150,31,16,105
161,31,16,105
159,30,16,103
159,30,16,103
159,30,15,103
158,30,15,103
157,30,15,102
156,30,15,101
155,29,15,101
154,29,15,100
153,29,15,100
152,29,15,99
152,29,16,101
155,29,16,100
154,29,15,100
153,28,15,99
152,28,15,99
152,28,15,98
151,28,15,98
150,28,15,97
149,27,15,97
149,27,15,96
147,27,15,96
147,27,15,96
146,27,15,105
155,27,15,103
153,27,15,103
152,26,15,103
152,26,15,102
151,26,15,102
150,25,15,101
149,26,15,101
149,25,14,100
147,25,14,99
147,25,14,99
146,25,14,99
145,25,15,101
156,25,15,100
155,38,15,99
153,42,14,99
153,42,14,99
152,41,14,98
152,41,15,98
151,41,14,97
150,41,14,96
149,39,14,96
148,39,14,96
147,39,14,95
147,39,14,110
154,39,14,111
153,39,14,110
153,39,14,110
152,39,14,109
151,39,14,108
150,39,14,108
149,39,13,107
148,39,13,107
147,39,13,106
147,39,13,105
146,38,13,105
145,38,17,108
155,38,17,107
154,38,17,106
153,38,17,105
152,37,17,105
152,37,17,105
151,37,16,103
150,36,16,103
149,36,16,103
148,36,16,102
147,36,16,102
147,35,16,101
146,35,17,115
152,35,17,115
150,48,17,113
150,47,17,113
149,47,17,113
147,46,16,112
147,46,16,111
146,46,16,110
145,45,16,110
145,45,16,110
143,45,16,109
143,45,16,108
146,45,18,112
147,44,17,111
147,44,17,111
146,44,16,110
145,43,17,110
144,43,17,109
143,43,16,108
143,42,17,108
142,42,16,107
142,42,16,107
141,41,16,106
140,41,16,105
147,41,17,105
145,41,16,103
145,41,16,103
143,41,16,103
143,39,15,103
142,39,16,103
141,39,15,102
141,39,15,102
140,39,15,101
140,39,15,101
138,39,15,100
138,39,15,103
153,38,15,103
152,38,15,103
151,38,15,103
150,38,15,102
149,38,15,101
148,37,15,101
147,37,15,100
147,37,15,99
146,36,15,99
145,37,14,99
144,36,15,98
143,36,15,108
157,36,15,107
156,49,15,107
155,65,15,105
153,64,15,105
153,64,15,105
152,63,15,103
152,63,15,103
150,62,14,103
150,62,14,103
149,62,15,102
147,62,15,101
147,61,19,109
154,61,19,108
153,60,19,108
153,60,19,107
152,60,19,106
151,60,19,106
150,59,19,105
149,59,19,105
148,58,19,103
147,58,18,103
147,58,18,103
146,57,18,103
149,57,19,102
157,56,18,101
157,56,18,101
156,56,18,101
155,56,18,99
154,56,17,99
153,55,17,99
153,55,17,98
152,55,17,98
151,54,17,97
150,54,17,97
149,54,17,97
149,53,17,99
163,53,17,98
163,53,17,98
162,52,17,97
161,52,17,97
159,51,16,96
159,51,17,96
158,51,16,96
158,51,16,95
157,51,16,95
156,51,16,95
155,50,16,94
154,50,17,101
157,50,18,100
156,49,18,100
155,49,17,99
155,49,17,99
153,49,17,98
153,48,17,97
152,48,17,97
151,48,17,96
151,47,17,96
150,47,16,96
149,47,16,95
148,47,17,97
154,46,18,102
158,46,17,101
157,46,17,100
156,46,17,99
155,46,17,99
155,45,17,99
153,45,17,99
153,45,17,98
152,45,17,97
151,45,16,97
150,44,17,97
150,44,17,96
149,43,18,103
159,44,18,103
159,43,18,102
158,43,17,102
158,43,18,101
157,43,17,101
156,42,17,101
155,42,17,99
154,42,17,99
153,41,17,99
153,41,17,98
152,41,16,98
151,41,18,107
153,40,18,107
152,39,17,106
152,39,18,105
150,40,17,103
149,39,17,103
149,39,17,103
148,39,17,103
147,39,16,103
147,39,17,102
146,39,16,101
145,39,17,101
144,38,21,101
146,38,21,99
145,38,20,99
143,38,20,99
143,38,19,98
143,38,19,98
142,37,20,97
141,37,19,97
140,37,19,96
140,37,19,96
140,36,19,96
139,36,19,95
138,36,19,95
139,35,19,95
137,38,19,94
137,39,19,94
135,42,19,93
135,42,19,93
135,42,19,92
134,41,18,92
134,41,18,92
133,41,18,91
132,41,19,91
131,41,18,90
131,39,18,93
135,39,18,92
135,39,18,92
135,39,18,92
134,39,18,91
133,39,18,91
133,39,17,91
131,39,18,89
131,39,17,89
130,39,17,89
129,39,17,88
129,39,17,88
129,39,17,88
131,38,17,99
131,38,17,98
131,38,17,97
131,38,16,97
130,38,16,96
129,37,16,96
128,37,16,96
127,37,15,95
127,36,16,94
126,36,16,94
126,36,16,94
125,35,15,93
125,35,17,93
138,35,17,92
137,35,17,92
135,35,17,91
135,35,16,91
135,35,16,90
134,34,16,90
133,34,16,89
132,34,16,89
132,34,15,89
131,34,16,88
131,33,15,88
130,33,16,89
155,33,18,98
155,66,18,97
155,78,18,96
154,77,18,96
153,77,17,96
152,76,18,95
152,76,17,94
151,75,17,94
149,75,17,94
148,75,17,93
148,74,17,93
147,73,17,92
147,73,20,109
147,73,20,108
146,71,20,107
145,71,19,107
144,71,19,106
143,71,19,105
143,71,19,105
142,70,19,103
141,70,19,103
141,70,19,103
140,69,19,102
139,69,19,102
141,68,20,102
145,67,19,101
144,67,19,101
143,67,19,100
143,66,19,99
142,67,19,99
141,66,19,99
141,65,19,98
140,65,19,97
139,65,19,97
138,64,18,97
138,64,18,96
139,63,19,107
152,63,19,106
151,63,19,105
150,63,19,105
149,63,18,103
148,63,18,103
147,62,18,103
147,62,18,102
146,62,18,102
145,62,18,101
144,61,18,101
143,61,17,100
145,61,18,101
147,60,18,100
146,60,18,99
145,60,18,99
145,59,18,99
143,59,17,98
143,59,17,98
142,59,17,97
142,58,17,97
141,58,17,96
140,57,17,96
140,57,17,96
139,57,17,98
146,57,17,98
145,56,16,97
144,56,17,96
143,56,16,96
143,56,16,96
142,56,17,95
141,55,16,95
141,55,16,94
140,54,16,94
139,54,16,93
139,54,15,93
137,54,16,112
150,53,15,111
149,53,16,110
147,52,15,109
147,52,15,109
146,52,15,108
145,52,15,108
144,51,15,107
143,51,15,106
143,51,15,106
142,51,15,105
141,50,14,105
141,50,15,121
147,50,15,120
147,49,15,120
146,49,15,119
145,49,15,118
144,49,15,118
143,48,15,117
143,48,14,116
142,48,14,115
141,48,14,115
140,47,14,114
140,47,14,114
140,47,15,115
153,46,15,114
153,47,15,114
152,46,14,113
151,46,14,112
150,46,14,112
149,45,14,111
149,45,14,111
147,45,14,110
147,44,14,110
146,44,14,109
145,44,13,113
160,44,14,115
164,44,14,115
163,43,14,114
162,43,14,114
161,43,13,113
160,43,13,112
159,42,13,112
158,42,13,112
158,42,13,110
157,42,13,110
156,41,13,110
155,41,14,110
155,41,14,109
154,46,14,109
153,56,14,108
153,56,14,108
152,56,14,107
151,56,13,107
151,56,14,106
150,55,13,105
149,55,13,104
147,54,13,103
147,54,13,103
147,53,15,110
158,53,15,109
156,53,14,108
156,52,14,108
155,51,14,106
154,51,14,107
153,51,14,106
152,51,14,105
152,51,14,105
151,51,13,103
150,50,13,103
149,50,13,103
148,50,15,111
157,49,15,110
156,49,15,109
156,49,15,109
155,48,15,108
153,48,14,108
153,48,14,108
152,48,14,106
152,47,14,106
151,47,14,105
150,47,14,105
149,46,14,103
150,46,14,110
158,46,14,110
157,46,14,109
156,46,14,109
155,46,14,108
154,45,14,108
153,45,14,107
153,45,13,106
152,44,14,105
151,44,13,105
150,44,13,103
149,44,14,152
148,43,15,183
147,63,15,182
147,82,14,180
146,81,14,179
145,83,14,178
144,87,14,177
143,86,14,176
143,86,14,175
142,85,14,174
141,85,14,173
141,84,14,172
153,83,14,172
160,83,14,171
159,82,14,170
159,82,13,169
158,82,13,169
157,81,13,167
156,81,13,167
155,80,13,166
154,79,13,165
153,79,13,164
152,79,12,163
152,78,74,163
151,78,103,162
167,78,102,161
167,78,102,159
166,78,101,159
164,77,100,158
163,77,99,158
163,77,99,157
162,76,98,156
161,76,98,155
159,76,97,209
159,75,97,305
159,75,96,430
176,74,96,425
175,74,95,420
174,73,94,418
173,73,94,414
172,73,93,412
171,71,93,409
170,71,92,407
169,71,92,404
167,167,91,401
167,263,91,399
167,310,128,397
166,307,164,393
244,304,162,391
242,302,161,389
240,300,159,386
239,297,159,384
237,295,158,381
236,294,157,379
234,291,156,376
233,289,155,374
231,287,154,371
230,286,153,481
257,284,152,551
337,283,152,545
334,280,151,540
331,280,150,535
329,346,149,531
327,373,148,526
324,370,147,521
322,368,146,518
319,365,146,515
318,361,145,510
316,359,144,505
314,356,143,502
312,355,142,499
311,504,141,504
309,575,141,499
307,569,140,495
305,565,139,492
303,560,138,487
301,555,138,485
299,549,137,481
297,545,135,478
295,540,135,475
294,536,135,472
291,531,134,467
290,527,133,465
289,524,133,462
287,519,131,459
286,515,131,455
284,511,131,452
282,507,130,451
281,504,129,448
280,499,128,604
278,496,127,675
276,492,127,670
274,487,126,662
272,485,126,655
271,482,125,649
270,478,124,644
268,475,123,638
267,471,123,632
265,467,123,626
263,465,121,622
262,461,121,615
261,458,120,611
259,455,120,605
258,541,120,601
255,638,119,595
254,630,118,591
253,624,117,585
252,619,116,582
251,613,115,577
249,607,115,572
248,601,115,568
247,597,114,564
245,591,113,560
243,586,113,555
243,581,112,551
241,577,112,546
240,572,112,543
239,567,110,539
238,562,110,535
236,558,109,530
235,553,109,527
233,549,108,524
231,544,108,519
231,541,107,515
230,536,107,512
229,531,106,508
227,527,105,505
226,524,105,501
225,519,103,498
224,516,103,495
223,512,103,491
222,508,103,487
220,504,103,485
231,501,102,481
230,497,101,478
228,493,101,475
227,490,100,472
226,486,99,469
224,482,99,465
223,480,98,463
222,476,99,460
220,473,97,457
220,471,97,511
219,467,97,704
217,464,96,838
216,460,96,825
215,458,95,816
214,455,95,806
213,451,94,797
211,449,94,790
211,446,94,781
210,444,93,775
208,440,92,766
207,437,92,760
221,435,116,752
329,432,115,743
467,429,115,736
485,427,114,731
481,423,113,723
477,421,113,716
473,418,112,709
470,415,111,702
466,413,111,697
463,411,110,690
460,408,110,684
455,406,109,677
453,403,108,671
449,400,108,666
446,398,107,659
444,396,106,654
440,398,106,649
437,403,105,643
434,399,105,638
431,397,103,632
428,395,103,627
425,391,103,623
423,390,103,617
420,387,102,612
417,385,101,608
415,382,101,603
412,380,100,598
409,377,99,593
408,376,99,589
405,374,98,585
402,371,98,582
399,369,97,577
397,367,97,574
395,365,96,569
391,363,96,564
390,361,95,561
387,359,95,557
385,357,94,553
384,355,94,550
381,353,94,545
379,352,93,542
376,349,93,537
374,348,92,535
372,345,177,531
370,344,269,527
368,341,319,523
365,339,317,519
363,337,314,515
361,335,312,512
359,333,310,508
357,332,308,505
355,330,306,502
353,327,304,499
351,326,302,495
349,325,300,492
347,323,298,489
345,320,297,485
343,319,295,482
341,318,293,480
339,316,291,476
337,313,289,472
335,312,287,469
333,311,286,466
331,309,284,463
329,307,283,461
327,305,281,457
326,304,280,455
323,302,278,452
322,300,276,449
319,299,275,446
318,297,273,444
317,295,271,441
315,294,270,438
313,292,269,435
312,291,268,433
310,289,265,431
307,287,263,428
307,286,263,448
305,284,262,483
303,283,260,480
302,281,259,476
300,370,257,472
298,482,255,468
297,478,254,465
295,473,252,462
294,470,252,458
292,465,250,455
291,463,249,451
289,459,248,449
287,455,246,446
286,451,245,442
284,449,243,439
283,446,242,436
281,442,240,433
280,439,240,430
279,436,270,428
277,433,398,425
275,430,498,422
274,427,494,419
272,423,489,417
271,421,485,415
270,418,481,412
268,415,478,409
267,412,474,408
265,409,470,405
263,407,467,403
263,403,463,399
262,401,461,398
259,399,457,396
259,396,454,393
257,393,451,391
255,391,448,388
254,389,445,387
253,385,441,384
252,384,440,382
251,380,436,380
249,379,433,378
248,376,430,376
247,374,427,374
245,371,425,371
244,369,422,369
243,367,419,368
242,364,415,365
241,361,415,363
240,359,412,361
238,358,409,359
236,358,406,357
236,355,403,355
235,353,401,353
233,351,399,352
231,349,396,350
231,347,395,348
230,345,391,345
229,343,389,344
227,341,387,342
226,339,385,340
225,335,382,339
224,335,380,337
223,332,377,335
222,331,376,333
221,327,374,332
220,327,371,330
219,325,369,327
217,323,367,326
217,321,365,325
216,319,363,323
215,317,359,321
213,316,359,319
212,313,357,318
211,312,355,316
210,311,352,315
209,308,350,313
207,306,349,312
207,305,347,310
206,303,344,308
205,301,343,307
204,300,341,305
203,298,339,304
202,295,337,302
201,295,335,300
199,293,334,299
199,291,332,297
198,290,329,295
197,287,327,295
196,286,326,293
195,284,324,291
194,331,323,291
194,495,321,289
193,570,319,287
192,563,318,286
191,560,316,285
190,555,313,283
189,550,312,281
188,545,311,280
187,541,309,279
186,536,307,278
185,531,305,276
184,572,304,275
184,598,302,273
183,591,301,271
182,585,299,271
181,580,297,269
179,575,295,268
179,571,295,267
178,566,293,266
177,560,291,265
176,556,290,263
176,551,287,262
175,547,287,261
174,543,286,259
173,538,284,259
173,535,283,257
172,530,281,255
171,526,280,255
170,521,278,369
169,519,277,366
167,514,275,363
167,510,274,359
167,505,273,357
166,503,271,355
165,499,270,353
164,495,268,351
163,491,267,348
163,487,265,345
162,484,263,344
161,480,263,341
161,477,262,339
159,474,260,337
159,471,259,335
158,467,258,333
158,463,257,331
157,461,255,327
156,457,253,327
156,455,252,325
155,451,251,323
153,448,250,321
153,445,249,319
152,442,248,317
152,440,247,316
151,436,245,313
150,434,243,312
150,431,242,310
148,428,242,307
148,423,240,306
147,423,245,305
147,419,391,303
146,417,433,301
145,414,430,299
145,412,426,297
144,409,423,295
143,406,419,294
143,415,417,292
142,439,414,291
141,435,411,289
140,432,408,287
140,428,406,286
139,426,403,284
139,423,399,283
137,419,397,281
137,415,396,280
137,414,393,278
135,411,390,277
135,408,440,275
135,405,436,273
134,401,433,271
134,399,430,271
133,397,426,269
132,394,423,268
131,391,421,266
130,390,418,265
130,387,415,263
129,385,412,262
129,382,417,260
129,380,414,259
127,377,411,258
127,375,409,255
127,373,406,255
126,371,403,254
156,369,400,259
294,367,398,268
428,364,396,265
489,363,393,263
483,359,391,263
480,358,387,261
476,355,386,259
472,354,384,257
469,352,381,255
465,349,378,254
462,347,376,253
459,345,374,252
455,344,371,250
452,342,369,249
449,339,368,248
446,337,365,246
442,335,363,246
440,334,359,244
437,332,359,243
433,329,356,242
431,327,354,241
428,326,352,240
425,324,351,243
422,425,348,242
419,556,346,240
416,608,344,239
414,601,343,238
411,595,340,236
408,591,338,236
406,585,336,235
403,579,335,233
401,574,333,235
398,571,331,385
396,566,329,480
393,560,327,473
391,556,326,470
388,551,323,465
386,547,322,462
384,543,319,459
381,537,318,455
379,535,316,451
376,530,315,449
374,526,312,446
372,521,312,442
370,517,310,440
368,514,307,437
366,510,306,433
363,505,304,430
361,502,303,427
359,498,301,425
357,495,300,422
355,491,298,419
353,487,295,415
351,484,295,414
349,480,293,411
347,477,291,408
344,556,290,405
343,551,288,403
341,547,287,400
339,542,285,398
337,537,284,395
335,534,283,391
333,529,281,391
331,524,280,387
329,519,279,385
327,516,277,383
325,512,275,381
323,508,273,378
322,504,272,376
319,500,271,374
318,496,270,371
317,492,268,369
315,487,267,367
313,485,265,364
357,482,263,363
354,478,263,359
352,475,261,358
349,471,259,356
347,468,259,354
345,464,257,352
342,462,255,350
340,458,255,348
338,455,253,346
335,452,252,344
334,449,251,342
332,446,249,339
329,444,248,338
327,440,247,336
325,437,246,334
323,434,245,332
321,432,243,330
319,428,242,329
317,425,240,327
316,423,240,325
313,420,238,323
312,417,237,321
310,415,236,319
308,412,235,318
307,409,233,316
305,407,231,315
303,404,231,313
302,401,231,311
300,399,229,309
299,397,228,307
297,394,227,306
295,391,226,304
294,389,225,302
291,387,224,301
291,384,223,299
289,382,222,297
287,379,221,295
286,377,220,295
284,376,219,293
283,373,217,291
281,370,216,290
280,369,216,287
278,366,214,287
276,364,213,285
275,361,212,284
274,359,211,282
271,358,210,281
271,355,209,280
270,353,207,278
268,352,207,276
266,349,206,275
265,347,205,273
263,345,204,271
262,343,204,270
261,341,202,269
259,339,201,268
258,337,201,266
257,335,199,265
255,334,199,263
254,332,198,263
253,329,197,261
252,327,195,259
251,326,195,259
249,324,194,257
248,322,193,255
247,319,192,254
245,319,192,253
244,316,190,252
243,315,189,251
241,313,189,249
240,312,188,248
239,310,187,247
238,307,185,245
237,306,185,243
236,305,184,243
234,303,184,242
233,301,182,240
231,299,182,239
231,298,181,238
229,295,179,237
228,295,179,236
227,293,178,235
226,291,177,233
225,290,177,233
224,287,176,231
223,287,175,230
222,285,174,229
221,284,173,227
220,282,173,227
218,281,172,226
217,279,171,224
216,278,170,224
215,276,169,223
214,275,167,222
213,273,167,220
212,271,167,220
211,271,167,219
210,269,165,218
209,268,165,217
207,267,163,216
207,265,163,215
206,263,162,214
205,262,162,213
204,261,161,211
203,259,160,211
202,258,159,210
201,257,159,209
199,255,158,207
199,254,158,207
198,253,156,206
197,251,156,205
195,250,156,204
195,249,155,204
194,248,153,202
193,246,153,201
192,245,152,200
192,244,152,199
190,243,151,199
190,241,151,198
189,240,150,209
188,239,149,207
187,238,148,207
185,236,147,206
185,235,147,204
184,235,146,204
184,233,145,202
182,231,145,201
182,231,145,199
180,230,143,199
179,229,143,198
179,227,142,197
178,226,142,195
177,225,141,195
176,224,140,194
176,223,140,193
175,222,139,192
174,221,139,191
173,219,138,190
172,219,137,190
171,217,137,189
170,216,135,188
169,216,135,187
169,214,135,186
167,213,134,185
167,212,134,184
166,211,133,184
166,210,132,183
165,209,132,182
164,207,131,181
163,207,130,180
162,206,130,179
161,205,129,179
161,204,128,178
159,203,127,177
159,202,127,176
159,201,127,176
158,199,126,174
157,199,126,174
156,198,125,174
156,197,124,172
155,195,124,171
154,195,123,171
153,194,123,170
152,193,123,169
152,192,122,167
152,192,121,167
150,190,120,167
150,190,120,166
149,189,120,166
148,188,120,165
147,187,118,164
147,185,118,163
146,185,117,163
146,184,117,162
145,184,116,161
145,182,115,160
143,181,115,159
143,181,115,159
142,179,114,158
141,179,113,158
141,178,113,157
140,177,113,156
140,177,112,156
139,176,112,155
139,175,111,154
137,174,111,153
137,173,110,153
135,172,110,152
135,171,109,152
135,171,109,151
134,170,108,150
134,169,108,150
133,167,107,149
132,167,107,148
132,167,106,147
131,166,106,147
131,165,105,147
130,164,105,146
129,163,103,145
129,163,103,145
127,162,103,143
127,161,103,143
127,160,103,143
126,159,102,142
126,159,102,246
125,158,130,302
124,157,129,299
124,157,127,295
123,156,127,295
123,155,126,292
123,155,125,290
121,154,125,288
121,153,124,287
121,152,123,285
120,152,123,283
120,152,135,281
119,151,170,280
118,150,173,278
118,149,192,276
117,148,217,275
117,147,216,273
115,147,220,271
115,146,243,270
115,145,242,268
114,145,240,267
114,143,238,265
113,143,237,263
113,143,236,262
112,142,234,261
112,142,233,259
111,141,231,258
111,140,230,255
110,139,229,255
110,139,227,253
109,138,226,252
109,137,225,251
108,137,224,306
108,135,222,448
107,135,221,441
107,135,220,436
106,135,218,433
105,134,217,430
105,133,216,427
105,132,215,423
103,131,213,420
103,131,212,418
103,131,211,415
103,130,210,412
102,129,209,409
102,129,207,408
101,127,206,404
101,127,205,401
100,127,205,399
99,126,204,396
99,126,202,393
99,125,201,391
99,125,199,389
98,125,199,387
98,124,198,385
97,123,197,382
97,123,196,380
96,122,195,377
96,122,194,376
96,121,193,373
96,120,192,371
95,120,192,369
94,120,190,366
94,119,189,364
94,118,188,362
93,118,188,359
92,118,186,358
92,117,185,356
92,116,184,354
92,115,184,352
91,115,183,350
91,115,182,348
90,114,181,345
90,114,179,344
89,113,179,342
89,113,178,341
88,112,177,339
88,112,176,337
88,112,176,335
88,111,175,333
87,110,174,331
87,110,173,329
86,110,172,327
86,109,171,326
86,108,171,323
85,108,169,323
85,107,169,319
84,107,167,319
83,107,167,358
84,106,167,355
83,156,165,353
83,287,165,350
82,287,163,348
82,384,163,346
82,467,162,344
81,463,161,342
81,459,160,339
80,455,159,337
80,452,159,335
79,449,158,333
79,445,158,331
79,442,157,329
79,440,156,327
78,436,156,326
78,433,155,323
78,430,153,321
78,427,153,319
77,423,152,318
77,421,152,316
76,419,151,315
76,415,150,313
76,413,150,311
75,411,149,310
75,408,148,307
75,405,147,307
75,402,146,305
74,399,146,303
73,397,145,302
73,395,144,300
73,391,143,299
