109,107,2,53
108,106,2,53
109,106,2,53
118,105,2,52
117,105,2,52
117,103,2,52
116,103,2,51
115,106,2,51
115,105,2,51
114,103,2,51
114,103,2,50
113,103,2,50
113,103,2,50
112,103,2,50
111,102,2,49
120,101,2,49
119,101,2,48
118,100,2,49
117,99,2,48
117,99,2,48
116,99,2,49
115,99,2,49
115,98,2,48
115,98,2,48
114,97,2,48
114,97,2,48
113,96,2,47
112,96,2,47
121,96,1,47
121,95,2,46
120,94,2,47
120,94,1,46
119,94,2,46
118,94,1,53
118,93,1,53
117,93,1,53
116,93,2,52
116,92,2,52
115,92,1,51
115,92,1,51
114,91,2,51
126,91,2,51
125,90,2,51
124,89,2,50
124,89,2,50
123,89,2,50
123,90,2,50
122,89,2,49
121,89,2,49
120,88,2,49
120,88,2,48
120,88,2,48
119,88,2,48
118,87,2,48
121,87,2,47
120,86,2,48
120,85,2,47
119,85,2,47
118,85,2,47
118,85,2,46
117,85,2,46
117,84,1,46
116,83,2,46
115,83,2,45
115,83,1,45
114,82,2,45
114,82,2,45
129,82,2,45
127,81,2,44
127,81,2,44
127,80,2,44
126,80,1,44
125,80,2,44
124,80,2,43
124,79,2,43
124,79,1,43
123,79,1,43
122,79,1,43
121,78,1,42
121,78,2,42
125,78,2,41
125,77,2,41
124,77,2,41
123,76,2,41
123,76,2,41
122,76,2,41
121,76,2,39
121,76,2,41
120,75,2,39
120,75,2,39
120,75,1,39
119,74,2,39
118,73,1,39
125,73,1,39
125,73,1,39
124,73,1,39
124,72,1,39
123,71,1,38
122,71,1,38
121,71,1,38
121,71,1,38
120,71,1,38
120,71,1,38
119,70,1,37
118,70,1,37
118,70,1,37
118,69,1,37
119,69,1,37
118,68,1,36
118,68,1,36
117,68,1,36
116,96,1,70
115,99,1,70
115,99,1,69
114,98,1,69
114,98,1,68
113,97,1,67
113,97,1,67
112,96,1,67
119,96,1,66
119,95,1,66
118,94,1,66
118,94,1,65
117,94,1,65
117,93,1,65
116,93,1,65
115,92,1,64
115,92,1,63
115,92,1,63
114,91,1,63
113,91,1,62
113,90,1,62
116,90,1,62
118,89,1,62
118,89,1,62
117,89,1,61
116,88,1,61
115,88,1,61
115,88,1,61
115,88,1,60
114,88,1,60
113,87,1,60
113,86,1,59
112,86,1,59
112,86,1,59
114,85,2,59
118,84,2,58
118,84,2,58
117,83,1,57
117,83,2,57
115,94,2,57
115,93,2,57
114,93,2,56
114,93,2,56
114,92,2,56
113,92,1,56
112,91,1,56
112,91,2,56
114,90,2,56
121,90,1,55
120,89,2,55
120,89,2,54
119,88,1,54
118,88,1,54
117,91,1,53
117,95,2,53
116,94,2,53
115,94,1,53
115,93,1,53
115,93,1,52
114,92,1,52
114,92,1,52
115,92,1,79
115,91,1,78
114,91,1,78
113,90,1,77
113,89,1,77
112,89,1,76
112,89,1,76
111,88,1,75
110,88,1,75
110,88,1,75
110,87,1,74
109,87,2,73
109,86,2,73
112,86,2,73
112,86,2,102
111,85,2,152
110,85,2,150
110,107,2,149
110,140,2,148
109,139,2,147
108,137,2,146
108,137,1,145
107,135,2,145
106,135,2,143
106,134,1,143
105,133,2,142
105,133,2,141
103,132,1,141
103,131,2,140
103,167,2,140
103,214,2,235
102,212,1,280
102,211,2,277
101,209,2,275
100,207,2,273
100,206,1,271
99,206,1,270
99,204,4,269
99,204,39,267
98,202,46,265
98,201,46,263
97,199,45,263
97,199,45,261
97,198,45,332
96,197,44,334
96,195,44,399
96,194,44,505
95,193,43,501
201,192,43,496
222,192,43,492
220,190,42,487
219,189,42,483
217,188,42,481
216,187,41,477
215,186,41,474
213,251,41,471
211,386,41,492
211,431,39,662
209,427,39,652
207,423,39,647
207,420,39,639
206,417,39,635
205,414,39,628
204,411,39,622
202,408,39,617
201,435,39,612
199,476,138,607
199,471,138,602
198,467,137,597
197,463,135,591
195,460,135,587
197,455,135,583
196,452,134,578
195,449,133,573
193,446,132,568
192,443,131,565
192,455,130,560
190,632,129,556
189,705,129,551
188,697,127,548
187,689,127,543
236,682,126,540
284,675,126,539
281,670,125,541
280,663,124,727
278,657,124,769
276,831,123,760
274,823,122,753
272,812,121,745
271,801,121,736
269,792,120,728
267,785,120,723
265,775,119,788
263,768,118,777
263,759,118,768
261,752,117,760
259,743,116,753
258,736,115,745
255,728,135,737
254,723,134,729
253,715,133,723
252,707,132,716
251,700,131,709
248,695,131,702
248,688,130,697
246,681,129,690
245,675,128,683
243,669,127,677
241,664,127,675
241,657,126,670
239,651,126,664
238,645,125,657
236,639,124,653
235,635,123,647
234,629,124,639
231,624,123,791
231,619,122,798
230,614,121,788
228,608,121,779
227,603,120,770
226,600,198,763
225,594,205,755
224,589,203,747
223,583,203,739
221,580,201,731
220,575,199,726
219,570,198,718
218,566,197,711
216,562,195,704
216,558,195,699
214,553,193,691
213,548,193,685
211,545,192,679
210,541,190,674
209,536,189,668
222,532,188,661
220,527,187,655
219,525,185,651
217,521,185,645
216,517,184,639
215,513,183,633
214,510,182,629
212,505,181,624
211,502,179,618
210,498,179,613
209,496,177,609
207,492,177,604
207,487,176,749
206,485,175,896
204,482,174,907
203,479,173,911
202,475,172,915
201,472,171,918
199,469,171,920
199,466,169,920
198,462,167,917
197,459,167,899
195,457,166,886
195,454,166,905
194,451,165,911
193,448,164,915
192,445,163,917
191,442,162,919
190,439,161,921
189,435,160,923
188,433,159,924
187,431,159,924
186,428,158,924
185,425,157,919
184,423,156,893
184,420,156,883
182,418,155,902
181,415,154,910
180,412,153,914
179,410,152,916
178,408,152,920
177,404,151,920
177,402,150,922
175,399,149,921
175,504,148,918
174,500,147,895
173,496,147,880
172,493,146,869
171,487,145,862
171,484,144,851
170,480,143,841
168,478,143,831
167,473,142,825
167,470,141,816
166,466,141,807
165,463,140,798
164,460,140,792
163,455,139,783
163,452,138,775
161,449,137,766
161,447,135,760
159,443,135,753
159,440,135,767
159,436,135,835
158,434,134,827
157,430,133,817
156,428,133,807
156,423,132,798
154,422,131,792
154,419,130,783
153,415,130,774
152,413,129,765
152,411,128,759
151,408,127,751
150,405,127,743
149,402,126,735
148,399,126,728
147,397,125,723
147,395,124,716
147,391,124,709
145,390,123,702
145,387,123,697
144,385,122,690
143,383,121,684
143,381,120,678
142,378,120,673
141,376,120,667
140,374,119,661
140,371,119,655
139,465,118,651
139,615,117,645
138,609,116,639
137,602,116,633
135,598,115,629
135,591,115,624
135,587,114,619
134,581,113,613
134,577,113,609
133,572,112,604
132,567,112,600
131,562,111,671
131,558,111,665
130,553,110,659
129,547,110,652
129,543,109,645
128,540,109,639
127,536,108,634
127,531,107,628
127,527,107,623
126,523,106,617
125,519,105,612
125,515,105,607
124,510,105,601
123,507,103,596
123,503,103,592
122,499,103,588
122,495,103,583
121,491,102,578
120,489,102,575
120,485,101,570
120,481,100,566
118,477,99,561
118,475,99,558
118,471,99,553
117,468,99,550
116,465,98,546
115,462,98,543
115,459,97,539
115,455,97,536
114,453,96,532
113,449,96,528
113,447,96,525
113,444,95,521
112,441,95,518
112,439,94,515
111,435,94,511
110,433,93,508
110,430,93,504
110,427,92,501
109,425,92,498
108,422,91,494
108,419,91,492
107,417,90,487
107,415,90,486
106,412,89,482
106,409,89,479
105,407,89,476
103,403,88,473
103,402,88,471
103,399,88,467
103,396,87,464
103,395,87,462
103,391,86,459
102,390,86,457
101,387,86,454
101,385,85,451
100,383,85,449
100,380,84,446
99,379,83,444
99,376,83,441
99,374,83,439
98,372,82,437
98,370,82,433
97,368,82,432
97,366,81,429
96,364,81,427
96,363,81,425
96,359,80,422
95,359,80,419
95,356,79,417
94,355,79,415
94,353,79,413
93,351,79,411
93,350,78,409
93,348,78,407
92,345,78,405
92,344,77,402
91,342,77,400
91,341,76,399
91,338,76,396
90,337,76,394
90,335,76,391
89,334,75,390
89,332,75,387
88,330,74,386
88,329,74,384
88,327,74,382
88,325,73,380
87,323,73,377
87,322,73,376
86,321,79,375
86,319,79,372
85,317,78,371
85,316,78,368
85,314,78,367
84,312,77,365
83,312,77,364
83,310,76,362
83,307,76,359
83,307,76,358
82,305,75,356
82,304,94,355
82,302,94,353
81,301,223,352
81,299,260,349
80,299,258,348
80,295,255,345
79,295,254,344
79,294,253,342
79,292,255,340
79,291,303,339
78,289,300,337
78,287,298,335
77,286,295,334
77,285,302,332
77,284,300,330
76,281,298,327
76,281,295,327
76,280,295,326
75,278,293,324
75,276,291,322
75,275,289,321
74,274,287,319
74,272,286,318
74,271,284,316
73,270,283,315
73,269,281,313
73,267,280,312
73,265,278,310
71,264,276,309
103,263,275,307
230,262,273,305
263,261,271,304
261,259,270,302
259,258,268,301
257,255,267,299
255,255,265,297
253,254,263,295
252,253,263,295
250,251,261,293
249,249,259,291
248,249,258,291
246,248,257,366
243,246,255,361
243,245,254,359
241,243,252,356
240,243,251,354
238,241,249,352
312,240,248,349
437,239,247,347
578,238,245,345
647,236,243,343
641,236,265,340
635,235,304,338
629,233,301,336
623,231,299,334
617,231,297,332
611,230,295,329
607,229,293,327
601,227,347,326
659,227,387,324
795,225,409,322
790,224,405,319
781,223,441,318
772,222,443,316
764,221,440,314
755,220,435,312
748,219,432,311
741,217,429,309
734,216,427,307
727,216,423,305
719,215,420,304
713,214,418,302
706,212,415,300
700,240,412,299
694,391,409,297
687,556,408,295
681,646,404,293
675,639,401,291
669,633,398,290
664,626,396,289
657,620,394,287
652,615,391,286
647,610,389,284
641,604,386,283
636,598,384,281
630,594,381,280
625,589,379,279
620,583,377,277
615,578,375,275
610,574,372,275
605,569,370,273
601,564,368,271
596,560,366,270
591,555,364,269
587,551,361,268
582,547,359,267
577,542,357,265
574,537,355,263
569,534,353,263
565,529,351,262
560,526,349,260
556,521,347,259
553,518,345,258
548,514,343,257
545,510,342,255
541,505,339,254
537,503,337,253
533,499,335,252
529,495,333,250
526,491,332,249
521,487,330,248
519,485,327,248
515,595,326,246
511,620,324,245
508,615,322,243
504,609,320,242
500,604,319,241
497,598,317,240
494,593,315,239
491,588,313,238
487,583,312,237
484,577,311,236
481,572,309,235
478,568,307,234
475,563,305,231
472,559,304,231
469,553,302,230
465,550,300,229
463,545,299,228
460,541,297,227
457,536,295,226
455,533,294,225
451,528,292,224
448,524,291,223
445,519,289,222
443,517,287,221
440,512,286,220
437,508,284,219
435,504,283,217
432,501,281,217
429,497,280,216
427,493,278,215
423,489,277,214
421,487,275,213
419,483,274,212
415,479,273,211
414,476,271,210
412,473,270,209
409,470,269,207
407,466,267,207
404,463,266,206
401,460,265,205
399,457,263,205
397,454,262,204
395,450,260,203
393,447,259,201
391,444,258,201
387,441,256,199
386,438,255,199
384,435,254,198
381,433,252,197
379,430,251,196
377,427,249,195
375,423,249,195
372,422,248,193
371,419,246,193
369,415,245,192
366,413,243,191
364,411,242,190
362,408,241,190
359,406,240,188
359,403,239,188
356,401,238,187
354,398,236,186
352,396,235,185
351,393,234,184
349,391,233,184
346,388,231,183
345,386,231,182
344,384,230,181
341,381,229,180
339,379,227,179
337,376,226,179
335,374,225,178
334,371,224,177
332,370,223,176
330,368,222,176
327,365,221,175
327,363,220,174
325,361,219,174
323,359,217,173
321,357,216,172
319,355,216,171
318,353,215,170
316,351,213,169
315,348,212,169
313,347,211,167
312,345,210,167
310,343,209,167
308,341,207,166
307,339,207,165
305,337,206,164
304,335,205,163
302,333,204,163
300,331,204,162
299,329,203,161
297,327,201,161
295,326,199,159
294,323,199,159
293,321,199,159
291,319,198,158
289,318,196,157
287,316,195,157
287,315,195,156
285,313,194,155
284,312,193,155
282,310,192,154
281,307,191,153
280,306,190,153
278,305,189,152
277,303,188,152
275,301,188,151
274,300,187,150
272,298,185,149
271,295,184,148
270,295,184,148
268,293,183,147
267,291,182,147
265,290,181,146
263,287,181,145
263,287,179,145
262,285,179,144
261,284,178,143
259,282,177,143
258,281,176,142
255,280,176,142
255,278,175,141
254,275,174,141
253,275,173,140
251,273,172,139
250,271,171,139
249,270,171,138
248,269,170,137
247,268,169,137
246,266,167,137
243,265,167,135
243,263,167,135
242,263,166,135
241,261,165,134
240,259,164,134
238,258,163,133
237,257,163,132
236,255,162,131
235,254,161,131
234,252,160,131
231,251,159,130
231,250,159,130
231,249,158,129
229,247,158,128
228,246,157,127
227,245,156,127
226,243,156,127
225,242,155,126
224,241,154,125
223,240,153,125
222,239,152,125
221,237,152,124
220,236,152,124
219,235,151,123
217,234,150,122
216,231,149,122
216,231,148,121
215,231,147,121
214,230,147,121
212,228,147,120
211,227,145,119
210,226,145,119
209,225,143,118
208,224,143,118
207,222,143,117
206,222,142,117
206,220,142,117
204,219,141,115
204,218,140,115
203,217,140,114
202,216,139,114
201,216,138,113
199,214,138,113
199,213,137,113
198,211,135,112
197,211,135,112
196,209,135,111
195,209,135,111
194,207,134,110
193,207,133,110
192,206,133,109
192,205,132,109
190,204,131,108
190,203,131,108
189,201,130,108
188,201,129,107
187,199,129,107
186,199,128,106
185,198,127,105
184,197,127,105
184,196,126,105
183,195,126,103
182,194,126,103
181,193,125,103
180,192,125,103
179,192,124,103
179,191,123,102
178,190,123,102
177,189,122,101
176,188,121,101
176,187,121,100
175,186,120,99
174,185,120,99
173,184,120,99
172,184,119,99
172,183,118,98
171,182,118,98
170,181,117,97
169,180,117,97
167,179,116,96
167,179,115,96
167,178,115,96
166,177,114,96
166,176,114,95
165,176,114,95
164,175,113,94
163,174,113,94
163,173,112,94
162,172,112,93
161,172,111,93
161,171,111,92
159,171,110,92
159,169,110,92
158,169,109,91
158,167,109,91
157,167,109,90
157,167,108,90
156,166,107,89
155,165,107,89
155,164,106,89
154,163,106,88
153,163,105,88
152,162,105,88
152,161,105,88
151,161,103,87
150,159,103,87
150,159,103,86
149,158,103,86
149,158,103,86
147,157,102,85
147,156,101,85
147,156,101,84
146,155,101,84
145,155,100,84
145,153,99,83
143,153,99,83
143,152,99,83
143,152,98,82
142,151,98,82
142,151,97,82
141,150,97,82
141,149,97,81
140,149,96,81
140,148,96,81
139,147,96,80
138,147,95,80
137,146,94,79
137,146,94,79
136,145,94,79
135,144,93,79
135,143,93,78
135,143,93,78
135,143,92,78
134,142,92,78
133,142,92,77
133,141,92,77
132,140,91,76
131,140,91,76
131,139,90,76
130,138,89,76
130,137,89,75
129,137,89,75
129,137,89,75
128,135,88,75
127,135,88,74
127,135,88,74
127,134,88,73
126,134,87,73
126,134,87,73
125,133,86,73
125,132,86,71
124,131,85,71
124,131,85,71
123,131,85,71
122,130,84,71
122,129,83,71
121,129,83,71
121,128,83,70
120,127,83,70
120,127,83,70
120,127,82,70
119,126,81,69
119,126,81,69
118,125,81,69
118,125,81,68
117,124,79,67
116,124,79,67
116,123,79,67
116,123,79,67
115,122,79,67
115,121,79,67
114,121,78,66
113,121,78,66
113,120,78,66
113,120,77,65
112,120,77,65
112,119,77,65
162,118,76,65
163,118,76,65
162,117,76,64
161,117,76,63
159,116,75,63
159,115,75,63
158,115,75,63
157,115,74,63
156,114,74,62
155,114,73,62
155,113,73,62
154,113,71,62
153,113,71,62
152,112,71,61
152,112,71,61
151,111,71,61
150,111,71,61
149,110,71,61
148,110,71,60
147,109,70,60
147,109,70,60
146,108,70,59
145,108,69,59
144,107,69,59
143,107,69,59
143,106,68,58
142,106,68,58
142,105,68,58
141,105,67,57
140,105,67,58
140,103,67,57
139,103,66,57
138,103,66,57
137,103,66,56
137,102,66,56
135,102,65,56
135,102,65,56
135,102,65,56
134,101,65,56
133,100,65,55
132,113,64,55
132,127,63,55
131,126,63,55
131,125,63,54
130,124,63,54
129,123,63,54
129,123,62,54
128,122,62,54
127,121,62,53
127,121,62,53
126,120,61,52
125,120,61,52
125,119,61,52
124,119,61,52
124,118,60,51
123,117,60,51
122,116,60,51
122,115,60,51
121,115,60,51
121,114,59,51
120,114,59,50
120,113,59,50
119,112,58,50
118,112,58,50
118,111,57,50
117,111,57,49
116,111,57,49
116,110,57,49
115,109,57,49
115,108,57,48
115,108,56,48
114,107,56,48
113,107,56,48
113,106,56,48
112,106,56,48
112,105,56,47
112,105,55,47
111,103,54,47
110,103,54,47
110,103,54,46
109,103,54,46
109,103,54,46
108,102,54,46
108,101,53,46
108,101,53,46
107,100,53,45
107,100,52,45
106,99,52,45
106,99,52,45
105,99,51,44
105,98,51,44
103,98,51,44
103,98,51,44
103,97,51,44
103,97,51,44
103,96,50,43
103,96,50,43
102,96,50,43
102,95,50,43
101,95,49,43
101,94,49,43
100,94,49,42
100,94,49,43
99,93,49,42
99,93,49,42
99,93,48,42
98,92,48,41
98,92,48,41
98,92,52,41
97,92,100,41
97,91,120,41
97,91,118,41
96,90,117,41
96,89,117,41
96,89,116,39
95,89,115,41
95,89,115,39
94,89,115,39
94,88,114,39
94,88,113,39
93,88,112,39
93,87,112,39
93,87,111,39
92,86,111,39
92,86,110,39
92,86,109,38
91,85,109,39
91,85,108,38
90,84,108,38
90,84,108,38
90,83,107,38
89,83,106,38
89,83,106,37
89,83,105,37
88,82,105,37
88,82,103,37
88,82,103,37
88,81,103,37
87,81,103,37
86,81,102,36
86,81,102,36
86,79,101,36
85,79,101,36
85,79,100,36
85,79,100,35
84,79,99,35
103,79,99,35
102,78,99,35
102,78,98,35
101,78,98,35
100,78,97,35
100,77,96,34
99,77,96,34
99,77,96,34
98,76,96,34
98,76,95,34
97,76,94,34
97,76,94,33
97,75,94,33
96,75,93,33
96,75,93,33
96,74,92,33
95,74,92,33
94,74,92,33
94,73,91,32
94,73,91,33
93,73,90,33
93,73,90,32
93,71,89,32
92,71,89,32
92,71,88,31
91,71,88,31
91,71,88,31
90,71,88,31
90,71,88,31
89,70,87,31
89,70,87,31
89,70,86,31
88,70,86,30
88,69,85,30
88,69,85,30
87,69,84,30
87,68,84,30
87,68,83,30
86,68,83,30
86,68,83,30
86,67,82,30
85,67,82,30
84,67,82,30
84,67,81,29
83,67,81,29
83,66,81,29
83,66,80,29
83,66,79,29
83,66,79,29
82,65,79,29
82,65,79,29
81,65,79,29
81,65,78,29
81,64,78,29
81,64,77,28
81,63,77,28
80,65,77,28
79,64,76,28
79,63,76,28
79,63,76,28
79,63,76,28
79,63,75,27
78,63,75,27
78,63,75,27
78,63,75,27
77,62,74,27
77,62,73,27
77,62,73,27
76,62,73,27
76,61,71,26
76,61,71,27
75,61,71,26
75,61,71,26
75,61,71,26
74,60,71,26
75,60,71,26
74,60,70,26
73,60,70,25
73,59,70,25
73,59,70,25
73,59,69,25
73,59,69,25
71,99,68,25
71,147,68,25
71,147,67,25
71,146,67,24
71,145,67,25
71,145,67,24
71,143,67,24
154,143,66,24
179,142,66,24
177,141,65,24
176,140,65,24
175,140,65,24
174,189,65,24
173,270,64,24
172,267,64,24
171,265,63,24
169,263,63,23
169,261,63,23
167,259,63,23
167,258,62,23
166,255,62,22
165,255,62,23
164,253,61,22
163,252,61,22
163,257,61,23
162,257,60,22
161,254,60,22
159,253,60,22
159,252,60,22
158,250,59,22
157,249,59,21
157,248,59,22
156,246,59,21
155,245,58,21
155,243,57,21
153,242,57,21
153,241,57,94
152,240,57,93
152,238,57,92
151,237,56,91
150,236,56,90
149,234,56,90
151,233,56,89
266,231,56,89
329,231,56,88
326,229,55,88
324,228,54,88
322,227,54,87
319,226,54,86
318,225,54,86
316,224,54,85
314,222,53,85
312,221,53,84
310,220,53,84
308,219,52,84
307,217,52,83
305,217,51,83
304,216,51,82
302,215,51,82
300,214,51,81
298,212,51,81
297,211,51,80
295,210,51,79
293,209,74,79
291,207,73,79
290,207,73,79
288,206,71,78
287,205,71,78
285,204,71,78
284,203,71,77
282,202,71,77
281,201,71,76
280,199,70,76
278,199,70,76
276,198,69,75
275,197,69,75
273,196,68,75
271,195,68,74
271,194,67,73
269,193,67,73
268,192,67,73
267,191,67,73
265,190,66,71
263,189,66,71
263,188,66,71
261,188,65,71
259,187,65,71
259,185,64,70
257,185,64,70
255,184,64,70
254,184,63,70
253,182,63,69
252,181,63,69
251,180,62,68
249,179,62,67
248,179,62,67
247,177,61,67
246,177,61,67
244,176,61,66
243,176,60,66
242,174,60,66
241,173,60,66
240,173,60,65
238,172,60,65
238,171,59,64
236,170,59,64
235,169,58,63
233,169,58,63
233,167,57,63
231,167,57,63
231,166,57,62
229,166,57,62
228,165,56,62
227,164,56,62
226,163,56,62
225,162,56,61
224,161,55,61
223,161,55,61
222,160,55,60
221,159,54,60
220,159,54,59
218,158,54,59
217,157,53,59
216,156,53,59
216,156,53,59
215,155,53,58
213,154,52,58
212,153,52,57
211,153,51,57
210,152,51,57
209,152,51,56
208,151,51,56
207,150,51,56
206,149,50,56
205,149,50,56
204,147,50,56
204,147,50,55
202,146,49,55
201,146,49,55
199,145,49,54
199,145,48,53
199,143,48,54
198,143,48,53
197,143,48,53
196,142,48,53
195,141,47,52
194,140,48,52
193,140,47,52
192,139,47,51
192,139,46,51
190,138,47,51
190,137,46,51
189,137,46,50
188,135,46,50
187,135,46,50
186,135,45,50
185,134,45,50
184,134,45,49
184,133,45,49
183,132,45,49
182,132,44,48
181,131,44,48
180,131,44,48
179,130,44,48
179,129,44,48
178,129,43,47
177,128,43,47
176,127,43,47
176,127,43,47
175,126,42,46
174,126,43,46
173,125,42,46
172,125,42,46
171,124,42,45
170,124,41,45
170,123,41,45
169,123,41,45
167,122,41,44
167,121,41,45
167,121,41,44
166,120,39,44
165,120,39,44
164,119,39,43
163,118,39,43
163,118,39,43
162,117,39,43
162,117,39,43
161,116,39,42
159,115,39,42
159,115,39,41
159,115,38,42
158,114,38,41
157,113,38,41
156,113,38,41
156,112,38,41
155,112,38,41
155,112,37,39
153,111,37,39
153,110,37,39
153,110,37,39
152,110,37,39
152,109,37,39
151,109,36,39
150,108,36,39
149,108,35,39
148,107,36,39
148,107,35,38
147,106,35,38
147,106,35,38
146,105,35,38
146,105,35,38
144,103,35,38
143,103,35,37
143,103,34,37
143,103,34,37
142,103,34,36
142,102,34,36
141,102,34,36
140,101,33,36
140,101,33,35
139,100,33,36
138,100,33,35
138,99,33,35
137,99,33,35
137,99,33,35
135,98,32,35
135,98,33,35
135,97,31,34
134,97,31,35
134,96,31,34
133,96,31,34
132,96,31,34
132,95,31,34
131,95,31,33
131,95,31,33
131,94,31,33
130,93,30,33
129,93,31,33
129,93,30,33
128,92,30,32
127,92,30,32
127,91,30,31
127,91,30,32
126,91,30,31
126,91,30,31
125,90,30,31
124,90,30,31
124,89,29,31
123,89,29,31
123,89,29,31
122,88,29,31
122,88,28,30
121,87,28,30
121,87,28,30
120,87,28,30
120,86,28,30
120,86,28,30
119,85,28,29
118,85,28,29
118,85,28,29
117,84,28,29
117,84,27,29
117,83,27,29
116,83,27,29
115,83,27,29
115,83,27,29
114,82,27,28
114,82,27,28
114,81,26,28
149,81,26,28
147,81,26,28
147,80,26,28
146,80,25,27
145,79,25,27
144,79,25,27
143,79,25,27
143,79,25,27
142,78,25,27
142,78,25,27
141,78,25,27
140,78,25,26
140,77,24,26
139,77,24,26
138,77,24,26
137,76,24,26
137,76,24,26
135,76,24,26
135,75,24,25
135,75,24,25
134,75,24,25
134,74,24,25
133,74,24,25
132,74,24,25
131,73,23,24
131,73,24,24
130,73,23,24
130,71,23,24
129,71,23,24
128,71,23,24
127,71,23,24
127,71,22,24
126,71,22,24
126,71,22,24
125,70,22,24
125,70,22,23
124,70,22,24
169,69,22,24
167,69,22,23
167,69,21,23
166,69,22,23
165,69,21,23
164,67,21,22
163,67,21,22
163,67,21,22
162,67,21,22
161,67,21,22
159,66,21,22
159,66,20,22
159,66,20,22
158,66,20,21
157,65,20,21
156,65,20,21
156,65,19,21
155,64,20,21
154,64,19,21
153,64,19,21
153,63,19,21
152,63,19,21
152,63,19,21
150,63,19,20
157,63,19,20
214,62,19,21
211,62,19,20
211,62,19,19
209,62,18,20
207,61,18,20
207,61,19,19
206,61,18,19
204,60,18,19
204,61,18,19
203,60,18,19
201,60,18,19
199,60,18,19
199,59,18,19
198,59,18,19
197,59,18,19
196,58,18,19
195,58,17,18
194,58,17,18
194,58,17,19
192,57,17,18
192,57,17,18
191,57,17,18
190,57,17,18
189,56,17,18
188,56,17,18
187,56,17,18
186,56,16,18
185,56,16,17
184,55,16,17
183,56,16,17
183,55,16,17
181,55,16,17
181,55,16,17
179,54,15,17
179,54,15,17
178,54,15,17
177,53,15,16
176,53,15,16
176,53,15,16
175,53,15,16
174,53,15,16
173,53,15,16
172,52,15,16
171,52,15,16
171,51,15,15
170,51,15,16
169,51,15,15
167,51,15,15
167,51,14,16
196,51,15,15
195,51,14,15
193,50,14,15
193,50,14,15
191,50,14,15
190,50,14,15
190,50,14,15
188,49,14,15
187,49,14,15
187,49,13,15
185,49,14,15
184,49,13,14
184,48,13,15
183,48,13,15
182,48,13,14
181,48,13,14
179,48,13,14
179,47,13,14
178,47,13,14
177,47,13,14
176,47,13,14
176,47,13,14
175,46,13,14
174,46,12,14
173,46,12,14
172,46,12,14
172,46,12,13
171,45,12,13
169,45,12,13
169,45,12,13
167,46,12,13
167,46,12,13
167,46,12,13
166,45,12,13
165,45,12,13
163,45,12,13
163,45,12,13
163,44,12,13
162,44,12,13
161,44,11,13
159,44,12,12
159,44,11,12
159,44,12,12
158,44,11,12
158,43,11,12
156,43,11,12
156,43,11,12
155,43,11,12
154,43,11,12
154,42,11,12
153,42,11,12
152,41,10,12
152,42,10,12
151,42,11,12
150,43,10,12
150,42,10,12
149,42,10,12
148,42,10,11
147,42,10,12
147,41,10,11
146,41,10,11
145,41,10,11
145,41,10,11
144,41,9,11
143,41,9,11
143,40,10,11
142,39,9,11
142,42,9,11
141,43,9,11
141,43,9,11
140,42,9,11
140,43,9,11
139,42,9,10
138,41,9,11
137,41,9,10
137,41,9,10
135,41,9,10
135,41,9,10
135,39,9,10
135,40,9,10
135,46,9,10
134,46,8,10
133,46,9,10
132,46,7,10
131,45,8,10
131,45,9,10
130,45,8,9
130,44,7,9
130,44,7,10
129,44,7,9
129,44,7,9
128,43,7,9
127,43,7,9
127,43,7,9
126,50,7,9
126,50,7,9
125,49,7,9
125,49,7,10
124,49,7,9
124,49,7,9
124,48,7,9
123,48,7,9
123,48,7,9
122,48,7,8
122,48,7,9
121,48,7,9
121,47,7,8
120,57,7,9
120,57,7,7
119,57,7,7
119,56,7,9
118,56,7,9
118,56,7,7
117,56,7,7
117,56,7,7
143,56,7,7
204,55,7,7
201,55,7,7
199,54,7,7
199,54,7,7
198,54,7,7
197,58,7,7
196,59,7,7
195,59,7,7
194,58,6,7
193,58,6,7
193,57,6,7
192,57,7,7
191,57,6,7
190,57,6,7
189,57,6,7
188,56,6,7
187,56,6,7
186,56,6,7
185,55,6,7
185,67,6,7
184,67,6,7
183,67,6,7
182,66,6,7
181,66,6,7
180,65,6,7
179,65,6,7
179,65,6,7
178,65,6,7
177,64,6,7
176,63,5,7
176,63,6,7
175,63,5,7
174,63,5,7
174,66,6,7
173,66,5,7
172,65,5,6
171,65,5,6
171,64,5,7
169,64,5,7
169,63,5,6
167,63,5,6
167,63,5,6
167,63,5,6
166,63,5,6
166,63,5,7
165,62,5,6
164,62,5,6
163,65,5,6
163,65,5,6
162,65,5,6
161,64,5,6
161,63,5,7
159,63,4,6
159,63,5,6
159,63,5,6
158,62,4,6
158,62,4,6
157,62,4,5
156,62,4,6
155,61,4,6
155,61,4,6
154,73,4,6
153,73,4,5
153,73,4,5
152,71,4,6
152,71,4,6
151,71,4,5
151,71,4,5
150,71,4,5
149,70,4,5
149,70,4,6
147,70,4,5
147,70,4,5
147,69,4,5
146,69,4,5
145,70,4,5
145,69,3,5
144,69,3,5
143,68,4,5
143,68,3,5
143,68,3,5
142,67,4,5
141,67,3,5
141,67,3,5
140,67,3,5
140,66,3,5
139,66,3,6
139,66,3,5
138,67,3,5
137,67,3,4
137,67,3,5
135,66,3,5
135,66,3,5
135,66,3,5
135,65,3,4
134,65,3,4
134,65,3,4
133,65,3,5
133,64,3,5
132,63,3,4
131,63,3,4
131,63,3,4
130,68,3,4
129,67,3,4
129,67,3,4
129,67,3,4
128,67,3,4
127,66,3,4
127,66,3,4
127,66,3,4
127,66,3,4
126,65,3,4
126,65,3,4
125,65,3,4
125,64,3,3
124,63,3,4
124,63,3,4
123,63,3,3
123,63,3,3
122,63,3,3
121,63,3,4
121,62,2,3
