17,79,5,22
16,79,5,21
16,79,5,22
16,78,4,22
16,78,5,22
16,78,4,21
16,78,4,22
15,77,4,21
16,78,4,21
16,78,4,21
15,77,4,21
16,77,4,21
15,77,4,20
15,76,4,21
15,76,4,21
15,76,4,20
15,75,4,26
15,75,3,29
15,74,3,28
15,74,4,29
15,74,4,28
15,73,3,28
15,73,3,28
15,73,3,28
15,73,3,28
14,71,3,27
14,71,3,27
14,71,3,28
14,71,3,27
15,71,3,27
14,71,3,27
15,71,3,26
15,70,3,27
14,70,3,27
14,69,3,26
14,69,3,26
14,83,4,26
14,83,3,26
14,83,3,25
14,82,3,25
14,81,3,25
14,81,3,25
14,81,3,25
14,80,3,25
13,80,3,24
14,79,3,25
13,79,3,25
13,79,3,24
13,79,3,24
13,80,3,24
13,81,3,24
13,81,3,24
13,81,3,24
13,80,3,24
12,79,3,24
12,79,3,24
13,79,3,23
13,78,3,23
12,78,3,23
13,78,3,23
13,78,3,23
13,77,3,22
13,77,3,22
13,99,3,23
13,102,3,22
13,102,3,22
13,101,3,22
13,100,3,22
12,100,3,22
12,99,3,22
12,99,3,21
12,98,3,21
12,98,2,21
12,97,3,21
12,97,3,21
12,96,3,21
12,96,3,21
12,96,3,21
12,95,3,20
12,94,3,21
12,94,3,20
12,94,2,20
12,93,3,20
12,93,3,19
12,92,3,20
11,92,3,19
12,92,2,19
12,91,3,19
12,91,3,19
12,90,3,19
12,90,2,19
12,90,3,19
12,89,2,19
12,89,2,19
12,89,2,19
12,88,2,19
12,88,3,19
11,88,2,19
11,87,3,18
11,87,2,18
13,86,3,18
13,86,3,18
13,85,2,18
13,85,3,18
13,85,3,18
13,84,2,18
13,84,2,18
13,83,2,17
13,83,2,18
12,83,2,17
13,82,2,17
12,82,2,17
12,82,3,17
12,81,2,17
13,81,2,17
13,80,2,17
13,80,2,17
13,79,2,17
12,99,2,17
13,99,2,17
13,98,2,16
12,97,2,16
12,97,2,16
12,97,2,16
12,96,2,16
12,96,2,16
12,95,2,16
13,95,2,16
14,94,2,15
14,94,2,16
14,93,2,15
14,93,2,15
14,112,2,16
14,111,2,15
14,110,2,15
14,109,2,15
13,109,2,15
14,108,2,15
13,108,2,15
13,107,3,15
13,107,3,15
14,106,3,17
14,105,3,18
14,105,3,17
14,103,3,17
13,103,3,17
14,103,3,17
13,103,3,17
13,103,3,17
13,102,3,17
13,102,3,17
13,101,2,16
13,100,3,16
13,100,3,16
18,99,3,19
18,99,3,19
18,99,3,19
17,98,3,19
17,98,3,19
17,98,3,19
17,97,3,19
17,97,3,18
17,96,3,19
16,96,3,19
16,96,3,19
17,95,3,19
16,95,3,19
16,94,3,18
17,94,3,18
17,93,3,18
17,93,3,80
17,93,3,172
17,124,3,207
16,126,2,205
17,125,3,204
16,124,3,202
16,124,3,201
16,123,2,199
16,122,3,199
16,121,3,197
24,121,3,196
42,120,3,195
42,120,3,194
41,119,2,193
41,118,3,192
41,118,2,192
41,117,2,190
39,116,2,189
39,116,3,188
39,115,3,188
39,115,10,187
39,114,12,185
39,114,11,185
39,113,11,184
39,112,11,183
38,112,11,182
38,111,11,205
38,111,11,301
38,110,11,354
37,109,10,351
37,109,10,348
37,108,10,345
37,108,11,344
36,107,46,342
36,107,79,339
44,106,78,337
48,105,77,380
48,105,77,376
47,105,76,374
47,103,75,371
47,103,75,368
46,103,75,367
46,102,74,364
46,102,74,362
46,101,73,359
45,100,73,358
45,184,71,356
44,263,71,353
44,262,71,352
44,259,71,349
44,258,71,348
44,255,70,345
44,254,70,344
43,253,70,345
43,252,69,343
42,250,69,341
42,249,69,339
145,248,71,337
187,246,71,335
187,244,70,333
185,243,69,331
184,241,70,329
183,240,69,327
182,239,69,453
181,237,68,542
179,236,67,536
178,235,67,531
178,233,67,526
176,231,67,523
176,231,66,519
175,322,66,514
174,428,66,510
172,590,65,507
172,732,65,503
171,734,64,499
170,724,63,495
169,718,63,492
167,710,63,487
169,704,63,485
167,696,62,481
167,689,62,478
166,684,62,475
165,677,61,472
163,671,61,515
163,851,61,509
163,907,60,505
161,911,60,502
161,907,60,497
159,893,60,494
159,880,59,491
158,871,59,487
158,860,58,483
157,849,58,480
156,841,58,477
155,831,57,473
154,824,57,471
153,814,57,467
152,805,57,463
152,798,56,461
151,789,56,458
150,782,56,455
149,774,55,452
148,765,75,450
148,759,126,447
147,751,125,443
146,743,124,440
145,737,123,438
145,729,122,435
143,721,135,432
143,715,155,429
142,709,153,426
142,702,152,423
141,696,151,421
140,688,150,476
139,683,149,537
138,677,148,534
138,671,147,528
137,664,147,524
135,658,145,519
135,654,145,516
135,647,143,511
134,641,143,507
134,636,150,551
133,632,155,687
132,626,153,871
131,620,153,896
130,615,152,881
130,611,152,871
129,605,151,860
129,639,150,850
127,710,150,839
127,704,148,831
127,696,147,822
125,688,147,813
125,681,170,803
125,675,287,795
124,669,404,787
123,663,550,780
123,655,575,887
122,651,569,907
121,644,563,911
121,638,558,915
120,632,554,917
120,627,549,915
119,621,544,906
118,615,540,886
118,609,537,875
117,604,531,864
116,600,527,856
115,595,524,845
115,590,520,883
114,585,516,907
113,581,512,911
113,575,508,915
112,572,505,915
112,567,502,907
112,563,498,890
111,559,494,878
110,555,491,867
110,550,487,857
109,547,483,849
109,542,480,839
108,538,477,829
121,534,475,819
162,531,472,811
197,527,468,804
287,523,465,795
284,519,462,831
281,515,459,820
280,511,455,813
278,508,453,803
275,671,450,794
274,667,448,785
271,660,444,779
271,653,441,771
269,647,440,763
268,639,437,755
387,636,433,861
382,630,431,880
379,623,428,868
376,617,426,857
372,755,423,850
370,882,420,839
368,870,418,847
365,858,415,838
363,850,412,830
359,839,410,821
358,829,408,811
355,819,406,801
353,812,403,795
351,803,399,786
348,793,398,777
347,783,396,769
344,777,393,761
342,769,391,755
340,760,388,747
338,752,387,739
335,745,384,732
334,738,382,727
332,730,380,719
330,723,377,782
327,717,376,879
326,710,373,870
323,703,371,859
322,696,369,847
319,689,368,838
318,684,365,830
316,677,363,821
315,671,361,811
341,664,359,802
338,659,357,795
336,653,355,786
334,647,353,777
332,641,351,769
329,637,349,763
327,632,347,755
325,625,345,747
323,620,344,739
321,615,342,734
319,610,339,726
317,605,337,719
316,600,335,711
313,595,334,705
312,591,332,700
310,585,330,693
307,581,329,687
306,577,327,679
304,572,325,675
303,568,323,669
301,563,322,664
299,560,319,657
297,555,318,652
295,551,316,647
295,546,315,641
292,542,313,636
291,538,312,632
289,534,310,626
287,530,309,620
286,526,307,615
284,523,305,611
283,519,304,606
281,515,303,601
280,511,301,596
278,508,299,592
276,504,297,588
275,500,295,583
273,496,295,579
271,494,293,575
271,489,291,570
269,487,290,566
268,483,288,561
266,480,287,557
263,477,286,554
263,473,284,550
262,470,283,545
260,467,281,542
259,463,280,538
257,461,278,534
255,457,277,530
255,455,275,526
254,452,274,524
252,449,272,519
251,446,271,515
249,443,270,512
248,440,268,508
247,438,268,505
246,435,266,502
243,432,263,498
243,430,263,495
242,427,262,492
240,423,261,487
239,421,259,485
238,419,258,482
237,415,257,479
236,414,255,476
234,411,254,472
233,409,253,469
231,406,252,467
230,403,250,463
229,401,249,461
227,399,248,457
227,396,247,455
226,394,245,452
224,391,244,449
224,390,243,446
222,387,242,444
221,385,241,441
220,382,240,439
219,380,238,435
217,378,237,433
217,376,236,431
216,374,235,429
215,371,234,427
214,369,233,439
212,368,231,606
211,365,231,599
210,363,229,593
209,361,228,588
207,359,227,583
207,357,226,578
206,355,225,573
205,353,224,569
204,383,223,564
203,561,222,559
202,657,221,554
201,652,220,550
199,644,219,546
199,638,217,542
198,632,217,537
197,627,216,532
196,620,215,529
195,615,308,525
194,608,330,521
193,604,327,517
192,599,325,513
191,593,323,509
190,588,321,505
189,583,318,502
188,579,316,499
187,574,314,495
187,568,313,491
185,563,311,487
185,560,308,484
184,555,307,481
183,551,305,477
182,546,303,473
181,542,301,472
180,538,299,467
179,533,298,465
179,529,295,461
177,526,294,459
233,521,293,455
368,518,291,452
423,513,289,449
419,510,287,446
415,505,286,444
413,502,284,441
410,498,283,438
407,495,281,435
404,491,280,432
401,487,278,430
399,483,277,427
396,481,275,423
393,478,273,422
391,474,271,419
388,471,270,415
385,467,269,414
383,464,267,412
380,461,265,409
378,457,263,407
376,454,263,404
373,451,261,402
371,448,259,399
368,445,259,397
366,442,257,395
364,440,255,393
361,437,254,391
359,433,253,388
357,431,251,385
355,428,250,384
353,425,248,382
350,422,248,379
399,419,246,377
396,417,244,375
393,414,243,373
391,412,242,371
387,409,241,369
419,407,239,367
423,404,238,365
421,401,237,363
418,399,236,361
415,397,235,359
412,394,233,357
409,391,231,355
407,389,231,353
403,465,230,352
467,606,228,350
615,684,227,348
608,675,226,345
601,668,225,344
596,663,224,342
591,655,222,340
585,650,294,339
581,643,438,337
575,639,595,335
572,632,775,333
567,626,831,332
562,620,820,329
558,615,811,327
553,610,801,326
549,604,792,324
545,599,785,323
541,595,777,321
537,589,768,319
533,583,760,318
567,579,754,316
750,575,747,315
891,570,739,313
908,565,732,312
905,560,726,310
891,556,719,307
879,551,711,307
869,547,705,305
859,543,700,304
849,538,694,302
839,536,687,301
830,531,681,299
822,527,676,297
813,522,671,295
804,519,664,295
796,515,659,293
787,511,655,291
780,507,649,291
772,504,643,289
765,499,638,287
796,496,633,286
902,492,627,284
910,489,623,283
914,486,617,281
918,482,613,280
920,478,609,279
921,476,604,278
923,472,599,276
924,469,594,275
925,465,591,274
926,463,586,272
927,460,582,271
927,455,577,270
927,453,573,268
927,450,569,267
924,447,564,266
906,444,560,263
885,441,557,263
875,438,553,262
865,435,549,261
855,432,545,259
846,429,542,258
837,426,537,257
828,423,534,255
819,422,530,254
811,419,527,253
803,415,524,252
795,414,519,251
787,411,515,249
779,408,513,249
771,405,509,248
764,403,505,247
757,401,502,245
750,398,499,243
742,396,496,243
735,393,492,241
729,391,489,240
723,388,486,240
716,386,483,238
709,384,480,237
703,382,477,236
697,379,473,235
691,376,472,233
685,375,468,233
679,372,465,231
673,370,462,231
668,368,460,230
662,365,457,228
656,364,454,227
651,361,451,227
646,359,449,225
639,357,446,224
635,355,443,224
630,353,440,222
625,351,438,221
620,349,435,220
615,347,432,219
610,345,430,218
606,344,428,217
601,341,425,216
597,339,422,216
591,337,419,215
588,335,417,213
583,334,415,212
579,332,412,211
575,330,410,211
571,327,408,210
566,326,406,209
562,325,403,207
558,323,400,207
554,321,398,206
550,319,396,204
546,318,394,204
542,316,391,203
539,314,389,202
535,312,387,201
531,311,385,199
527,309,383,199
524,307,381,198
519,306,379,197
517,304,376,196
513,303,375,196
509,301,372,195
506,300,371,194
503,297,368,193
499,295,367,192
496,295,364,192
492,293,362,191
489,291,361,190
486,290,359,189
483,288,356,188
480,287,355,187
477,286,353,186
473,284,351,185
471,283,349,184
468,281,347,184
465,280,345,183
462,279,344,182
459,277,342,181
455,275,339,181
454,274,339,179
451,272,337,179
448,271,335,178
445,270,333,177
442,268,332,176
440,267,329,176
437,266,327,175
434,263,326,174
432,263,324,173
429,262,323,173
427,261,321,172
423,259,319,171
422,258,318,171
419,256,316,169
417,255,315,169
414,254,313,167
412,252,312,167
409,252,310,167
407,250,307,166
405,248,307,166
402,248,305,164
399,246,304,163
398,245,302,163
395,243,300,162
393,243,299,161
391,241,298,161
388,240,295,159
386,239,294,159
384,238,293,159
382,237,291,158
380,236,290,158
377,235,289,157
376,233,287,157
374,231,286,156
371,231,284,155
369,230,283,154
367,229,281,153
365,227,280,153
363,226,280,152
361,225,278,152
359,224,275,151
357,223,275,150
355,222,273,150
353,221,271,149
352,220,271,148
350,219,269,147
348,218,268,147
345,217,267,146
344,216,265,146
342,215,263,145
340,214,263,143
339,213,262,143
337,211,260,143
335,211,259,142
333,209,258,142
332,209,257,141
329,207,255,141
327,207,254,140
327,206,253,139
324,205,252,139
323,204,250,138
321,203,249,137
319,202,248,137
318,201,248,135
316,199,246,135
315,199,244,135
313,198,243,135
312,197,242,134
310,196,241,133
308,195,240,133
306,194,239,132
305,194,238,131
304,193,237,131
302,192,236,130
300,191,234,130
299,190,233,129
297,189,231,129
295,188,231,128
294,187,230,127
293,186,229,127
291,185,227,126
290,185,227,126
287,184,225,125
287,183,225,125
286,182,224,124
284,181,223,124
283,180,221,124
281,179,221,123
280,179,220,123
278,178,219,122
277,177,217,121
275,176,216,121
274,175,216,120
273,174,215,120
271,174,214,120
270,173,213,119
269,172,211,118
268,171,211,118
266,171,209,117
265,170,209,116
263,169,207,116
262,167,207,115
261,167,206,115
259,167,205,115
258,166,204,114
257,165,203,114
255,165,202,113
254,163,201,113
253,163,200,112
252,162,199,112
251,161,198,111
249,161,198,111
248,159,197,110
248,159,195,110
246,158,195,109
245,158,194,109
243,157,193,108
242,156,192,108
241,156,191,108
240,155,190,107
239,154,189,107
238,153,189,106
236,153,188,105
236,152,187,105
235,152,187,105
233,151,185,103
231,150,184,103
231,150,184,103
230,149,183,103
229,147,182,103
227,147,181,102
227,147,180,101
226,146,179,101
224,145,179,101
224,145,178,100
222,143,177,99
222,143,176,99
221,143,176,99
220,142,175,98
219,142,174,98
218,141,173,98
217,140,173,97
216,140,172,97
215,139,171,96
214,139,171,96
213,137,169,96
211,137,169,95
211,137,167,95
210,135,167,94
209,135,167,94
207,135,166,94
207,134,166,94
206,134,165,93
205,133,164,93
204,133,163,93
204,132,162,92
203,131,162,92
201,131,161,91
201,130,160,91
199,130,161,91
199,129,163,90
198,129,162,89
197,127,161,89
196,127,159,89
195,127,159,88
195,126,159,88
194,126,158,88
193,125,158,88
192,125,157,87
192,124,156,87
190,124,156,87
190,123,155,86
189,123,154,86
188,122,153,85
187,121,152,85
187,121,152,85
185,121,152,84
185,120,151,84
184,120,150,83
183,119,149,83
182,118,149,83
182,118,147,82
181,117,147,82
179,117,147,81
179,117,146,81
178,116,146,81
177,115,145,81
177,115,144,80
177,114,143,79
175,114,143,79
174,113,143,79
174,113,142,79
173,112,142,79
172,112,141,78
172,112,140,78
171,111,140,78
170,111,139,78
169,110,139,77
167,110,138,77
167,109,137,76
167,109,137,76
167,108,135,76
166,108,135,76
165,107,135,75
164,107,135,75
163,107,134,75
163,106,133,74
162,105,133,74
161,105,131,73
161,103,132,73
159,103,131,73
159,103,131,73
158,103,130,71
158,103,129,71
158,102,129,71
156,102,128,71
156,101,127,71
155,101,127,71
155,101,127,70
154,99,126,70
153,99,126,70
153,99,125,70
152,99,125,69
152,98,124,69
151,98,124,69
151,97,123,68
150,97,123,68
149,97,122,68
148,97,121,68
148,96,121,67
147,96,121,67
147,96,120,67
146,95,120,67
145,94,120,66
145,94,119,66
143,94,118,66
143,93,118,66
143,93,117,65
142,93,117,65
142,92,116,110
142,92,116,175
141,92,115,173
140,91,115,171
140,91,114,169
139,90,114,167
139,90,113,167
138,89,113,167
137,89,112,166
135,89,112,165
135,88,111,163
135,88,111,163
135,88,111,162
134,88,110,161
134,87,110,160
133,86,109,159
133,86,109,159
132,86,108,158
131,86,108,157
131,85,107,156
130,85,107,156
130,84,107,155
129,84,106,153
128,83,105,153
128,83,105,152
127,83,105,151
127,83,103,150
126,82,103,149
126,81,103,149
125,81,103,148
125,81,103,147
124,81,102,146
124,80,102,146
123,80,101,145
123,79,101,144
122,79,101,143
121,79,100,143
121,79,99,142
121,78,99,141
120,78,99,210
120,77,99,339
120,77,98,341
119,77,97,337
118,77,97,335
118,76,97,333
117,76,96,331
116,76,96,329
116,75,96,327
115,75,96,325
115,75,95,323
114,75,94,320
114,74,94,319
114,74,94,317
113,73,93,316
113,73,93,313
112,73,93,312
112,94,92,311
112,93,92,309
111,92,92,307
111,92,91,305
110,92,125,304
110,91,219,302
110,91,348,300
109,89,415,298
109,89,419,295
108,88,415,295
108,88,413,293
107,88,410,292
107,88,408,290
106,87,404,289
105,86,401,287
105,86,399,286
105,86,397,284
104,84,394,283
103,85,391,281
103,83,389,280
103,83,387,278
103,83,384,276
102,82,382,275
102,82,380,273
101,82,377,271
101,81,376,270
100,81,372,269
100,80,371,268
99,79,368,266
99,79,367,265
99,79,365,263
98,79,362,263
98,78,359,261
98,78,358,259
97,78,356,258
97,77,354,257
97,77,352,255
96,76,351,254
96,76,349,253
95,76,347,252
95,75,345,251
95,75,344,249
94,75,342,248
94,74,339,248
93,74,338,246
93,73,335,245
93,73,334,243
92,73,332,243
92,71,331,241
92,71,329,240
91,71,327,239
90,71,326,238
90,71,323,237
90,71,322,235
89,70,321,235
89,70,319,233
89,70,318,231
88,70,316,231
88,69,315,230
88,69,312,229
88,68,312,228
88,68,310,227
87,67,307,226
86,67,306,225
86,67,305,224
86,67,304,222
85,67,302,222
85,67,300,221
85,66,299,220
84,66,297,219
84,66,295,217
83,65,294,216
83,65,293,216
83,65,291,215
83,65,290,214
82,64,289,212
82,64,287,211
82,63,286,211
81,63,284,210
81,63,283,209
80,63,281,207
80,63,280,207
79,62,280,206
79,62,278,205
79,62,276,204
79,62,275,203
79,61,273,202
78,61,272,201
78,61,271,199
78,61,270,199
77,60,268,199
77,60,267,198
77,60,265,197
76,60,263,195
76,59,263,195
76,59,262,194
76,59,261,194
75,59,260,192
75,59,259,192
75,58,257,191
74,57,255,190
74,57,255,189
73,57,253,188
73,57,252,187
73,57,251,187
72,57,250,185
71,56,249,185
71,56,248,184
71,56,247,183
71,56,246,182
71,56,243,182
71,55,243,181
70,55,242,179
70,55,241,179
70,54,240,178
70,54,239,177
69,54,238,177
69,54,237,176
69,54,236,175
68,53,234,174
68,53,233,174
67,53,231,173
68,52,231,172
67,52,230,172
67,52,229,171
67,51,228,170
67,51,227,169
66,51,226,167
66,51,225,167
66,51,224,167
65,51,223,166
65,51,222,166
65,50,221,164
65,50,220,163
64,50,219,163
63,49,218,163
63,49,217,162
63,49,216,161
63,49,215,160
63,49,215,159
63,48,213,159
63,48,212,159
62,48,211,158
62,48,211,157
62,48,209,156
61,47,208,156
61,47,207,155
61,47,207,154
61,47,206,153
60,47,205,153
60,46,204,152
60,46,203,152
60,46,202,152
60,46,201,151
59,46,199,150
59,46,199,149
59,45,199,148
59,45,198,148
58,45,197,147
58,45,195,146
57,44,195,146
57,44,194,145
57,44,193,144
57,44,192,144
56,44,192,143
56,44,191,143
56,44,190,142
56,43,189,142
56,43,188,141
56,43,188,141
56,42,187,140
55,42,186,139
55,42,185,139
55,41,184,138
54,42,184,137
54,41,183,137
54,41,182,135
54,41,181,135
53,41,181,135
53,41,179,135
53,41,179,134
53,39,178,134
53,39,177,133
52,39,177,132
51,39,176,132
51,39,175,131
51,39,174,131
51,39,174,130
51,39,173,130
51,39,172,129
50,39,171,128
51,39,170,127
50,38,170,127
50,38,169,127
50,38,167,126
49,38,167,125
49,38,167,125
49,38,167,125
49,38,165,124
49,37,165,124
48,37,164,123
48,37,163,123
48,37,163,122
48,37,162,121
48,36,161,121
48,36,161,120
48,36,159,120
47,36,159,120
47,36,158,119
46,35,158,118
46,35,157,118
46,35,157,117
46,35,156,117
46,35,155,116
46,35,155,116
45,34,154,115
45,34,153,115
45,34,153,114
45,34,152,114
44,34,152,114
44,34,151,113
44,34,150,113
44,33,149,112
44,33,149,112
44,33,148,111
44,33,147,111
43,33,147,110
43,32,146,110
43,33,146,109
43,32,145,109
43,32,144,108
42,32,143,108
42,32,143,108
42,31,143,107
42,31,142,107
41,31,142,106
41,31,141,105
41,31,140,105
41,31,140,105
41,31,139,103
40,31,139,103
39,31,138,103
40,31,137,103
39,30,137,103
39,30,135,102
39,30,135,102
39,30,135,101
39,30,135,101
39,30,134,100
39,29,133,100
39,29,133,99
39,29,133,99
38,29,131,99
38,29,131,98
38,29,131,98
38,29,130,98
38,29,129,97
38,28,129,97
37,28,129,96
38,28,128,96
37,28,127,96
37,28,127,96
37,28,126,95
37,28,126,94
37,28,126,94
36,28,125,94
36,27,124,93
36,27,124,93
36,27,123,93
35,27,123,92
35,27,123,92
35,27,122,91
35,27,121,91
35,27,121,91
35,26,121,90
35,26,120,90
35,26,120,90
35,26,120,89
35,26,119,89
34,26,119,89
34,25,118,88
34,25,117,88
34,25,117,88
34,25,116,88
34,25,116,87
33,25,115,87
33,25,115,87
33,25,115,86
33,25,114,86
33,25,114,85
32,24,113,84
32,24,112,84
32,24,112,84
32,24,112,84
32,24,112,83
31,24,111,83
31,24,110,83
31,24,110,83
31,24,110,82
31,24,109,82
31,23,109,82
31,23,109,81
31,24,108,81
31,23,108,81
30,23,107,79
30,22,107,79
31,22,106,79
30,22,105,79
30,22,105,79
30,22,105,79
30,22,103,78
30,22,103,78
30,22,103,77
29,22,103,78
29,22,103,77
29,21,102,77
29,22,102,76
29,21,102,76
29,21,101,76
29,21,100,76
28,21,101,75
28,21,100,75
28,20,99,75
28,21,99,75
28,21,99,74
28,20,98,74
28,20,98,73
28,20,97,73
28,20,97,73
28,20,97,73
27,20,97,71
27,19,96,71
27,20,96,71
27,19,96,71
27,19,96,71
27,19,95,71
27,19,94,71
26,19,94,70
26,19,94,71
26,19,93,70
26,19,93,70
26,19,93,69
26,19,93,69
25,19,92,69
25,19,92,69
25,18,92,69
25,19,91,68
25,18,91,68
25,18,91,67
25,18,90,67
25,18,90,67
25,18,89,67
25,18,89,67
24,18,89,66
24,18,88,66
24,18,88,66
24,18,88,65
24,17,88,65
24,18,87,65
24,17,87,65
24,18,86,65
24,17,86,64
24,17,86,64
24,17,86,64
24,17,85,63
24,17,85,63
23,17,85,63
24,17,84,63
23,16,84,63
23,17,83,62
23,16,83,62
23,16,83,62
23,16,83,62
22,16,82,62
22,16,82,61
22,16,82,61
22,16,82,60
22,16,81,61
22,15,81,60
22,15,80,60
22,15,80,60
22,16,80,60
21,15,79,60
21,15,79,59
21,15,79,59
21,15,79,59
21,15,79,59
21,15,78,58
21,15,78,58
21,15,78,58
21,15,78,58
21,15,77,57
20,15,77,57
20,14,77,57
20,14,76,57
20,14,76,57
20,14,76,57
19,14,76,56
20,14,75,56
19,14,75,56
19,14,75,56
19,14,75,55
19,14,74,56
19,14,73,55
19,14,73,55
19,14,73,55
19,14,73,55
19,14,73,55
19,14,71,54
19,13,71,54
19,13,71,54
19,13,71,53
19,13,71,53
19,13,71,53
19,13,71,53
18,13,71,53
18,13,70,52
18,13,70,52
18,13,70,52
18,13,69,51
18,13,69,51
18,13,69,51
18,13,69,51
18,13,69,51
18,12,68,51
17,12,68,51
18,12,68,51
17,12,67,50
17,12,67,50
17,12,67,50
17,12,67,49
17,12,66,49
17,12,66,49
17,12,66,49
17,12,65,49
17,12,65,49
16,12,65,49
16,11,65,48
16,12,65,48
16,11,65,48
16,11,64,48
16,11,64,48
16,11,63,47
16,11,63,47
15,11,63,47
16,11,63,47
15,11,63,47
15,11,63,47
15,11,62,46
15,11,62,46
15,11,62,46
15,10,62,46
15,11,61,46
15,11,61,45
15,10,61,45
15,10,60,45
15,10,60,45
15,10,60,45
15,11,60,45
15,10,60,45
14,10,60,44
15,10,59,44
15,10,59,44
14,10,59,44
14,10,59,44
14,10,58,44
14,10,58,44
14,10,58,44
14,9,58,43
14,9,57,43
14,9,57,43
14,9,57,43
13,9,57,42
13,9,56,42
14,9,56,42
14,9,56,42
13,9,56,42
13,9,56,41
14,9,56,41
13,9,56,41
13,9,55,41
13,9,55,41
13,9,55,41
13,9,55,40
13,9,55,39
13,9,54,39
13,9,54,39
13,9,54,39
13,9,54,39
12,8,54,39
12,9,53,39
13,9,53,39
12,7,53,39
12,8,53,39
12,7,52,39
12,7,52,39
12,8,52,39
12,7,52,39
12,7,52,38
12,7,51,38
12,7,51,38
12,7,51,38
12,7,51,38
12,7,51,38
12,7,50,37
12,9,50,37
12,9,50,37
11,9,50,37
12,9,50,37
12,9,50,37
12,9,49,37
11,9,49,37
12,9,49,36
11,9,49,36
11,9,49,36
11,9,49,36
11,9,49,36
11,9,48,35
10,9,48,35
11,9,48,35
11,9,48,35
11,9,48,35
11,9,48,35
11,8,47,35
11,7,47,35
10,7,47,35
11,7,47,35
10,8,47,35
10,7,46,34
10,7,46,34
10,7,46,34
10,7,46,34
10,7,46,34
10,10,45,33
10,10,45,34
9,10,45,33
10,9,45,33
10,10,45,33
9,9,44,33
9,9,44,33
9,9,44,33
9,9,44,33
9,9,44,32
9,9,44,32
9,9,44,32
9,9,44,32
9,9,44,31
9,10,43,31
9,10,43,31
9,10,43,31
9,10,42,31
9,10,43,31
9,10,43,31
9,10,42,31
8,9,42,31
9,9,42,31
9,10,42,31
7,9,42,31
9,9,41,31
9,9,41,30
8,9,41,30
8,12,41,30
8,12,41,30
9,12,41,30
7,12,39,30
7,12,40,30
7,12,39,30
7,12,39,29
8,12,39,30
8,12,39,29
7,12,39,29
7,12,39,29
7,12,39,29
7,11,39,29
7,11,39,29
7,20,39,28
7,19,39,28
7,19,39,28
7,19,38,28
7,19,39,28
7,19,38,28
7,19,38,28
7,19,38,28
7,19,38,28
7,19,37,28
7,19,38,27
7,18,37,27
7,18,37,27
7,18,37,27
7,18,37,27
7,18,37,27
7,18,37,27
7,18,36,26
7,18,36,27
7,18,36,27
7,17,36,27
7,17,36,26
7,17,35,26
7,17,35,26
7,17,35,26
7,17,35,26
7,16,35,26
6,16,35,25
7,17,35,25
6,17,35,25
6,16,34,25
6,16,35,25
6,16,35,25
7,16,34,25
6,16,34,25
6,16,34,24
6,16,34,24
7,15,34,25
6,15,33,24
6,15,33,24
6,15,33,24
6,15,33,24
6,15,33,24
6,15,33,24
6,15,33,24
6,15,33,24
6,15,33,24
6,15,32,24
6,14,32,24
6,15,31,24
6,14,32,24
6,14,31,24
6,14,31,23
6,14,31,24
6,14,31,24
6,14,31,23
6,14,31,23
6,14,31,23
6,14,31,22
6,14,30,22
5,13,31,22
5,14,30,22
5,13,30,22
5,14,30,22
5,13,30,22
5,13,30,22
5,13,30,21
5,13,30,22
5,13,30,22
5,13,30,22
5,13,29,21
5,13,29,21
5,13,29,21
5,13,29,21
5,13,29,21
5,12,29,21
5,13,29,21
5,12,29,21
5,12,29,20
5,12,28,21
5,12,28,20
5,12,28,21
5,12,28,20
5,14,28,20
5,14,28,20
4,14,28,20
4,13,28,20
4,13,27,19
4,13,28,20
4,13,27,19
4,13,27,19
5,13,27,19
4,13,27,19
4,13,27,19
4,12,26,19
4,13,27,19
4,13,26,19
4,13,27,19
4,13,26,19
4,13,26,19
4,13,26,19
4,13,26,19
4,13,26,18
4,13,25,18
4,13,25,18
4,13,25,19
4,12,25,18
4,12,25,18
3,13,25,18
3,12,25,18
3,12,25,18
3,13,25,18
3,14,25,18
3,13,25,17
3,13,24,18
3,13,24,18
3,13,24,17
3,13,24,17
3,12,24,17
3,12,24,17
3,12,24,17
3,12,24,17
3,12,24,17
3,12,24,17
3,12,24,17
3,12,24,17
3,12,24,16
3,12,24,17
3,12,24,17
3,12,24,16
3,12,22,17
3,12,23,16
3,11,23,16
3,12,23,16
3,11,22,15
3,11,22,16
3,12,22,16
3,11,22,16
3,11,22,15
3,11,22,15
3,11,22,15
3,11,22,15
3,11,22,15
3,11,21,15
3,11,21,15
3,11,21,15
3,11,21,15
3,11,21,15
3,10,21,15
3,10,21,15
3,10,21,15
2,10,21,15
3,10,20,15
3,10,21,14
3,10,20,15
3,10,20,14
3,10,20,14
3,9,20,14
3,9,20,14
2,10,20,14
3,9,20,14
3,9,19,14
3,9,19,14
3,9,19,14
2,9,19,14
3,9,19,14
2,15,19,14
2,17,19,14
2,17,19,14
2,17,19,14
3,17,19,13
2,17,19,13
2,16,19,13
2,16,19,13
2,16,19,13
2,16,19,13
2,16,18,13
2,16,18,13
2,16,18,13
2,16,18,13
2,17,18,13
2,17,18,13
2,17,18,13
2,17,18,13
2,17,18,12
2,17,17,12
2,17,18,12
2,16,17,12
2,16,18,12
2,16,17,12
2,16,17,12
2,16,17,12
2,16,17,12
2,16,17,12
2,27,17,12
2,26,17,13
2,26,17,12
2,25,16,12
2,25,17,12
2,25,17,12
2,25,16,12
2,25,16,12
1,25,16,12
2,25,16,12
1,24,16,11
2,25,16,12
2,24,15,12
2,24,16,11
1,26,15,12
2,26,16,11
1,27,15,11
2,26,15,12
2,26,15,11
2,25,15,11
2,25,15,11
1,25,15,11
1,25,15,11
1,25,15,11
2,25,15,10
1,25,15,11
1,25,15,11
1,24,15,11
1,38,15,11
1,37,15,10
1,37,14,10
1,37,15,10
2,36,15,10
1,36,14,10
1,36,14,10
1,35,14,10
1,35,14,11
1,35,14,10
1,35,14,10
1,35,14,10
1,35,14,9
2,34,14,10
1,34,14,10
1,35,14,9
1,35,14,9
2,35,14,9
1,34,14,9
1,34,14,9
1,34,14,9
