50,123,3,32
50,122,3,32
50,121,3,32
49,121,3,32
49,121,3,31
49,120,3,31
49,120,3,31
53,120,3,31
54,118,3,31
54,118,3,31
53,117,3,31
53,117,3,31
52,116,3,30
52,115,3,30
52,115,3,30
51,115,3,30
51,114,3,30
51,113,3,30
51,113,3,30
51,123,3,30
52,139,3,29
59,137,3,29
58,135,3,29
57,135,3,29
57,135,3,29
57,134,3,28
56,134,3,28
56,133,3,30
56,132,3,29
56,131,3,29
56,131,2,29
55,130,2,29
55,130,3,29
55,129,3,28
63,128,2,28
63,127,2,28
62,127,2,28
62,127,2,28
61,126,2,28
61,126,2,28
61,125,2,28
61,124,2,27
60,124,2,27
60,123,2,27
60,123,2,27
59,122,2,27
60,121,2,27
60,121,2,26
60,120,2,27
60,120,2,26
59,120,2,26
59,119,2,26
59,118,2,26
59,118,2,26
58,117,2,38
58,117,2,37
57,116,2,37
57,115,2,37
57,115,2,37
57,115,2,37
59,115,2,37
59,114,2,36
59,114,2,36
58,113,2,35
58,113,1,35
57,112,1,35
57,112,2,35
57,111,1,35
57,111,1,35
57,111,1,35
56,110,2,35
56,110,1,34
56,109,2,35
59,108,2,34
59,108,1,34
59,108,1,34
58,107,2,33
58,106,1,33
57,106,1,33
57,105,1,33
57,105,1,33
57,103,1,33
57,103,1,33
56,103,1,32
56,103,1,31
56,103,1,32
57,103,1,31
57,103,1,31
56,102,1,31
56,102,1,31
56,101,1,31
56,101,1,31
55,100,1,31
55,100,1,30
55,99,1,30
55,99,1,30
54,99,1,30
54,98,1,30
54,98,1,30
57,97,1,30
57,97,1,29
57,97,1,30
56,96,1,29
56,96,1,29
56,96,1,29
56,95,1,28
56,95,1,28
56,94,1,28
55,94,1,28
55,94,1,28
55,93,1,28
54,93,1,28
54,93,1,28
62,92,1,28
61,92,1,28
61,91,1,27
61,91,1,27
60,91,1,27
60,90,1,27
60,90,1,27
59,89,0,41
59,89,1,50
59,89,1,50
58,88,0,50
58,88,1,49
57,88,1,49
57,92,0,49
63,92,1,48
63,91,0,48
62,91,0,48
62,90,1,48
61,89,0,48
61,90,0,48
61,89,0,47
61,88,1,47
60,88,1,46
60,88,0,46
60,88,1,46
59,88,1,46
59,88,0,46
59,88,0,46
60,88,0,45
60,88,0,45
60,87,0,45
60,86,0,45
59,86,1,44
59,86,1,44
58,85,0,44
58,85,0,44
58,85,1,44
57,84,0,44
57,83,0,43
57,83,0,43
57,109,0,43
57,127,0,43
60,126,0,42
60,126,0,42
59,124,0,42
59,124,0,41
59,124,0,41
59,123,0,41
58,122,0,40
58,121,0,41
57,121,0,39
57,121,0,39
57,120,0,39
57,119,0,39
57,119,0,39
58,118,0,39
57,117,0,39
57,117,0,39
57,116,0,39
57,115,0,39
56,115,0,39
56,115,0,38
56,114,0,38
56,113,0,38
56,113,0,38
55,112,0,37
55,112,0,37
55,112,0,37
58,111,0,37
58,110,0,37
57,110,0,37
57,109,0,36
57,109,0,36
56,108,0,36
56,108,0,50
56,108,0,56
56,107,0,56
55,106,0,55
55,105,0,54
55,105,0,54
55,108,0,54
60,107,0,54
60,107,0,53
59,106,0,53
59,105,0,53
59,105,0,52
59,103,0,52
58,103,0,51
58,103,0,51
57,103,0,51
57,103,0,120
57,102,0,118
56,111,0,117
56,167,0,116
57,165,0,115
57,164,0,115
57,163,0,114
57,162,0,114
57,161,0,113
56,159,0,113
56,159,0,112
56,158,0,111
56,157,0,111
55,157,0,110
55,156,0,110
62,162,0,109
162,169,0,108
160,167,0,108
159,166,0,108
158,165,0,107
157,164,0,106
156,163,0,105
155,162,0,105
154,162,0,105
153,160,0,105
152,159,0,129
152,159,0,139
151,158,0,145
150,157,0,143
149,156,0,143
148,156,0,142
147,155,0,141
147,154,0,140
146,153,0,140
145,152,0,139
144,152,0,138
143,150,0,137
143,150,0,144
142,150,0,239
141,156,0,242
140,156,0,240
140,155,0,239
139,153,0,237
138,153,8,236
138,152,10,235
137,152,10,233
135,150,10,231
135,150,10,230
135,149,9,229
134,147,9,228
166,185,9,230
225,184,9,331
223,182,9,420
220,182,9,415
220,179,9,412
218,179,9,409
216,178,9,408
216,177,9,403
214,176,9,402
213,175,9,399
211,254,8,397
210,325,9,395
209,359,9,391
208,355,7,390
207,353,7,387
206,352,8,385
205,348,8,382
204,347,7,380
203,344,7,377
201,342,7,376
199,340,7,477
199,338,7,643
199,335,7,731
198,334,7,723
196,332,7,714
195,329,8,708
195,327,14,700
193,326,32,696
192,324,41,688
192,322,73,681
190,319,71,675
189,318,115,669
188,316,114,663
187,314,113,656
186,315,112,652
188,455,111,646
204,449,124,639
202,446,163,633
201,443,176,774
199,439,175,898
199,435,174,907
197,432,172,898
196,429,171,886
195,425,170,873
195,423,169,862
193,419,167,852
192,417,167,844
191,414,166,834
190,411,165,824
188,408,164,815
187,406,163,807
187,403,195,799
185,399,194,790
184,397,193,782
184,395,191,775
182,391,190,768
181,390,189,842
181,387,188,831
179,385,186,821
179,382,185,814
178,379,184,804
177,377,184,795
175,375,182,786
175,372,181,780
174,370,192,771
173,368,192,762
172,366,192,754
185,393,193,748
189,560,192,741
192,652,191,852
191,646,189,905
190,639,188,910
188,632,206,914
188,626,295,915
186,620,292,909
185,615,290,892
184,609,287,879
184,604,286,871
182,598,284,906
181,593,283,911
180,588,280,915
179,681,280,917
178,848,277,915
177,839,275,909
176,828,273,888
175,818,271,876
174,808,270,865
173,801,269,856
172,792,268,847
172,782,265,837
170,774,263,828
169,767,263,818
167,758,262,829
167,750,259,903
167,742,258,910
165,736,257,914
164,728,255,916
163,719,254,919
163,713,252,920
162,706,251,922
161,721,249,923
160,713,248,924
159,706,247,923
159,699,245,913
158,694,243,891
157,686,242,879
156,679,241,868
155,673,240,857
155,668,238,850
154,662,237,896
153,655,236,906
152,649,235,897
152,645,233,885
151,639,231,874
150,633,231,863
149,627,230,864
148,623,228,875
147,617,227,866
146,612,226,855
146,607,225,845
145,603,224,835
145,598,222,828
146,592,221,818
167,588,220,809
165,583,219,799
164,579,217,793
163,574,217,785
162,569,216,777
161,564,215,768
160,561,213,763
159,558,212,755
159,553,211,747
158,549,210,739
157,545,209,742
156,542,207,897
155,537,207,909
154,532,206,913
153,529,204,915
152,526,203,916
152,521,203,909
151,517,201,888
150,515,201,879
149,510,199,867
148,506,198,857
147,502,198,847
147,499,196,885
146,496,195,905
145,492,194,911
144,489,194,915
143,486,192,918
143,482,192,920
142,479,190,921
141,476,190,921
140,473,189,918
140,470,188,909
139,467,187,886
139,463,186,875
137,460,185,864
137,457,184,856
135,454,183,846
135,451,182,836
135,448,181,826
134,446,180,819
133,443,179,810
133,440,178,801
131,436,177,792
131,434,176,785
131,432,176,777
130,428,175,769
129,425,174,761
128,423,173,755
127,421,172,747
127,418,171,739
127,415,171,732
126,413,170,725
125,411,169,719
125,408,167,713
124,405,167,705
123,403,166,699
123,401,165,694
122,398,165,687
121,396,164,681
121,393,163,675
120,391,162,670
120,389,161,664
119,451,161,658
118,447,159,652
118,444,159,647
117,440,158,642
117,437,158,636
116,433,157,632
115,431,156,627
115,428,155,622
115,423,155,616
113,421,154,611
113,419,153,608
113,415,152,602
112,412,152,597
112,409,151,591
111,408,150,589
110,404,149,583
110,401,148,579
109,398,147,575
109,396,147,571
108,393,146,568
108,391,146,563
107,503,145,558
108,625,144,553
109,618,143,551
108,611,143,546
108,605,142,542
107,601,142,538
106,595,141,536
105,590,140,531
105,583,140,527
104,579,139,524
103,575,138,520
103,569,137,517
192,565,137,513
190,560,135,509
189,556,135,506
188,551,135,503
186,547,134,499
185,542,134,495
184,539,133,493
183,534,132,489
181,530,131,486
181,525,131,483
239,522,130,480
236,518,129,476
235,514,129,473
233,509,129,471
231,506,127,467
231,502,127,465
229,498,126,462
227,494,126,459
226,491,125,455
224,487,125,453
223,483,124,451
318,480,123,448
458,478,123,444
489,473,123,442
485,471,121,440
481,467,121,437
478,463,121,433
473,461,120,432
470,457,120,429
467,454,119,426
463,451,118,423
460,448,118,422
521,445,117,419
515,442,116,415
512,439,116,414
507,436,115,412
504,433,115,409
499,430,115,407
495,427,114,403
492,425,113,401
487,422,113,399
485,451,127,398
481,470,159,395
477,467,157,391
474,463,156,391
472,459,155,388
467,455,155,386
464,452,153,384
461,449,152,382
457,445,152,380
455,441,151,377
451,440,150,376
448,435,149,373
446,432,148,371
443,429,147,369
440,425,147,367
437,423,146,366
434,420,145,363
431,417,144,361
428,414,143,359
425,412,143,358
423,409,142,355
419,407,141,353
417,403,140,352
415,401,140,350
412,399,139,348
409,396,139,346
407,393,138,344
404,391,137,342
402,389,135,341
399,387,135,339
397,384,135,337
395,382,141,335
391,407,147,334
390,590,147,332
387,639,146,329
385,635,145,327
382,629,143,327
380,622,143,325
377,615,142,323
376,610,142,321
373,606,141,319
393,600,140,318
395,595,140,317
391,589,139,315
389,585,137,313
386,579,135,312
384,575,136,310
381,569,135,308
379,566,135,307
376,560,134,305
373,556,134,304
371,551,132,302
369,547,131,301
367,543,131,300
365,539,130,298
362,534,129,295
359,531,129,295
358,527,167,294
355,523,234,292
354,518,245,291
352,515,242,289
350,510,240,287
348,507,238,286
345,503,237,285
344,499,236,284
342,496,234,283
387,492,231,281
546,487,231,280
707,484,230,278
697,481,229,277
689,478,227,275
683,475,226,274
676,471,225,273
670,468,223,271
664,465,222,270
717,462,265,269
878,459,397,268
906,455,542,266
913,452,645,265
916,449,638,263
919,446,632,262
921,443,626,261
922,440,620,260
923,437,614,259
923,434,609,257
920,432,604,255
900,429,599,255
883,425,593,253
874,423,590,252
864,421,584,251
856,418,579,250
845,415,575,249
836,413,572,248
903,411,567,246
911,408,562,245
915,406,558,244
917,403,554,243
915,399,550,242
900,398,545,241
885,395,541,240
875,391,537,238
865,390,534,238
856,388,529,236
846,385,526,235
835,384,523,234
828,381,519,233
819,379,515,231
810,376,511,231
802,374,508,230
794,371,504,229
786,370,500,228
779,368,497,227
771,365,493,225
763,363,491,224
755,361,487,224
748,359,483,223
741,357,480,222
735,355,478,220
728,353,475,220
721,351,472,219
715,349,467,217
708,347,466,217
702,345,463,216
696,344,460,215
691,342,457,214
684,339,454,213
679,337,451,211
671,335,448,211
667,334,445,210
661,332,443,209
655,330,440,207
651,329,437,207
645,327,434,206
639,325,432,205
635,323,429,205
630,321,427,203
625,319,423,203
620,318,422,201
615,316,419,199
610,315,415,199
606,313,414,199
601,311,411,198
596,309,409,197
591,308,407,196
587,306,404,195
583,304,401,195
579,303,399,194
574,301,397,193
570,300,395,192
566,298,391,191
562,295,391,190
558,295,388,189
553,294,385,188
550,292,384,188
546,290,382,187
542,289,379,186
538,287,377,185
535,286,375,184
531,284,373,184
527,283,371,183
523,281,369,182
519,280,367,181
516,279,365,180
513,277,363,179
509,275,359,179
505,274,358,178
502,273,357,177
499,271,355,176
496,270,353,176
492,269,351,175
489,267,349,174
486,265,347,173
483,265,345,172
480,263,344,172
477,262,341,171
473,260,339,170
471,259,338,169
467,258,335,167
464,255,334,167
462,255,332,167
459,254,331,167
455,252,329,166
453,251,327,165
450,249,326,164
448,248,323,163
445,248,321,163
442,246,319,162
440,245,319,161
437,243,317,161
434,243,315,159
432,241,313,159
429,240,312,158
426,239,311,158
423,238,308,157
421,237,307,157
419,236,306,156
415,234,304,155
414,233,302,154
411,231,300,154
409,231,300,153
406,230,297,152
404,229,295,152
402,227,295,152
399,226,293,151
397,225,291,150
395,224,291,149
391,223,289,149
391,222,287,148
389,221,286,147
386,220,284,147
384,219,283,146
382,217,281,145
380,216,280,145
377,216,279,144
376,215,277,143
373,214,275,143
371,212,275,142
369,211,273,142
367,211,271,141
365,209,270,140
363,209,269,140
361,207,268,139
359,206,267,139
357,206,265,138
355,205,263,137
353,203,263,137
351,203,261,135
349,202,259,135
348,199,259,135
345,199,257,134
344,199,255,134
342,198,255,133
339,197,253,133
338,196,252,132
336,195,251,131
335,194,249,131
333,193,248,130
331,193,248,129
329,192,246,129
327,190,245,129
326,190,243,128
324,189,243,127
323,188,241,127
321,187,240,126
319,186,239,126
318,185,238,125
316,184,237,125
314,184,236,125
312,183,235,124
312,182,234,123
309,181,231,122
307,180,231,122
306,179,230,121
305,178,229,121
303,177,228,120
302,177,227,120
300,176,226,120
299,175,225,119
297,174,224,119
295,174,223,118
294,172,222,118
292,172,220,117
291,171,220,116
289,171,219,115
287,169,217,115
287,167,216,115
285,167,216,114
284,167,214,114
282,167,214,114
281,166,212,113
280,165,211,112
278,163,211,112
276,163,210,111
275,163,208,111
274,161,207,111
272,161,206,110
271,160,206,110
270,159,205,109
268,158,204,109
267,158,203,108
265,157,202,108
265,157,201,108
263,156,199,107
262,155,199,106
261,155,198,106
259,154,197,105
258,153,196,105
257,152,195,103
255,152,194,103
254,151,193,103
253,151,192,103
252,149,192,103
251,149,191,102
249,148,190,102
248,147,189,102
247,147,188,101
246,146,188,100
244,145,187,100
243,145,185,99
242,143,185,99
241,143,184,99
240,143,184,98
239,142,182,98
238,141,181,97
237,141,181,97
236,141,179,97
235,140,179,97
233,140,179,96
231,139,178,96
231,138,177,96
230,137,176,95
229,137,176,94
228,137,175,94
227,135,174,94
226,135,173,93
225,134,172,93
224,134,172,93
223,133,171,92
222,133,170,92
221,132,169,92
220,131,169,91
219,131,167,91
218,131,167,90
217,130,167,90
216,129,166,89
216,129,165,89
215,128,165,89
214,127,163,88
212,127,163,88
211,126,162,88
211,126,161,88
210,126,161,88
208,125,159,87
207,124,159,86
207,124,159,86
206,123,158,86
205,123,158,85
204,122,157,85
203,121,156,84
202,121,155,84
201,121,155,83
199,120,154,83
199,120,153,83
199,120,153,83
198,119,152,82
197,118,152,83
196,118,151,82
195,117,151,81
195,117,150,81
193,115,149,81
193,115,148,81
192,115,147,79
191,114,147,79
190,114,146,79
189,113,146,79
188,113,145,79
188,113,144,78
187,112,143,78
186,112,143,78
185,111,143,77
184,110,142,77
184,110,141,77
183,109,141,76
182,109,140,76
181,108,140,76
180,108,139,76
179,108,139,75
179,107,138,75
178,107,137,75
177,106,135,74
176,106,135,74
176,105,135,73
175,105,135,73
174,103,134,73
173,103,134,72
173,103,133,71
172,103,132,71
171,103,131,71
171,102,131,71
169,102,131,71
169,101,130,71
167,101,130,71
167,100,129,71
167,100,129,71
166,99,128,70
166,99,127,70
165,99,127,69
164,98,127,69
163,98,126,69
163,97,125,68
162,97,125,68
161,97,124,68
161,96,124,67
159,96,123,67
159,96,123,67
159,95,123,67
158,95,122,67
158,95,121,66
157,94,121,66
156,94,121,66
156,93,120,65
155,93,120,65
154,93,119,65
153,92,119,65
153,92,118,64
152,91,118,64
152,91,117,63
152,91,118,63
151,90,118,63
150,90,117,63
149,89,117,63
148,89,115,82
148,89,115,99
147,88,115,98
147,88,114,97
146,88,114,97
146,88,113,96
145,87,113,96
144,87,113,95
143,86,112,95
143,86,112,128
143,85,111,139
142,85,111,137
141,84,110,137
141,84,110,135
140,83,109,135
140,83,109,134
139,83,108,133
139,83,108,132
137,83,107,131
137,82,107,131
137,82,107,130
135,81,106,130
135,81,105,129
135,81,105,128
134,80,103,127
134,80,103,127
133,79,103,126
133,79,103,126
132,79,103,125
131,79,102,124
131,78,102,123
130,78,101,123
129,78,101,122
129,79,101,121
129,79,100,121
128,78,99,120
127,78,99,120
127,78,99,119
126,77,99,118
126,77,98,118
126,77,98,117
125,76,97,117
124,76,97,116
124,76,96,115
124,75,96,115
123,75,96,115
122,74,96,114
201,74,95,113
199,74,95,113
199,73,94,112
197,73,94,112
196,73,93,111
195,73,93,111
194,71,93,110
193,71,92,109
192,71,92,109
191,71,92,108
190,71,91,108
189,71,91,108
188,71,90,107
187,70,90,107
186,70,89,106
185,70,89,105
184,69,89,105
184,69,89,103
182,69,88,103
181,69,88,103
179,68,88,103
179,68,87,102
178,67,87,102
177,67,87,101
176,67,86,101
176,67,86,100
175,66,85,99
174,66,85,99
173,66,85,99
172,66,84,99
171,65,84,98
170,65,83,98
169,65,83,97
169,65,83,97
167,64,83,96
167,64,82,96
166,63,82,96
166,63,82,95
165,63,82,95
164,63,81,94
163,63,80,94
162,62,80,93
162,62,80,93
161,62,79,93
159,62,79,92
159,61,79,92
159,61,79,91
158,61,78,91
157,61,78,91
157,61,78,90
156,60,78,90
155,60,78,89
155,60,77,89
153,60,77,88
153,60,77,88
152,59,76,88
152,59,76,87
151,59,76,87
150,58,75,87
149,58,75,86
149,58,75,86
147,57,74,85
147,57,74,85
147,57,74,85
146,57,73,84
145,56,73,84
145,56,73,83
143,56,71,83
143,56,71,83
143,56,71,82
142,56,71,82
141,56,71,81
141,55,71,81
140,55,71,81
140,66,71,81
139,93,70,80
138,94,70,79
137,94,70,79
137,93,70,79
137,92,69,78
135,92,69,79
135,91,69,78
135,91,68,78
134,90,68,77
133,89,68,77
133,89,67,77
132,89,67,76
131,88,67,76
131,88,67,76
130,88,67,75
130,87,66,75
129,87,66,75
128,86,65,74
128,85,65,74
127,85,65,73
127,85,65,73
127,85,65,73
126,84,64,73
125,83,64,72
125,83,63,71
124,85,137,71
124,84,224,71
123,83,237,71
123,83,237,71
122,83,236,70
121,82,234,70
121,82,233,70
121,81,231,70
120,81,230,69
120,81,229,69
119,80,229,69
119,79,243,68
118,79,248,68
118,79,246,67
117,78,245,67
117,78,243,67
116,78,242,66
115,77,240,66
115,77,239,66
115,76,238,66
114,76,236,65
114,76,236,65
113,76,233,65
113,75,233,65
112,75,231,64
112,74,230,63
111,74,229,63
111,73,227,63
111,73,227,63
110,72,225,63
110,71,224,63
109,71,224,62
108,71,222,62
108,71,221,62
108,71,220,62
107,71,219,61
107,70,217,61
107,70,216,61
106,69,216,61
105,69,214,60
105,69,213,60
105,68,211,60
103,68,211,60
103,67,210,59
103,67,209,59
103,67,207,59
103,66,207,59
103,66,206,58
102,66,205,58
101,65,204,58
101,65,203,57
101,65,201,57
100,64,201,57
99,64,199,57
99,63,199,56
99,63,198,56
99,63,197,56
98,63,196,56
98,63,195,56
98,62,194,56
97,62,194,55
97,62,193,56
96,61,192,55
96,61,191,55
96,61,190,55
95,60,189,54
95,60,188,54
95,60,187,54
94,60,187,54
94,59,186,53
93,59,185,53
93,59,184,53
93,59,184,52
92,58,182,52
92,57,182,52
92,58,180,51
91,57,180,51
91,57,179,51
90,57,178,51
90,57,177,51
89,56,177,51
89,56,176,51
89,56,175,51
89,56,174,50
88,56,174,50
88,55,173,50
88,55,172,50
88,55,171,50
87,54,171,49
87,54,170,49
86,54,169,49
86,54,167,49
86,53,167,48
85,54,167,48
85,53,166,48
85,53,165,48
84,132,165,48
84,199,163,48
83,199,163,48
83,197,162,47
83,195,162,47
83,194,161,47
82,193,159,47
82,192,159,46
81,190,158,46
81,190,158,46
81,189,157,46
81,229,156,46
80,329,156,45
79,413,155,45
79,409,154,45
79,406,153,45
79,403,153,45
79,399,152,44
78,398,152,44
78,395,151,44
78,391,150,44
77,390,150,44
77,387,149,44
77,384,148,43
76,382,147,43
76,380,147,43
76,377,146,43
75,375,145,43
75,373,145,42
75,371,143,42
75,368,143,42
74,366,143,63
74,364,142,63
73,361,142,63
73,359,141,62
73,358,140,62
73,355,140,62
71,353,139,61
71,352,138,61
71,349,138,61
71,348,137,60
71,345,137,60
71,344,135,60
71,342,135,59
70,339,135,59
70,337,134,59
70,335,134,58
70,334,133,58
69,332,132,57
69,330,131,57
68,327,131,57
68,327,131,57
67,324,130,57
67,322,130,56
67,321,129,56
67,319,127,56
67,318,127,56
67,316,127,55
66,314,126,55
66,312,126,55
66,311,125,54
66,309,124,54
65,307,124,53
65,306,124,53
64,304,123,53
64,302,123,53
64,301,121,52
63,300,121,52
63,297,121,52
63,295,120,51
63,295,120,51
63,293,119,51
62,291,119,51
62,290,118,51
62,288,118,50
62,287,117,50
61,286,117,50
61,284,116,49
61,283,115,49
61,281,115,49
60,280,115,49
60,279,114,49
60,277,113,48
60,275,113,48
59,274,112,48
59,273,112,47
59,271,112,47
59,270,111,47
58,269,111,47
58,268,110,46
58,266,109,46
57,265,109,46
57,263,109,46
57,262,108,45
57,261,108,45
57,259,107,45
56,258,107,45
56,257,106,44
56,255,106,44
56,254,105,44
56,253,105,44
56,252,103,44
55,251,103,43
55,249,103,43
55,248,103,43
54,247,103,43
54,246,102,43
54,244,101,43
54,243,101,42
53,242,101,42
53,241,100,41
53,240,99,41
53,238,99,41
52,238,99,41
52,236,99,41
52,236,98,41
51,234,97,41
51,233,97,39
51,231,97,39
51,231,97,39
51,230,96,39
50,229,96,39
51,227,96,39
50,227,95,39
50,226,94,39
50,225,94,39
50,224,94,39
49,223,93,39
49,222,93,39
49,221,92,38
49,220,92,38
48,219,92,38
48,218,92,38
48,217,91,38
48,216,91,38
48,216,91,37
48,214,89,38
47,213,89,37
48,212,89,37
48,211,89,37
47,210,88,36
47,209,88,36
47,209,88,36
46,207,88,37
46,207,87,35
46,206,87,36
46,205,86,35
46,204,86,35
46,203,85,35
46,202,85,35
79,202,85,35
85,199,84,35
85,199,83,35
84,199,83,34
83,198,83,34
83,197,83,34
83,196,83,34
82,195,82,34
82,195,82,34
81,193,81,34
81,193,81,34
80,192,81,33
91,192,81,33
115,190,80,33
113,189,79,33
112,189,79,33
112,188,79,33
111,187,79,32
111,186,78,32
110,185,78,32
110,184,78,32
109,184,78,31
108,183,77,31
108,182,77,31
110,181,76,31
111,180,76,31
110,179,76,31
110,178,75,31
109,178,75,31
109,177,75,31
108,176,74,31
107,176,74,30
107,175,74,30
106,174,73,31
105,173,73,30
105,172,72,30
105,172,71,30
105,171,71,29
105,170,71,30
103,169,71,30
103,167,71,29
103,167,71,29
103,167,71,29
102,166,70,29
102,166,70,29
101,165,69,29
100,164,69,29
100,163,69,28
107,163,68,28
107,162,68,28
106,161,68,28
105,160,67,28
105,159,67,28
103,159,67,28
103,158,67,27
103,158,67,27
103,157,66,27
102,156,66,27
102,156,65,27
101,155,65,27
100,154,65,27
100,153,65,27
99,153,64,26
99,152,64,27
98,152,63,26
98,151,63,26
97,150,63,26
97,150,63,25
97,149,63,25
96,148,63,25
96,147,63,25
95,147,62,25
95,147,62,25
94,146,62,25
94,145,61,25
93,145,61,25
93,144,61,25
92,143,61,25
92,143,60,24
92,143,60,24
91,142,60,24
91,142,60,24
90,140,59,24
89,140,59,24
89,140,59,24
89,139,59,24
88,138,59,24
88,138,58,24
88,137,58,24
88,135,57,24
87,135,57,24
87,135,57,23
86,135,57,23
86,135,57,23
85,134,57,23
85,133,56,23
84,133,56,23
83,132,56,22
83,131,56,22
83,131,56,22
83,131,56,22
82,130,55,22
82,129,55,22
81,129,54,22
81,128,54,22
81,127,54,21
80,127,54,22
80,127,54,22
79,126,53,21
79,126,53,21
79,125,53,21
78,125,53,21
78,124,53,21
78,124,52,21
77,123,52,20
77,123,52,21
77,122,51,20
76,121,51,20
76,121,51,20
76,120,51,20
75,120,51,20
75,120,51,20
75,120,51,19
75,119,50,19
74,118,50,19
74,118,50,19
73,118,50,19
73,117,49,19
73,116,49,19
73,115,49,19
71,115,49,19
71,115,49,19
71,114,48,19
71,114,48,18
71,113,48,19
71,113,48,19
71,112,48,18
71,112,47,18
70,112,47,18
70,111,47,18
70,111,46,18
69,110,46,18
69,110,46,18
69,109,46,17
68,109,46,18
68,108,46,17
73,108,46,17
73,108,45,17
71,107,45,17
71,107,45,17
71,106,45,17
71,105,44,17
71,105,44,17
70,105,44,17
70,103,44,17
70,103,44,17
69,103,43,17
69,103,44,16
69,103,43,17
81,102,43,16
80,102,43,16
79,102,43,16
79,101,43,16
79,101,42,16
78,100,42,15
78,100,42,16
78,99,42,16
77,99,41,15
77,99,41,15
76,98,41,15
76,97,41,15
76,97,41,15
76,97,41,15
76,97,40,15
75,96,39,15
75,96,39,15
75,96,39,15
74,96,39,15
73,95,39,15
73,95,39,15
73,94,39,15
73,94,39,15
71,94,39,15
71,93,39,14
72,93,39,14
83,92,39,14
82,92,39,14
82,92,39,14
81,91,38,14
81,91,38,14
80,91,38,14
79,90,38,14
79,90,38,14
79,89,38,14
78,89,37,14
78,89,37,14
78,88,37,13
78,88,37,13
78,88,37,13
77,88,36,13
77,87,36,13
76,87,36,14
76,87,36,14
76,86,35,13
75,86,36,13
75,85,35,13
75,85,35,13
74,85,35,13
74,84,35,13
73,84,35,13
73,83,35,12
74,83,35,13
73,83,34,13
73,83,34,12
73,83,34,12
73,82,34,12
72,82,34,12
71,82,34,12
71,81,34,12
71,81,33,12
71,81,33,12
71,81,33,12
70,79,33,12
71,79,33,12
89,79,33,12
89,79,33,12
88,79,33,12
88,78,32,12
88,78,32,11
88,81,32,12
87,82,32,11
86,81,32,11
86,80,31,11
85,79,31,12
85,80,31,12
84,79,31,11
84,79,31,11
96,79,31,11
96,78,31,11
96,78,31,10
95,78,30,11
94,77,30,11
94,77,30,11
94,77,30,11
93,77,30,10
92,76,30,11
92,76,30,11
92,76,29,11
91,76,29,10
91,75,29,10
96,75,29,10
96,75,29,10
96,74,29,10
95,74,29,10
94,73,28,10
94,73,29,10
94,73,29,10
93,73,29,10
92,71,28,9
92,71,28,10
92,71,28,9
91,71,28,9
91,71,28,10
97,71,27,9
98,71,28,9
98,71,28,9
97,70,28,9
97,70,27,9
96,70,27,9
96,70,27,9
96,70,27,9
95,70,27,9
95,70,27,9
94,69,27,9
94,69,27,9
93,69,26,9
93,68,26,9
94,68,26,9
93,67,26,8
92,67,26,9
92,67,26,8
92,67,25,7
91,67,25,7
91,67,25,9
91,67,25,7
90,67,25,8
89,67,25,7
89,66,25,8
89,66,25,7
89,66,24,7
88,65,25,7
94,65,25,9
94,65,24,7
93,64,24,7
92,65,24,7
92,64,24,7
92,64,24,7
91,65,24,7
91,65,24,7
90,64,24,7
90,63,24,7
89,63,24,7
89,63,24,7
89,63,24,8
88,63,23,7
90,62,23,7
89,62,23,7
89,62,23,7
89,62,23,7
89,62,23,7
88,62,23,7
88,62,22,7
88,62,23,7
87,62,22,7
87,61,22,7
86,61,22,7
86,61,22,7
85,61,22,7
86,60,22,7
93,60,22,7
92,60,22,7
92,60,21,7
91,60,22,7
91,59,21,7
90,60,21,7
90,64,21,7
89,64,21,7
89,63,21,6
89,63,21,7
88,63,21,6
88,63,21,7
88,63,21,6
88,62,20,6
88,62,20,6
88,62,20,6
87,61,20,6
86,61,20,6
86,61,20,7
86,61,19,7
85,62,20,6
85,62,20,6
85,61,19,6
83,61,19,6
83,61,19,6
83,60,19,6
83,60,19,6
84,60,19,6
84,59,19,6
84,59,19,6
83,59,19,6
83,59,19,6
83,59,19,6
83,59,19,6
82,61,18,5
81,61,18,6
81,61,18,5
81,60,18,6
80,60,18,5
80,60,18,6
79,60,18,5
88,60,18,5
88,59,18,5
88,59,18,5
87,59,17,6
87,58,17,5
86,60,17,5
86,73,17,5
85,74,17,5
85,73,17,5
84,73,17,5
84,73,17,5
83,73,17,5
83,71,17,5
83,71,17,6
88,71,17,5
87,71,16,5
87,71,17,4
87,70,16,5
86,70,16,5
86,70,16,5
85,70,16,5
85,70,16,4
84,70,16,5
83,70,16,4
83,69,15,4
83,69,15,4
83,68,15,5
82,68,16,4
85,68,15,5
84,68,15,4
84,67,15,4
83,67,15,4
83,67,15,4
83,70,15,4
82,70,15,4
82,70,15,4
81,69,15,4
81,69,15,4
81,69,15,4
80,69,14,4
79,68,15,4
79,68,15,4
82,67,15,4
81,67,14,3
81,67,14,3
81,66,14,4
81,66,14,4
79,69,14,3
79,69,14,3
79,69,14,4
79,69,14,4
79,68,14,3
78,67,14,3
78,67,14,3
78,67,14,4
78,67,14,3
77,67,14,3
77,66,14,3
77,66,14,3
76,66,13,3
76,65,13,4
76,67,13,3
76,70,13,3
75,69,13,3
74,69,13,3
74,69,13,3
74,68,13,3
73,68,13,3
73,67,13,3
76,67,13,3
79,67,13,3
78,67,12,3
78,66,12,3
77,66,12,3
77,66,12,3
77,65,12,3
77,69,12,3
76,69,12,3
76,68,12,3
76,67,12,3
75,67,12,3
75,67,12,3
74,67,12,3
79,67,12,3
79,66,12,3
79,66,12,3
79,65,11,3
79,65,12,3
78,65,12,3
78,68,12,3
78,74,12,3
77,74,12,3
77,73,12,3
76,73,11,3
76,71,11,3
76,71,11,3
75,71,11,2
81,71,11,2
81,71,11,3
81,70,11,3
80,70,11,3
79,70,11,3
79,70,11,3
79,71,10,2
79,79,11,3
78,79,10,3
78,78,10,3
