4,93,3,37
3,92,3,37
4,92,3,37
3,107,3,45
3,117,3,54
3,116,3,53
3,115,3,53
3,115,3,53
3,114,2,52
3,114,3,52
3,113,5,51
3,113,7,51
3,112,7,51
7,112,7,51
7,111,7,51
7,111,7,51
7,110,7,50
7,109,7,57
7,109,7,57
7,108,7,57
7,108,7,56
7,108,7,56
7,107,7,56
7,106,7,56
7,106,7,56
6,105,7,55
7,105,7,55
9,103,7,55
9,103,7,54
9,103,7,54
9,103,7,54
9,103,7,53
9,103,7,53
7,102,7,53
7,102,6,53
8,101,6,52
7,101,7,52
7,101,7,52
7,100,7,52
7,99,6,51
7,99,6,51
10,99,6,51
10,98,7,51
10,98,6,50
9,97,6,50
9,97,6,50
9,97,6,50
9,96,6,50
9,96,6,49
9,96,6,49
9,95,6,49
9,95,6,49
9,94,6,49
9,94,6,49
9,94,7,48
10,93,6,48
10,93,6,48
10,93,6,48
9,92,6,47
10,91,6,47
9,91,6,47
9,90,6,47
9,91,6,47
9,90,6,46
9,89,6,46
9,89,6,46
9,89,6,46
9,88,5,46
9,88,6,46
9,88,6,45
9,88,6,45
10,87,6,45
9,87,5,45
9,87,5,44
9,86,6,44
9,86,5,44
9,85,5,44
9,85,5,44
9,85,5,43
9,84,5,43
9,83,5,43
9,83,5,43
9,83,5,43
9,83,5,43
10,83,5,42
10,82,5,42
10,82,5,42
9,82,5,41
9,81,5,41
9,81,5,42
9,81,5,42
9,80,5,41
9,79,4,41
9,79,5,41
9,79,5,41
9,79,4,41
9,78,5,41
9,78,5,40
10,78,5,39
11,78,5,39
11,77,5,39
11,77,4,39
11,76,5,39
11,85,4,39
11,84,4,39
11,84,4,39
11,83,5,39
10,83,4,39
10,83,4,38
10,82,4,38
10,82,4,38
10,81,4,38
10,81,4,38
11,81,4,37
11,80,4,37
11,80,4,37
11,79,4,37
11,79,4,46
10,79,4,46
10,79,4,45
10,79,4,45
11,79,4,45
10,78,3,44
10,78,3,45
10,77,4,44
10,77,4,44
11,77,4,44
11,76,4,44
11,76,3,43
11,76,4,44
11,76,3,43
11,76,4,43
11,76,3,42
11,76,3,42
11,75,3,42
11,75,3,42
11,75,3,41
10,74,4,41
11,74,5,41
11,74,5,41
14,73,5,41
14,73,5,41
13,73,5,41
13,73,5,39
13,71,4,40
13,71,5,41
13,71,4,39
13,71,4,39
13,71,5,39
12,71,4,39
13,70,4,39
12,70,5,39
12,70,5,39
13,69,5,39
14,69,5,39
14,69,5,39
14,68,5,39
14,68,5,38
14,90,5,46
13,92,4,48
13,91,4,47
13,91,5,47
14,90,4,47
13,90,4,47
13,89,5,46
13,89,5,46
13,88,6,46
13,88,6,45
14,88,6,45
14,87,6,45
13,87,6,45
14,86,6,44
13,86,6,51
13,86,6,50
13,85,5,50
13,84,6,50
13,84,6,50
13,84,5,49
13,83,5,49
13,83,6,49
13,83,6,49
13,82,5,48
14,82,6,48
14,82,6,48
13,81,5,48
13,81,5,48
13,90,5,48
13,89,5,48
13,88,5,48
13,88,5,47
13,88,5,47
13,87,5,47
13,87,5,46
12,86,5,46
12,86,7,46
13,86,7,46
15,85,7,45
15,85,7,45
15,84,7,46
14,83,6,45
14,84,6,57
14,83,6,57
14,83,6,57
14,83,6,56
14,82,6,56
14,82,6,56
14,81,6,56
14,81,7,56
13,81,6,56
14,80,6,56
15,79,6,55
15,79,6,54
14,79,6,54
15,79,6,54
14,86,6,56
15,86,6,56
14,85,6,55
14,85,6,55
14,84,6,55
14,84,6,54
14,83,6,54
14,83,6,54
14,83,6,53
19,82,6,53
19,82,6,53
19,81,6,53
18,81,6,52
18,81,6,52
18,106,6,51
18,105,5,51
18,103,5,51
18,103,6,51
18,103,6,51
17,103,5,51
17,103,5,50
17,102,6,50
18,101,6,50
18,101,6,49
18,100,6,49
18,99,6,49
18,99,6,49
18,99,6,70
18,99,5,69
18,98,6,69
17,98,6,68
17,97,6,68
17,97,5,67
17,97,6,67
17,96,6,67
17,96,5,67
19,95,5,66
18,95,6,66
18,94,5,66
18,94,5,65
18,93,5,65
18,93,5,70
18,93,5,70
18,92,5,69
17,92,5,69
18,91,5,69
17,91,5,68
17,91,5,68
17,90,5,68
17,89,5,67
19,89,5,67
19,89,5,67
19,89,5,66
18,88,5,66
18,88,5,66
18,88,5,66
18,87,5,65
18,87,5,65
18,86,5,64
18,86,4,64
18,85,4,63
18,85,5,63
17,85,4,63
17,84,4,63
17,84,5,123
17,83,5,216
17,83,5,310
17,83,4,317
17,175,5,315
17,262,4,312
16,259,4,310
16,257,3,307
16,255,4,306
16,254,4,401
16,252,4,419
16,251,4,417
35,249,3,415
36,248,4,525
36,247,3,573
35,245,4,568
35,258,4,564
35,397,3,560
35,512,3,555
35,600,3,551
34,594,4,547
34,587,3,543
34,583,3,539
45,579,3,536
113,573,3,532
117,569,3,527
115,564,3,524
115,560,3,519
114,556,3,517
114,551,3,513
113,547,3,510
112,543,3,639
111,539,3,833
111,536,3,873
110,531,3,860
110,527,3,851
109,523,3,844
108,519,3,833
108,517,3,825
107,513,2,844
107,509,3,902
107,611,3,909
106,758,3,914
105,899,3,915
103,909,3,916
103,914,2,913
103,917,3,895
115,920,3,883
171,916,3,875
169,904,2,864
167,888,3,857
167,877,2,846
166,868,5,839
165,858,6,831
164,850,39,823
163,839,134,814
162,831,194,805
161,822,192,798
160,813,191,789
184,804,189,781
220,797,188,772
307,788,187,766
304,779,185,758
302,770,184,750
300,762,184,742
297,756,182,737
295,748,181,729
294,740,179,722
291,732,179,715
289,727,178,710
287,719,177,703
286,711,176,847
284,705,175,905
283,700,174,910
281,693,173,915
280,686,172,917
277,679,173,920
275,675,231,920
274,668,229,919
273,662,227,907
271,655,226,885
269,652,224,874
268,646,223,866
267,639,222,857
265,634,221,846
263,630,220,837
262,624,218,829
260,619,217,819
259,613,216,811
257,609,215,802
255,604,213,795
254,600,211,786
253,594,211,778
251,589,209,769
249,585,207,764
248,580,207,755
248,575,206,748
246,571,205,740
244,568,204,734
243,563,203,728
241,558,201,719
240,553,199,713
239,551,199,707
238,546,203,702
236,542,304,711
235,537,408,708
233,535,403,702
231,531,399,696
231,526,397,689
231,522,395,682
229,519,391,675
227,515,389,671
227,511,386,665
225,507,384,659
224,504,381,653
223,501,379,649
222,497,376,643
220,493,374,638
219,491,371,632
218,487,369,627
217,483,366,623
216,480,365,617
215,477,362,834
214,474,359,900
212,471,358,910
211,467,355,911
210,463,353,905
208,462,352,891
207,459,349,878
206,455,348,867
206,452,345,857
204,450,343,849
204,447,341,839
202,444,339,829
202,441,337,819
199,439,335,813
199,435,333,803
198,432,331,795
198,430,329,786
196,428,327,777
195,425,325,771
195,422,323,763
193,419,322,755
192,417,319,747
192,415,318,741
190,412,316,734
189,409,315,726
188,408,313,719
187,404,311,714
186,402,309,707
186,399,307,700
184,397,306,693
184,395,304,688
183,391,302,682
182,390,301,675
181,387,299,669
179,385,297,664
179,383,295,659
178,381,295,653
177,379,293,861
176,376,291,851
175,374,289,839
174,371,287,829
174,369,286,819
172,368,285,812
172,366,283,803
171,364,281,794
170,361,280,785
169,359,279,776
167,357,277,770
167,355,275,761
167,353,274,753
166,352,273,745
165,349,271,739
164,347,270,732
163,345,269,725
163,344,267,717
162,342,266,711
161,339,263,704
159,337,263,697
159,335,262,691
159,334,260,686
158,332,259,679
157,331,258,673
156,327,255,667
156,327,255,662
155,325,253,655
154,323,252,650
153,321,251,644
152,319,249,639
152,318,248,635
152,316,248,628
151,314,246,623
150,313,244,617
149,312,243,614
148,310,242,609
147,307,241,604
146,307,239,599
153,305,238,595
156,303,237,590
155,302,236,585
153,300,235,580
152,299,233,577
152,295,231,572
151,295,231,568
150,294,230,563
149,291,229,560
148,290,227,556
147,289,227,551
147,287,225,547
146,286,224,543
145,284,223,540
145,283,222,536
143,281,221,532
143,280,220,529
142,279,219,525
141,277,218,521
141,275,217,518
140,274,216,515
139,273,214,511
139,271,214,507
138,270,212,504
137,269,211,499
136,268,210,497
135,266,209,494
135,263,208,490
135,263,207,487
134,262,206,484
134,261,205,481
133,259,205,478
132,259,204,474
131,257,202,472
130,255,201,468
130,254,199,465
129,252,199,462
129,252,198,460
128,250,197,457
127,249,197,454
127,248,195,451
126,247,195,449
126,245,193,446
125,243,193,443
124,243,192,440
124,241,191,438
124,240,190,435
122,239,189,432
122,238,188,430
121,237,187,428
121,236,186,425
120,235,185,422
120,233,184,419
120,231,184,417
119,231,183,415
118,230,182,412
118,229,181,409
116,228,180,408
116,227,179,406
116,226,178,403
115,225,178,400
115,224,177,398
114,223,176,396
113,222,175,393
113,220,175,391
112,219,174,389
112,219,173,387
147,217,172,385
263,270,171,383
292,268,170,380
289,266,169,379
287,263,167,376
285,263,167,374
284,261,167,371
281,259,166,370
280,257,165,368
278,255,165,366
276,254,164,364
275,355,163,363
272,472,162,359
271,470,161,358
269,466,161,356
268,463,159,354
266,459,159,353
263,455,159,351
263,451,188,348
261,449,187,347
259,445,185,345
258,441,184,344
257,439,184,341
255,435,182,339
254,432,181,338
252,429,180,335
251,425,179,334
249,423,178,332
248,420,177,331
247,417,176,329
245,414,175,327
243,411,174,326
242,409,173,324
241,406,172,323
243,403,171,320
243,399,170,319
241,398,169,317
240,395,167,316
238,391,167,314
237,390,166,312
235,387,166,312
234,385,165,309
231,382,163,307
231,380,163,306
230,377,162,304
229,375,207,304
227,373,255,302
227,370,254,300
225,368,252,298
224,366,251,297
223,363,249,295
222,361,248,294
220,359,246,293
219,357,371,291
218,355,436,290
217,352,441,288
216,350,437,287
215,348,433,286
214,376,430,284
212,415,428,283
211,412,423,281
210,409,422,280
209,407,418,279
207,403,415,278
207,400,413,276
280,399,410,275
299,395,407,273
295,391,405,324
294,389,402,321
349,387,399,319
391,385,451,317
387,382,446,315
384,379,443,313
381,377,440,312
379,374,435,310
376,371,433,307
374,369,430,305
371,367,427,304
507,365,423,302
668,362,421,300
729,359,419,298
782,358,415,295
899,355,413,295
910,352,410,293
915,350,408,291
916,348,405,289
911,346,402,287
893,344,399,286
881,342,398,284
871,339,395,283
862,338,391,281
851,335,390,280
842,334,387,278
833,332,385,276
824,330,383,275
816,327,380,273
807,326,378,271
798,323,376,270
791,322,373,270
783,319,371,355
775,318,369,432
767,316,367,428
760,315,365,423
752,366,363,421
745,363,359,418
738,359,359,415
731,358,356,412
723,355,354,409
718,459,352,407
711,636,350,403
705,683,348,400
698,674,346,398
692,667,344,396
686,659,343,393
679,653,340,390
674,647,339,388
669,642,335,385
664,636,335,384
658,630,333,380
653,625,331,379
647,619,329,376
641,614,327,373
636,608,326,371
632,604,323,369
626,598,321,367
621,593,319,364
615,587,318,361
611,583,316,359
607,578,315,358
602,573,312,355
597,568,312,353
592,565,310,351
589,560,307,349
583,555,306,347
579,551,305,345
575,547,303,343
571,543,301,341
567,539,300,339
563,534,298,337
559,531,295,335
555,526,295,333
551,522,293,331
547,518,292,329
543,514,290,327
540,510,288,326
536,507,287,323
531,503,286,321
527,499,284,319
524,496,283,318
521,492,281,316
518,487,280,314
514,485,279,312
510,482,277,311
506,479,275,309
503,475,273,307
499,472,272,305
496,469,271,304
493,465,270,302
489,462,268,300
487,459,267,299
483,455,265,297
480,453,263,295
477,450,263,294
474,447,262,292
472,444,260,290
467,441,259,289
465,438,257,287
462,435,255,286
460,432,255,284
455,430,253,283
454,427,252,281
451,423,251,280
448,421,249,278
445,419,248,277
443,415,247,275
440,413,246,274
437,410,245,272
434,408,243,271
432,405,242,270
429,403,241,268
427,399,240,267
423,398,239,266
422,396,238,263
419,393,236,263
417,390,235,262
414,388,233,260
412,386,231,259
409,384,231,258
407,381,231,257
404,379,229,255
402,376,228,254
399,374,227,253
397,371,226,252
395,370,225,251
393,368,224,249
391,366,222,248
388,363,222,247
386,361,221,246
384,359,219,244
382,357,218,243
380,355,217,242
377,352,216,241
376,351,216,240
373,349,214,239
371,347,213,238
369,344,212,236
367,343,211,236
365,341,210,235
363,339,209,233
361,337,207,231
359,335,207,231
357,333,206,230
355,331,205,229
353,329,204,227
351,327,203,227
349,326,202,226
347,323,201,225
345,322,199,224
344,319,199,223
342,318,199,222
339,317,197,221
338,315,196,220
336,313,195,219
334,312,194,217
333,310,193,216
331,307,193,216
329,306,192,215
327,305,191,214
326,303,190,213
323,301,189,211
323,300,188,211
321,298,187,210
319,295,186,209
317,295,185,207
316,293,185,207
314,291,184,206
312,290,183,206
311,288,182,204
309,287,181,203
307,286,180,203
306,284,179,201
304,283,178,199
303,281,178,199
301,280,177,199
300,278,176,198
298,276,175,197
297,275,174,196
295,273,174,195
294,272,173,195
292,271,172,193
291,269,172,193
289,268,171,192
287,267,169,191
286,265,169,190
285,263,167,189
283,262,167,188
282,261,167,188
280,259,166,187
280,258,165,185
278,257,163,185
277,255,163,184
275,275,163,184
273,294,162,183
271,291,161,182
271,289,160,181
269,287,159,180
268,285,159,179
267,283,158,178
265,282,157,178
263,280,156,177
263,278,156,176
262,276,156,175
260,275,155,175
259,273,154,174
257,271,153,173
255,270,152,172
255,268,152,172
254,267,151,171
253,265,150,176
251,263,150,175
250,262,149,174
249,260,148,173
248,259,147,172
246,257,147,172
245,255,146,170
244,254,145,169
243,252,145,169
242,251,143,167
241,249,143,167
239,249,143,167
238,248,142,166
237,246,142,165
236,244,141,164
235,243,140,163
233,242,139,163
231,241,139,162
231,239,138,161
231,239,137,161
229,237,137,159
228,236,135,159
227,235,135,158
226,234,135,158
225,233,135,157
224,231,134,157
223,230,133,156
222,229,133,155
221,228,131,155
220,227,131,153
219,225,131,153
217,225,130,153
216,224,129,152
216,222,129,152
215,221,128,151
214,220,127,150
213,220,127,149
211,218,126,148
211,217,126,147
210,216,125,147
208,215,125,147
207,214,124,146
207,213,124,145
206,211,123,145
205,211,123,143
204,210,122,143
203,209,121,143
202,207,121,142
201,207,120,141
199,206,120,141
199,205,120,140
198,204,119,140
197,203,118,139
196,201,118,139
195,201,117,138
195,199,117,137
193,199,116,135
193,198,115,135
192,197,115,135
191,196,114,135
190,195,114,134
189,194,113,134
188,193,112,133
188,192,112,133
187,192,112,132
186,190,112,131
185,190,111,131
184,189,110,130
184,188,110,130
182,187,109,130
182,186,109,129
181,185,108,127
180,184,108,127
179,184,107,127
178,183,107,126
177,182,106,126
177,181,106,125
176,180,105,124
175,179,105,124
174,178,103,124
173,177,103,123
172,177,103,123
172,176,103,122
171,175,102,121
170,174,102,121
169,174,102,120
185,173,101,120
315,172,101,120
409,171,100,119
405,170,99,119
402,169,99,118
399,169,99,117
396,167,98,117
393,167,98,117
391,167,97,116
388,166,97,115
385,165,97,115
384,164,96,115
381,163,96,114
378,163,96,114
376,162,95,113
374,161,95,113
371,161,94,112
369,159,94,112
367,159,155,111
364,159,162,111
361,158,161,110
359,157,159,110
357,156,158,109
355,156,158,109
353,155,157,108
351,154,156,108
348,154,155,108
346,153,154,107
344,152,153,106
342,152,152,106
339,151,152,105
338,150,151,105
335,149,149,103
334,149,149,103
332,148,147,103
329,147,147,103
327,147,146,103
326,146,145,102
324,145,145,102
322,145,143,102
319,144,143,101
319,143,142,101
317,143,141,100
315,142,141,99
313,142,140,99
312,141,139,99
310,140,138,99
308,140,138,98
306,139,137,98
304,139,137,97
303,138,135,97
301,137,135,97
300,137,134,96
297,135,134,96
295,135,133,96
295,135,132,95
293,134,131,95
291,134,131,94
290,133,130,94
288,133,129,93
287,132,129,93
286,131,127,93
284,131,127,92
282,131,126,92
281,130,126,92
280,129,152,91
278,129,170,91
276,128,167,90
275,127,167,90
274,127,167,89
271,126,166,89
271,126,164,89
269,125,163,89
268,125,163,89
267,124,162,88
265,124,161,88
263,123,159,88
263,123,159,87
261,122,158,86
259,121,158,86
259,121,156,86
257,121,156,85
255,120,155,85
254,120,154,85
253,119,153,84
252,118,152,84
251,118,152,83
249,117,151,83
248,117,150,83
250,116,149,83
373,116,148,82
369,115,147,81
367,115,147,82
364,114,146,81
361,114,145,81
359,113,145,81
357,113,143,79
355,112,143,79
353,112,142,79
350,111,142,79
382,111,141,79
487,111,140,79
483,110,140,78
479,109,139,78
475,109,138,78
472,109,137,77
469,108,137,77
465,108,135,76
462,107,135,76
459,107,135,76
455,106,134,76
452,106,133,76
524,105,132,75
519,105,131,75
515,103,131,74
511,103,130,73
507,103,130,74
503,103,129,73
499,103,128,73
496,102,127,72
492,102,127,71
489,101,126,71
485,101,126,71
482,101,125,71
492,100,124,71
487,99,124,71
485,99,123,71
481,99,123,70
478,98,122,70
475,98,121,70
472,97,121,70
469,97,120,69
466,97,120,69
463,96,120,68
460,96,119,68
457,96,118,68
455,95,118,67
451,94,117,67
449,94,116,67
446,94,125,67
444,94,162,67
440,93,192,67
438,93,193,66
435,93,192,66
432,92,190,65
430,92,189,65
428,91,188,65
425,91,187,65
423,91,185,64
419,90,185,64
417,89,184,64
415,89,183,63
412,89,182,63
410,89,181,63
408,88,180,63
406,88,179,63
403,88,178,62
401,88,177,62
455,87,176,62
534,87,176,62
529,86,174,62
525,86,174,61
521,86,173,61
518,85,172,61
514,85,171,61
510,84,170,60
507,84,169,60
503,83,167,60
499,83,167,60
496,83,167,59
539,83,166,59
557,82,165,59
553,82,164,59
548,82,163,59
545,81,163,58
540,81,162,58
536,81,161,57
533,80,159,57
529,79,159,57
525,79,159,57
521,79,158,57
518,79,157,56
515,79,156,56
510,78,156,56
507,78,155,56
504,78,153,56
500,77,153,56
497,77,152,56
494,77,152,55
491,76,151,55
487,76,150,54
484,76,150,54
481,76,149,54
478,75,148,54
475,75,147,54
472,75,147,53
469,74,146,53
466,74,145,53
463,73,145,53
460,73,143,52
457,73,143,52
455,73,143,52
451,71,142,51
449,71,142,51
447,123,140,51
444,255,140,51
441,255,139,51
438,253,139,51
435,251,138,50
433,249,137,50
430,248,135,50
428,246,135,49
425,244,135,50
422,243,134,49
419,242,134,49
417,240,133,49
415,239,132,48
412,237,131,48
409,236,131,48
408,235,131,48
405,233,130,48
403,231,129,47
399,231,128,47
398,229,127,47
395,228,127,47
393,226,127,46
391,225,126,46
389,224,125,46
386,223,124,46
384,222,124,46
382,220,124,46
380,219,123,46
377,218,122,45
376,216,121,45
373,216,121,45
371,214,120,45
369,213,120,45
367,211,119,44
365,211,119,44
363,211,118,44
359,209,117,44
359,209,117,44
357,207,116,43
355,207,115,43
353,205,115,43
352,204,115,43
349,203,114,94
348,202,114,98
345,201,113,121
344,199,113,170
342,199,112,167
339,198,111,167
338,197,111,165
335,195,110,164
334,194,110,163
332,193,109,162
330,192,108,161
327,191,108,159
327,190,108,159
325,189,107,158
323,188,107,157
321,187,106,157
319,186,105,156
318,185,105,155
316,184,103,154
314,183,103,153
312,182,103,152
311,181,103,152
309,180,102,151
307,179,102,150
306,178,101,149
304,177,101,148
303,176,100,147
301,176,99,146
300,174,99,145
298,174,99,145
295,172,98,143
295,172,98,143
293,171,97,142
291,170,97,142
291,169,96,141
289,167,96,141
287,167,96,140
286,167,95,139
285,166,95,138
283,165,94,137
281,164,94,137
280,163,93,135
279,163,93,135
278,162,93,135
276,161,92,134
275,160,92,133
273,159,91,132
271,159,91,132
271,158,91,131
270,157,90,131
268,157,90,130
267,156,89,129
265,155,89,129
263,154,88,127
263,153,88,127
262,152,88,127
260,152,88,126
259,151,87,126
257,150,86,125
257,149,86,124
255,149,86,124
254,148,85,123
252,147,85,122
251,147,84,121
250,146,84,121
249,145,83,120
248,144,83,120
247,143,83,120
246,143,82,119
244,142,82,118
243,141,82,117
242,141,81,117
241,140,81,116
239,139,81,116
239,139,80,115
237,138,79,115
236,137,79,114
235,135,79,113
233,135,79,113
231,135,79,112
231,135,78,112
231,134,78,112
230,133,78,110
228,133,77,110
227,132,77,110
226,131,76,109
225,131,76,109
224,130,76,108
223,130,76,108
222,129,75,107
221,128,75,107
220,127,74,106
219,127,74,105
218,127,73,105
217,126,73,103
216,125,73,103
215,125,73,103
214,124,71,103
213,124,72,103
212,123,71,102
211,122,71,102
210,121,71,101
209,121,71,100
207,120,71,100
207,120,70,99
206,120,70,99
206,119,70,99
205,118,69,98
204,118,69,98
203,117,69,97
202,116,69,97
201,116,68,96
199,115,67,96
199,115,67,96
198,114,67,95
197,114,67,95
197,113,67,94
195,113,66,94
195,113,66,93
194,112,66,93
193,112,66,92
192,111,65,92
192,111,65,92
191,110,65,91
190,109,65,91
189,109,64,91
188,108,63,89
188,108,63,89
187,108,63,89
186,107,63,89
185,107,63,88
184,106,62,88
184,105,62,88
183,105,62,87
182,103,62,87
181,103,62,86
180,103,61,86
179,103,61,86
179,103,60,85
178,102,60,85
177,102,60,84
176,101,60,84
176,101,60,83
175,100,59,83
174,100,59,83
174,99,59,82
172,99,59,82
172,99,58,82
172,99,58,81
171,98,58,81
170,97,57,80
169,97,57,80
169,97,57,79
167,96,57,79
167,96,57,79
167,96,56,79
166,95,56,78
165,95,56,78
165,94,56,78
163,94,56,78
163,93,56,77
163,93,56,77
162,92,55,77
161,92,55,76
161,92,55,76
161,92,54,76
159,92,54,75
159,91,54,75
158,90,53,75
158,90,53,74
157,89,53,74
157,89,53,73
156,89,53,73
155,88,52,73
155,88,52,71
154,88,51,71
153,88,51,71
153,87,51,71
152,86,51,71
152,86,51,71
152,86,51,71
151,86,51,71
150,85,50,70
150,84,50,70
149,84,50,70
148,83,50,69
147,83,50,69
147,83,49,69
147,83,49,68
146,83,49,68
145,82,48,67
145,82,48,67
144,81,48,67
143,81,48,67
143,80,48,67
143,81,48,66
142,80,47,66
141,79,47,66
141,79,47,65
140,79,47,65
140,79,47,65
140,78,47,65
139,78,46,64
138,78,46,63
137,77,46,63
137,77,46,63
137,77,46,63
135,77,45,63
135,76,45,62
135,76,45,62
134,76,45,62
134,75,44,62
133,75,44,62
133,75,44,61
132,74,44,61
132,74,44,61
131,73,44,60
131,73,43,60
130,73,43,60
130,72,43,60
129,73,43,59
129,71,43,59
128,71,42,59
127,71,42,59
127,71,42,58
127,71,42,58
126,71,41,58
126,71,41,57
125,71,41,57
125,71,41,57
124,70,41,57
124,70,41,56
124,70,39,56
123,69,40,56
122,69,39,56
122,69,39,55
121,68,39,55
121,68,39,55
121,67,39,55
120,67,39,55
120,67,39,54
120,67,39,54
119,67,39,54
119,67,39,53
118,66,38,53
117,66,38,53
117,66,38,53
117,66,38,53
116,65,38,52
115,65,38,52
115,65,38,51
115,65,38,51
114,64,37,51
113,63,37,51
113,63,37,51
113,63,37,51
112,63,37,51
112,63,36,50
112,62,36,50
111,62,35,50
111,62,36,50
110,62,35,49
110,62,35,49
109,61,35,49
109,61,35,49
109,61,35,48
108,61,35,49
108,60,35,48
107,60,35,48
107,60,34,48
106,60,34,48
106,59,34,48
105,59,34,47
105,59,34,47
105,59,33,46
104,58,33,47
103,58,33,46
103,58,33,46
103,57,33,46
103,57,33,46
103,57,32,45
102,57,32,45
102,57,32,45
101,57,32,45
101,56,32,45
101,56,31,44
100,70,31,44
99,69,31,44
99,68,31,44
99,68,31,44
99,67,31,44
98,67,31,44
98,67,31,43
98,67,30,43
97,66,31,43
97,66,30,43
97,65,30,42
96,65,30,43
96,65,30,42
96,64,30,42
95,65,30,41
95,63,30,41
94,63,30,41
94,63,30,41
94,63,29,41
93,63,29,41
93,62,29,41
93,62,29,41
92,62,29,39
92,62,28,40
92,61,28,40
91,61,28,39
91,61,28,39
91,60,28,39
90,60,28,39
90,60,28,39
89,60,28,39
89,59,28,39
89,59,28,39
89,58,28,39
88,58,27,39
88,58,27,38
88,58,27,38
88,57,27,38
87,57,27,38
87,57,27,38
87,57,27,38
86,56,27,38
86,56,26,37
85,56,26,37
85,56,26,37
85,56,26,37
84,56,26,37
84,55,26,37
83,55,26,36
83,55,25,36
83,54,25,36
83,54,25,36
83,54,25,35
82,54,25,35
82,56,25,35
82,55,25,35
81,55,24,35
81,54,25,35
81,54,24,35
80,54,24,35
80,54,24,34
79,54,24,34
79,53,24,34
79,53,24,34
79,53,24,34
78,53,24,34
79,53,24,34
78,53,23,33
78,52,24,33
77,52,24,33
77,52,23,33
77,51,23,33
76,51,23,33
76,51,23,33
76,51,23,33
76,51,22,33
76,51,22,32
75,50,22,32
75,51,22,32
75,70,22,32
75,70,22,31
74,69,22,31
74,69,22,31
74,68,22,31
73,68,22,31
73,67,21,31
73,67,22,31
71,67,21,31
73,67,21,31
71,66,21,30
71,66,21,30
71,66,21,30
71,67,21,30
71,67,20,30
71,66,20,30
70,66,20,30
70,66,20,30
70,65,20,30
70,65,20,29
69,65,20,29
69,65,20,29
69,64,20,29
69,63,19,29
68,63,19,29
67,63,19,29
67,63,19,29
67,62,19,29
67,62,19,28
67,62,19,28
67,62,19,28
66,61,19,28
66,61,19,28
66,61,19,28
66,60,18,28
65,60,18,28
65,60,18,27
65,60,18,27
65,60,18,27
65,60,18,27
64,59,18,27
64,59,18,27
63,59,17,27
63,58,18,27
63,58,18,27
63,57,18,26
63,57,17,26
63,57,17,26
62,57,17,26
62,57,17,26
62,57,17,26
62,56,17,25
61,57,17,25
61,57,17,25
61,56,17,25
61,56,17,25
60,56,17,25
60,56,16,25
60,56,17,25
60,56,16,25
60,55,16,24
59,55,16,25
59,55,16,24
59,54,16,24
59,54,16,24
59,53,15,24
58,54,15,24
58,54,16,24
57,53,15,24
58,53,15,24
57,52,15,24
57,52,15,24
57,52,15,24
56,51,15,24
56,51,15,24
56,51,15,23
56,51,15,23
56,51,15,23
56,51,15,23
55,51,15,23
56,50,15,22
56,50,14,23
55,50,14,22
55,50,14,22
54,49,14,22
54,49,14,22
54,49,14,22
54,49,14,22
53,49,14,22
53,49,14,22
53,48,14,22
53,93,13,22
53,92,13,22
53,91,13,21
52,91,13,21
52,90,13,21
51,89,13,21
51,89,13,21
51,88,13,21
51,88,13,21
51,88,13,20
51,87,13,20
51,87,13,21
50,87,13,20
50,86,13,20
50,85,13,20
50,85,13,20
49,84,12,20
49,84,13,19
49,83,12,20
49,83,12,19
49,83,12,19
49,83,12,19
48,82,12,19
48,82,12,19
48,81,12,19
48,81,12,19
48,80,12,19
48,79,12,19
48,79,12,19
47,79,12,19
47,79,11,19
47,78,11,19
47,78,12,18
46,78,11,18
46,78,11,18
46,77,12,18
46,77,11,18
46,76,11,18
45,76,11,18
45,76,11,18
45,76,11,18
45,75,11,18
45,75,11,17
45,74,11,17
44,73,11,17
44,73,11,17
44,73,11,17
44,73,10,17
44,71,10,17
44,71,10,17
44,71,10,17
43,71,10,17
43,78,10,17
43,77,10,17
43,77,10,17
43,76,10,16
43,76,10,16
42,76,10,16
42,75,9,16
42,75,10,16
42,74,10,16
41,74,9,15
41,74,9,15
41,73,9,15
41,73,10,16
41,73,9,15
41,72,9,15
39,71,9,15
40,71,9,15
39,71,9,15
39,71,9,15
39,71,9,15
39,70,9,15
39,70,9,15
39,70,9,15
39,70,9,15
39,69,9,15
39,69,9,14
39,69,9,15
39,69,9,15
39,68,9,14
39,67,9,15
38,67,8,14
38,67,9,15
38,67,7,14
38,67,7,15
38,66,7,14
38,66,7,14
37,66,7,14
37,66,7,14
37,65,7,14
37,65,7,14
37,65,7,14
37,64,7,14
37,64,7,14
36,63,7,14
36,63,7,14
36,63,7,13
36,63,7,13
36,63,7,13
36,62,7,13
35,62,7,13
35,62,7,13
35,61,7,14
35,61,7,13
35,61,7,13
35,61,7,13
35,60,7,13
35,60,7,13
34,60,7,13
35,59,7,13
34,59,7,13
34,59,7,12
34,59,7,12
34,58,7,12
34,58,7,12
33,58,7,12
33,58,7,12
33,57,7,12
33,57,7,12
33,57,7,12
33,57,7,12
33,57,6,12
33,56,7,12
33,56,6,12
32,56,7,12
32,56,6,12
32,55,6,12
31,55,6,12
31,55,7,11
31,55,6,11
31,54,6,12
31,54,6,12
31,54,6,11
31,53,6,11
31,53,6,11
31,53,6,11
31,53,6,11
31,53,6,12
30,52,6,11
30,52,6,11
30,52,6,11
30,51,6,11
30,51,6,11
30,51,6,11
30,51,6,10
30,50,5,11
30,50,5,10
29,50,6,10
29,50,5,10
29,50,6,10
29,50,5,10
29,49,5,10
29,49,5,10
29,49,5,10
29,49,5,10
29,48,5,10
28,48,5,10
28,48,5,10
28,48,5,9
28,48,5,10
28,48,5,9
28,56,5,9
28,55,5,9
28,55,5,9
28,55,5,9
28,54,5,9
27,54,5,9
27,54,5,9
27,53,5,9
27,53,5,9
27,53,4,9
27,53,5,9
27,52,4,9
