121,179,1,15
120,178,1,15
120,177,1,15
120,176,2,15
132,176,2,15
131,175,2,15
131,174,2,15
129,173,2,15
129,172,1,15
128,171,2,15
127,175,2,15
127,174,2,15
126,173,1,15
126,172,1,14
125,171,1,14
125,170,2,14
134,169,2,14
138,169,2,14
137,167,2,14
135,167,2,14
135,166,2,14
135,166,2,14
134,191,2,14
134,190,1,14
133,189,1,13
132,188,2,14
131,187,2,13
131,185,2,13
130,185,1,13
135,184,2,13
134,183,2,13
133,182,1,13
132,181,1,13
132,180,2,13
131,179,2,13
130,178,2,13
130,177,2,12
129,177,1,13
128,176,1,13
127,174,2,13
127,174,1,12
138,173,1,12
137,172,1,12
135,171,1,12
135,170,1,12
135,169,1,12
134,173,1,12
134,188,1,12
133,188,2,12
132,187,1,12
131,185,1,12
131,185,1,12
130,184,1,12
143,183,2,11
145,181,2,12
143,181,2,12
143,179,2,11
142,179,2,11
142,178,1,12
141,177,2,12
140,176,1,12
139,175,1,12
139,175,1,12
138,173,2,12
137,173,2,11
137,172,2,12
143,171,2,11
143,170,2,12
142,169,2,11
142,167,2,11
141,167,2,17
140,184,2,18
139,183,2,18
139,182,2,17
138,181,2,17
137,179,2,17
135,179,2,17
135,178,2,17
141,177,2,17
140,176,2,17
140,175,2,16
139,174,2,16
138,173,2,16
137,172,2,17
137,181,2,17
135,180,2,17
135,179,2,17
134,178,2,17
134,177,2,17
133,176,2,17
134,176,2,17
140,174,2,17
140,174,2,16
139,172,2,16
138,172,2,16
137,171,2,17
135,175,2,16
135,174,2,17
135,173,2,16
135,172,2,16
134,171,2,16
133,171,2,16
133,169,3,15
140,167,2,15
139,167,2,15
138,167,2,15
137,166,2,15
135,165,2,15
135,179,2,16
135,186,2,16
135,185,2,16
134,184,2,15
133,183,2,15
132,182,2,15
131,181,3,16
135,180,2,15
135,179,3,15
135,178,2,15
134,177,2,15
133,176,2,15
133,176,3,26
132,176,2,26
131,175,3,26
131,174,3,25
130,173,2,25
129,172,2,25
128,171,4,25
127,171,6,25
140,169,6,25
139,167,7,24
139,167,6,25
138,167,6,24
137,167,6,24
135,203,6,24
135,201,6,24
135,199,6,24
135,198,6,24
134,197,6,24
133,196,6,24
132,195,6,24
137,194,6,24
135,193,5,23
135,192,5,23
135,191,6,23
134,190,5,23
134,189,5,23
133,195,6,23
132,193,5,23
131,192,5,22
131,191,5,23
130,190,5,23
129,189,5,22
135,188,6,22
137,187,5,22
135,186,5,22
135,185,5,22
135,184,5,60
134,220,5,82
133,271,5,81
133,268,5,81
131,266,5,80
131,263,5,79
130,263,4,79
130,262,5,79
129,259,5,78
138,259,5,78
138,257,5,135
137,255,5,138
135,254,5,137
135,253,5,135
135,251,4,135
134,249,4,134
133,248,4,133
133,248,4,201
131,246,4,216
131,244,4,214
147,243,4,213
182,241,4,211
180,241,4,210
179,239,3,209
178,238,4,207
177,237,3,206
176,235,4,205
175,235,4,205
174,233,3,203
173,231,3,202
172,231,3,227
171,229,3,335
170,228,4,332
169,227,4,330
167,226,4,327
167,225,4,325
167,224,4,323
166,222,4,321
165,221,4,319
164,220,4,317
163,219,4,316
163,217,4,313
161,217,3,312
161,216,3,310
159,215,3,308
159,214,3,307
158,212,3,305
158,211,5,303
157,210,4,301
156,209,71,300
156,319,143,299
154,462,143,295
153,505,141,295
152,499,140,293
152,495,139,291
151,491,138,290
150,487,137,288
149,483,135,287
148,480,135,285
147,476,135,283
147,472,134,417
146,469,133,431
145,465,132,427
144,462,131,423
143,458,131,419
143,455,130,417
145,451,129,414
145,448,128,411
143,445,127,531
143,443,127,635
142,440,126,626
141,435,125,619
141,433,125,612
140,430,124,607
139,428,123,603
138,423,123,597
217,421,122,685
291,419,121,704
291,415,120,698
289,413,120,690
286,410,120,683
284,408,119,676
282,406,118,671
281,403,117,664
280,400,117,658
277,398,116,652
275,396,115,647
327,393,115,642
435,391,114,635
430,387,113,630
427,386,113,625
423,384,112,620
420,408,112,614
417,403,111,609
414,401,111,605
411,399,110,600
408,395,110,595
405,391,108,589
403,390,108,585
399,387,108,581
397,384,107,575
395,382,107,571
391,380,105,566
389,377,105,563
387,374,105,559
384,371,103,553
382,370,103,550
379,368,103,546
377,365,122,542
375,363,121,537
371,361,120,560
370,359,140,715
368,356,139,887
365,354,138,899
363,352,137,884
359,350,135,876
359,348,135,864
357,346,135,854
354,344,134,843
352,342,133,835
350,339,132,825
348,338,131,897
345,335,131,909
344,340,130,912
342,395,129,915
339,391,128,918
337,388,127,918
335,386,127,913
334,384,126,892
332,380,127,880
330,377,127,869
327,376,126,858
326,372,126,895
323,370,125,909
323,389,124,913
319,387,123,914
319,384,123,911
316,381,122,891
315,378,121,879
313,376,121,867
312,373,120,860
309,370,120,849
308,368,119,839
306,365,118,830
304,363,117,824
303,497,117,814
301,678,116,805
300,783,115,796
298,775,115,789
295,765,114,781
294,756,113,773
293,748,113,799
291,742,112,793
289,733,112,783
287,725,111,774
287,717,111,766
285,711,111,760
283,704,110,752
281,697,110,743
281,690,109,736
279,685,108,729
277,678,108,723
276,671,107,860
275,665,107,905
273,659,106,907
271,654,105,898
270,647,105,883
268,642,103,871
267,637,103,860
265,632,103,852
263,625,103,843
263,620,102,831
261,614,102,823
259,610,101,816
259,604,100,807
257,600,100,797
255,594,99,792
254,590,99,782
253,585,99,774
252,582,98,768
251,576,97,760
249,573,97,753
248,568,96,745
248,563,96,738
246,560,96,732
251,556,95,725
249,551,94,719
247,547,94,711
246,543,94,706
244,540,93,701
243,536,92,694
242,532,92,689
241,528,92,683
240,524,91,678
238,521,91,671
269,517,90,846
267,514,90,836
265,510,89,826
263,505,89,819
263,503,89,809
261,499,88,799
259,496,88,793
257,492,87,783
255,489,87,777
255,487,86,769
253,483,86,760
252,480,86,790
251,477,85,824
249,474,84,816
248,471,84,807
246,467,83,799
245,465,83,790
243,462,83,781
242,459,83,775
241,455,82,766
239,454,82,760
238,451,81,752
356,448,81,743
415,445,80,738
412,442,80,730
408,440,79,724
405,436,79,717
403,433,79,710
399,431,78,704
397,428,78,697
395,426,78,693
391,423,77,686
390,420,77,681
387,419,77,675
384,415,76,668
382,414,76,664
380,411,75,658
377,409,75,654
375,406,75,647
373,403,74,642
370,401,74,637
368,399,73,632
366,397,73,627
363,395,73,622
361,391,71,617
359,390,71,614
358,387,71,608
355,385,71,604
353,384,71,600
351,465,71,595
349,461,70,591
347,457,70,586
345,454,70,583
343,451,69,578
341,448,69,574
339,444,69,569
337,441,68,566
335,438,68,562
333,435,67,558
331,432,67,555
329,429,67,550
327,425,67,547
326,423,66,543
323,420,66,539
322,417,65,536
319,414,65,531
318,411,65,529
316,409,64,525
315,406,65,521
313,403,63,518
312,401,63,515
310,399,63,511
307,396,63,508
306,393,63,504
304,391,62,501
303,388,62,498
301,386,62,495
300,384,61,492
298,381,61,487
295,379,61,486
295,376,61,482
294,375,60,480
291,372,60,477
290,390,60,474
289,387,59,471
287,385,59,467
286,383,59,465
284,380,59,463
283,377,58,460
281,375,57,457
280,372,57,454
278,370,57,451
276,368,57,449
275,366,57,447
274,364,56,444
272,363,56,441
271,361,56,439
270,359,56,435
268,357,55,434
267,355,55,431
265,352,54,429
263,351,54,426
263,349,54,423
262,348,54,422
260,345,54,419
259,344,53,417
257,342,53,414
255,339,53,412
254,338,52,409
254,335,52,408
252,334,51,405
251,333,51,403
249,331,51,399
248,329,51,399
248,327,51,396
246,326,50,394
244,323,50,396
243,322,50,393
242,321,50,391
241,318,50,388
240,317,49,387
238,315,49,384
237,314,49,383
237,312,48,380
235,311,48,419
234,309,48,417
233,307,48,414
231,306,48,412
231,304,47,408
229,302,47,405
228,301,47,403
227,299,47,399
226,298,46,398
225,295,46,492
224,295,46,568
223,294,46,614
222,291,53,608
221,291,131,603
220,289,130,597
219,287,129,591
275,286,127,586
273,284,127,582
271,283,126,577
269,281,125,572
267,280,125,567
265,280,124,563
263,277,123,558
262,275,123,553
261,274,121,549
259,273,184,545
257,271,189,541
255,270,187,536
254,268,187,532
253,268,185,527
251,266,184,525
250,263,183,520
248,263,182,516
247,262,180,512
245,260,179,509
243,259,178,505
243,257,178,501
241,256,176,497
240,255,176,495
238,254,174,491
237,252,174,487
236,251,173,483
234,250,172,481
233,249,170,477
231,248,169,473
231,246,169,471
229,245,167,467
227,243,167,464
226,242,166,461
225,241,167,458
224,240,166,455
222,239,165,452
221,238,164,449
220,236,163,446
219,236,162,444
218,234,161,441
217,233,160,438
216,231,159,435
215,231,159,432
214,230,158,430
213,229,157,427
211,227,156,423
210,226,155,421
209,225,155,419
207,224,153,415
207,223,153,413
206,222,152,411
205,221,151,409
204,220,150,406
203,219,150,403
202,218,192,401
201,217,317,399
199,216,397,396
199,215,393,393
198,214,391,391
197,241,387,501
196,391,385,691
195,509,382,693
194,503,380,685
260,499,376,679
257,495,374,673
255,491,371,803
254,486,369,901
252,483,367,907
250,479,364,899
249,475,361,883
248,472,359,871
339,469,358,861
342,465,355,854
339,463,353,843
336,460,352,833
334,455,349,824
332,453,347,816
329,449,345,807
327,446,343,798
326,444,341,789
323,440,339,783
432,437,337,775
583,434,335,766
621,431,333,758
615,428,331,752
609,425,329,743
604,422,327,736
599,419,325,729
593,416,323,723
588,414,321,716
583,411,319,709
579,408,318,702
574,406,316,697
569,403,313,691
564,399,312,684
560,397,311,678
556,395,309,671
551,393,307,667
547,390,305,661
543,387,304,655
539,385,302,649
536,382,300,644
531,380,299,639
527,377,297,633
523,376,295,627
519,373,294,624
515,371,292,618
512,368,291,614
508,366,289,608
504,364,287,605
501,361,286,600
497,359,285,595
494,357,283,590
491,355,281,586
487,353,280,581
483,351,279,575
481,348,277,572
477,347,275,568
474,344,274,563
472,343,272,560
467,340,271,555
464,339,269,551
462,337,268,547
459,335,267,543
455,332,265,540
453,331,263,536
449,329,263,532
447,371,261,528
444,369,260,524
441,367,259,520
438,364,257,518
435,361,255,514
432,358,255,510
430,357,253,506
427,354,252,504
423,352,251,499
422,348,249,496
419,346,248,493
415,345,247,489
414,342,245,487
412,339,244,483
409,338,243,480
407,335,241,477
403,334,240,474
401,331,239,471
399,329,238,467
396,327,237,465
394,326,236,462
391,323,235,459
390,321,233,455
387,319,231,454
385,318,231,451
383,316,229,448
380,314,229,445
378,313,227,441
376,311,226,440
374,308,225,436
371,307,224,433
369,305,223,431
367,304,222,429
365,302,221,426
363,300,220,423
361,299,219,420
359,297,217,419
357,295,216,415
355,294,216,413
352,291,215,411
350,291,213,409
349,289,212,406
347,287,211,403
345,286,210,401
343,284,209,399
341,283,207,397
339,281,207,395
337,280,206,391
335,278,205,390
334,276,204,388
332,275,203,385
330,273,202,384
327,271,201,382
326,271,199,379
325,269,199,377
323,268,198,375
321,267,197,372
319,265,196,371
317,263,195,368
316,262,194,367
314,261,193,364
312,259,192,363
311,257,192,361
309,255,191,359
307,255,190,357
305,253,189,355
304,252,188,353
303,251,187,351
301,249,187,349
300,249,185,348
297,247,184,345
295,246,184,344
295,244,183,341
293,243,182,340
291,242,181,338
290,241,180,336
288,239,179,334
287,239,178,333
285,237,177,332
284,236,176,329
283,235,176,327
281,233,175,326
280,231,174,324
278,231,173,323
276,230,172,321
275,229,172,319
273,227,171,318
271,227,169,316
271,225,169,314
269,224,167,313
268,223,167,312
267,222,167,310
265,221,166,307
263,220,165,307
263,219,164,305
262,217,163,304
260,216,163,302
259,216,162,300
257,215,161,299
255,213,161,297
255,212,159,295
253,211,159,295
252,210,159,293
278,209,158,291
423,207,157,290
517,207,156,289
674,206,156,287
861,206,155,286
905,204,154,284
911,203,153,283
915,203,152,282
918,201,152,280
920,199,151,279
922,199,151,278
923,199,150,276
925,198,149,275
926,196,148,274
926,195,147,272
927,195,147,271
925,194,146,270
915,193,146,268
889,192,145,267
879,191,144,265
869,190,143,265
860,189,143,263
850,188,143,262
841,187,142,260
831,187,140,259
823,185,140,258
814,184,140,257
806,184,139,255
797,183,138,254
790,182,137,253
781,181,137,252
774,180,135,251
767,179,135,249
759,179,135,249
751,178,135,248
743,177,134,246
738,176,133,245
731,176,132,243
724,174,132,243
717,174,131,241
711,173,131,240
705,172,130,239
699,171,129,238
692,170,129,237
686,170,127,236
679,169,127,235
675,167,127,233
669,167,126,233
664,167,126,231
657,166,125,231
652,165,125,230
647,163,124,228
641,163,124,227
637,163,123,227
632,162,122,225
627,161,122,224
622,160,121,223
617,159,121,223
611,159,120,221
607,158,120,220
603,158,119,220
598,157,118,218
593,156,118,217
589,155,117,216
585,155,117,216
580,154,116,214
575,153,115,213
572,152,115,212
568,152,115,211
563,152,114,211
559,151,114,210
555,150,113,209
551,149,113,207
547,149,112,206
543,147,112,206
539,147,111,205
536,146,110,204
531,146,110,203
528,145,110,202
525,144,109,201
521,143,109,199
518,143,108,199
514,143,108,199
510,142,107,198
507,141,107,197
503,141,106,195
499,140,105,195
497,140,105,194
493,139,104,193
490,138,103,192
487,137,103,192
483,137,103,191
480,135,102,190
477,135,102,189
475,135,102,188
472,134,101,187
468,134,101,187
465,133,100,186
462,133,99,185
460,132,99,184
457,131,99,184
454,131,98,183
451,130,98,182
449,130,98,181
446,129,97,180
444,128,97,179
441,128,96,179
439,127,96,178
435,127,96,177
433,126,95,176
431,126,95,176
428,125,94,175
425,124,94,174
423,124,93,174
421,124,93,173
419,123,93,172
415,122,92,172
414,122,92,171
412,121,91,170
409,121,91,169
407,120,91,167
405,120,90,167
403,119,89,167
400,119,89,167
398,118,89,166
396,118,89,165
393,117,88,164
391,116,88,163
390,116,88,163
387,115,87,163
385,115,87,161
383,115,86,161
381,114,86,161
379,114,86,159
377,113,85,159
375,113,85,159
373,112,84,158
371,112,83,157
369,112,83,156
367,111,83,156
365,110,83,155
363,110,83,154
361,109,82,154
359,109,81,153
357,109,81,152
355,108,81,152
353,108,80,152
352,107,80,151
350,107,79,150
348,106,79,150
346,106,79,149
344,105,79,148
343,105,78,172
341,103,78,173
339,103,78,172
338,103,77,171
335,103,77,170
334,103,77,169
332,102,76,167
331,102,76,167
329,101,76,166
327,101,75,165
326,100,75,164
324,99,75,163
323,99,74,163
321,99,74,162
319,99,73,161
318,98,73,159
317,97,73,159
315,97,73,158
313,97,71,158
312,97,71,184
311,96,71,188
309,96,71,187
307,96,71,186
306,95,71,185
305,94,71,184
304,95,70,183
302,94,70,182
300,94,70,181
299,93,69,180
297,93,69,179
295,92,69,178
295,92,69,177
293,92,68,176
292,91,67,176
291,91,67,174
289,91,67,174
287,90,67,173
287,90,67,172
286,89,66,171
284,89,66,171
283,89,66,169
281,88,66,169
280,88,65,230
279,88,65,231
278,88,65,231
276,87,64,229
275,87,64,227
274,86,63,227
273,86,63,225
271,86,131,224
270,85,164,223
269,84,163,221
268,85,161,220
266,83,160,219
265,83,159,218
263,83,158,217
263,83,157,216
261,83,156,214
260,82,156,213
259,82,155,212
257,81,154,211
256,81,153,210
255,81,152,209
254,80,152,207
253,80,195,206
252,79,193,205
251,79,192,204
249,79,190,203
248,78,190,202
247,78,188,201
246,78,188,199
244,78,186,199
243,77,185,198
242,77,184,197
241,76,184,196
240,76,182,195
239,76,181,194
238,76,180,193
237,76,179,192
236,75,178,191
235,75,177,190
233,75,176,189
231,74,175,188
231,74,174,187
231,73,173,186
229,121,173,185
228,120,172,184
227,119,171,184
226,118,169,182
225,117,169,181
224,116,167,180
223,115,167,179
222,115,166,178
221,114,165,177
220,113,164,177
219,195,163,176
218,224,162,175
217,222,162,174
216,220,161,173
215,219,159,172
214,217,159,171
213,216,158,170
211,214,157,169
211,213,156,169
210,211,156,167
209,211,155,167
207,209,154,166
207,207,153,165
206,207,152,164
205,206,152,163
204,204,151,163
203,203,150,162
202,201,149,161
201,201,148,159
199,199,147,159
199,198,147,158
198,197,146,158
198,196,145,157
196,195,145,156
195,194,143,155
195,193,143,155
194,192,142,154
193,190,142,153
192,190,141,152
191,188,140,152
190,187,139,152
189,186,139,150
188,185,138,149
188,184,137,149
187,184,135,148
185,182,135,147
185,181,135,147
184,180,134,146
184,179,134,145
183,178,133,145
182,177,132,143
181,176,131,143
179,175,134,143
179,174,214,142
178,173,245,142
177,172,243,141
177,171,241,140
176,170,239,140
175,169,238,139
174,169,236,139
173,167,235,138
173,167,233,137
172,166,231,137
171,165,231,135
170,164,229,135
169,163,227,135
169,162,227,134
167,161,225,134
167,160,224,133
166,159,223,133
166,159,221,132
165,158,220,131
164,157,219,131
163,156,217,131
163,155,216,130
162,155,216,129
161,154,214,129
160,153,213,127
159,152,211,127
159,152,210,127
158,150,209,126
158,150,207,126
157,149,207,125
156,148,206,125
156,147,205,124
155,147,204,124
154,146,203,123
153,145,201,123
153,144,199,122
152,143,199,121
152,143,198,121
152,142,197,120
150,142,195,120
150,141,235,120
149,140,352,119
148,139,350,118
147,138,347,118
146,137,344,117
146,137,341,117
145,135,339,116
145,135,337,115
143,135,335,115
143,134,332,115
143,134,331,114
142,133,327,114
142,132,327,113
141,131,324,113
140,130,323,112
140,130,321,112
139,129,319,112
138,129,317,111
137,128,315,111
137,127,313,110
136,126,311,109
135,126,309,109
135,125,307,109
135,124,305,108
134,124,304,108
134,123,302,107
133,123,300,107
132,121,299,106
131,121,297,106
131,121,297,105
130,121,327,105
130,120,325,103
129,119,323,103
129,119,321,103
127,118,319,103
127,117,317,103
127,116,315,102
126,116,313,102
126,115,311,101
125,115,309,101
125,115,307,100
124,114,305,100
124,113,304,99
123,112,302,99
123,112,300,99
122,112,299,98
121,111,297,98
121,110,295,98
121,110,294,97
120,109,291,97
119,109,290,96
119,108,289,96
118,108,287,96
118,107,286,95
118,107,284,95
117,106,283,94
116,105,281,94
115,107,280,94
115,105,278,93
115,105,277,93
115,105,275,93
114,103,274,92
113,103,273,92
115,103,271,91
114,103,270,91
114,103,268,90
113,102,267,90
112,115,265,90
112,205,263,89
112,203,263,89
111,201,262,89
110,199,259,88
110,199,259,88
110,198,257,88
109,196,255,87
109,195,255,87
109,194,253,87
108,193,252,86
108,192,251,86
107,191,249,86
107,189,248,85
107,188,247,85
105,187,246,84
105,186,244,84
105,185,243,84
103,184,242,83
103,183,241,83
103,182,240,83
103,181,239,83
103,179,237,82
102,192,236,82
102,240,235,81
101,239,233,81
101,237,231,81
100,235,231,80
99,234,230,79
99,231,230,79
99,231,228,79
99,230,227,79
99,229,227,79
98,227,225,79
98,226,224,78
97,225,223,78
97,224,222,78
96,222,221,77
96,221,220,77
96,220,219,77
96,219,289,76
95,217,309,76
95,216,306,76
94,216,305,76
94,214,303,76
93,213,301,75
93,271,300,75
93,344,297,75
92,342,295,74
92,338,295,73
92,335,293,73
91,334,291,73
91,332,289,73
91,329,287,73
90,327,286,71
89,326,285,71
89,323,284,71
89,322,282,71
88,319,281,71
88,318,279,71
88,316,278,71
88,314,276,70
88,313,275,70
87,311,273,70
86,309,271,70
86,307,270,69
86,305,269,69
85,304,268,69
85,302,267,68
84,300,265,68
84,299,263,67
84,297,262,67
83,295,260,67
83,294,259,67
83,292,258,67
82,290,257,67
82,289,255,66
82,287,254,66
82,286,253,66
81,284,252,65
81,283,251,65
80,281,249,65
80,280,248,64
79,279,247,64
79,277,245,63
79,275,244,63
79,274,243,63
78,272,242,63
78,271,240,63
78,270,240,63
77,268,238,63
77,267,237,62
77,265,236,62
76,263,235,62
76,263,233,62
76,261,231,61
76,259,231,61
75,259,231,61
75,258,229,60
75,255,228,60
75,255,227,60
74,253,226,60
73,252,225,60
73,251,224,60
73,249,223,59
73,248,222,59
73,247,221,58
71,246,220,59
71,244,219,58
71,243,217,58
71,242,217,57
71,241,216,57
71,240,215,57
71,238,214,57
70,237,213,57
70,236,211,57
69,235,211,56
69,233,210,56
69,231,209,56
69,231,207,56
68,230,207,56
68,229,206,55
67,227,205,56
67,227,204,55
67,226,203,55
67,224,202,54
67,224,201,54
66,223,199,54
66,221,199,54
66,221,199,54
66,219,198,53
65,219,197,53
65,217,195,53
65,216,195,52
64,216,194,52
64,214,194,52
63,213,192,51
63,212,192,51
63,211,191,51
63,211,190,51
63,209,189,51
62,207,188,51
62,207,188,50
62,206,186,50
62,205,186,50
62,204,185,50
61,203,184,49
61,202,184,50
61,201,183,49
61,199,182,49
60,199,181,49
60,199,180,49
60,198,179,49
60,197,179,48
60,195,178,48
59,195,177,48
59,194,176,48
59,193,175,47
58,192,175,47
58,191,174,47
58,190,173,47
57,189,172,47
57,188,172,46
57,188,171,46
57,187,171,46
57,186,169,46
56,185,169,46
56,184,167,46
56,184,167,46
56,183,167,45
56,182,166,45
60,181,165,45
60,180,164,45
60,179,163,44
59,178,163,44
59,177,162,44
59,177,161,44
58,176,161,44
58,175,159,44
58,174,159,44
57,174,159,43
57,172,158,43
57,172,157,43
57,171,156,43
57,170,156,43
57,169,155,42
56,167,155,42
56,167,154,42
56,167,153,42
56,167,153,41
56,166,152,41
55,165,152,41
55,165,151,41
55,163,150,41
75,163,150,41
75,162,149,40
75,161,147,39
74,161,147,39
73,159,147,39
73,159,146,39
73,158,146,39
71,158,145,39
71,157,144,39
71,156,143,39
71,156,143,39
71,155,142,39
120,154,142,38
118,153,141,38
117,152,141,38
115,152,140,38
115,152,139,38
115,151,139,38
114,150,138,38
113,149,137,37
113,149,136,37
112,147,135,37
112,147,135,37
112,146,135,36
112,145,134,36
111,145,134,36
110,144,133,36
110,143,133,36
109,145,131,35
109,151,131,35
108,150,131,35
108,149,130,35
107,148,129,35
106,147,129,35
108,147,128,35
121,145,127,35
120,145,127,35
119,143,127,35
118,143,126,34
118,143,125,34
117,142,125,34
116,141,124,34
115,141,124,33
115,140,123,33
114,139,123,33
114,139,122,33
134,138,121,33
133,137,121,33
132,136,121,33
131,135,120,32
131,147,120,33
130,147,119,32
129,146,119,32
128,145,118,31
127,144,117,31
127,143,116,31
126,143,116,31
125,142,115,31
125,141,115,31
124,140,115,31
124,139,115,31
123,139,114,31
122,172,113,31
121,171,113,30
121,169,112,30
120,167,112,30
120,167,111,30
119,166,111,30
118,165,110,30
118,164,110,30
117,163,109,29
116,163,109,29
115,163,108,29
115,214,108,29
114,214,108,29
113,212,107,29
113,211,107,29
113,209,106,28
112,208,105,28
112,207,105,28
112,206,103,28
112,205,103,28
111,203,103,28
110,203,103,28
110,211,103,28
109,211,102,28
108,209,101,28
108,208,101,27
108,207,101,27
107,206,100,27
106,205,99,27
108,204,99,27
107,202,99,27
106,201,99,26
105,199,98,26
105,235,98,26
103,275,97,26
103,273,97,26
103,271,96,26
103,269,96,25
102,267,96,25
102,265,95,25
103,263,95,25
105,262,94,25
103,261,94,25
103,259,94,25
103,258,93,25
103,257,93,25
102,255,93,24
102,254,92,25
101,252,92,24
100,251,91,24
100,249,91,24
99,248,91,24
102,247,90,24
101,245,90,24
100,244,89,24
100,243,89,24
99,241,89,24
99,240,88,24
98,239,88,23
98,238,88,24
97,237,88,23
97,236,87,24
97,235,86,23
96,233,86,23
102,231,86,23
101,231,86,22
101,230,85,22
100,229,85,22
99,227,84,22
99,227,84,22
99,225,83,22
98,224,83,22
97,224,83,22
97,222,83,22
97,221,82,22
96,220,82,21
96,219,81,21
96,217,81,21
96,217,81,21
95,216,80,21
94,215,80,21
94,214,80,21
94,216,79,20
93,215,79,21
93,213,79,21
92,212,79,20
92,211,79,20
92,210,78,20
91,209,78,20
92,207,78,20
92,207,77,19
91,206,77,20
90,205,76,19
90,205,76,19
90,204,76,19
89,203,76,19
89,201,75,19
89,201,75,19
88,199,75,19
88,199,74,19
88,198,74,19
87,197,74,19
87,195,73,19
86,195,73,19
86,194,73,19
85,193,72,19
85,192,71,19
85,192,71,18
84,191,71,18
83,190,71,18
83,189,71,18
83,188,71,18
83,187,71,18
92,187,70,18
96,185,70,18
95,184,70,17
94,184,70,17
94,183,69,17
93,182,69,17
93,181,68,17
92,181,68,17
92,179,68,17
92,179,67,17
91,178,67,17
91,177,67,16
90,176,67,17
92,176,66,17
91,175,66,17
90,174,66,17
90,173,66,17
89,173,65,16
89,177,65,16
89,176,65,16
88,176,64,16
88,175,64,16
88,174,64,16
87,173,63,16
87,172,63,16
97,171,63,15
101,171,63,16
99,169,63,15
99,169,62,15
99,167,62,15
99,167,62,15
98,167,62,15
97,166,61,15
97,165,61,15
96,164,61,15
96,163,60,15
96,163,60,15
95,162,60,15
94,161,60,15
94,160,60,14
94,159,60,15
93,159,59,14
93,158,59,15
92,158,59,14
92,157,59,14
91,156,58,14
91,156,58,14
90,155,57,14
89,155,57,14
89,153,57,14
92,153,57,14
92,152,57,14
91,152,56,14
91,151,56,13
90,151,56,14
89,150,56,13
89,150,56,13
89,148,56,13
88,148,56,13
88,147,55,13
88,146,54,13
88,146,54,13
133,145,54,13
135,145,54,13
135,143,54,13
135,143,53,13
133,142,53,13
133,142,53,13
131,141,52,12
131,141,52,13
130,140,52,12
130,139,52,12
129,139,52,12
128,138,51,12
127,137,51,12
127,137,51,12
126,135,51,12
126,135,50,12
125,135,50,12
124,141,50,12
124,143,50,12
123,143,50,12
122,142,50,12
121,142,49,11
121,141,49,11
120,140,49,11
120,140,49,11
120,139,48,11
118,138,48,11
118,137,48,11
117,135,48,11
117,135,48,11
116,135,47,11
115,134,47,11
115,134,47,11
115,133,46,11
114,133,47,10
113,132,46,10
113,131,46,10
113,131,46,11
112,130,46,10
112,130,45,10
111,129,45,10
111,130,45,10
110,129,45,10
109,128,44,10
109,128,44,10
108,127,44,9
108,127,44,10
111,126,44,9
112,126,44,9
112,125,44,9
112,124,43,9
110,124,43,10
110,128,43,9
110,133,42,9
109,132,42,9
109,131,42,9
108,131,42,9
107,130,42,9
107,129,42,9
107,129,41,9
110,128,41,9
110,127,41,9
109,127,41,9
109,126,41,9
108,125,41,9
108,134,40,9
107,135,39,7
107,134,39,8
106,134,39,8
105,133,39,9
105,132,39,8
104,131,39,8
110,131,39,8
110,130,39,7
109,129,39,7
108,128,39,7
108,127,39,7
107,135,39,7
107,135,38,7
106,134,38,7
105,134,38,7
105,133,38,7
105,132,38,7
103,131,37,7
107,131,37,7
108,130,37,7
108,129,37,7
107,129,36,7
107,128,36,7
106,127,37,7
105,132,36,7
105,131,36,7
103,131,35,7
103,130,35,7
103,129,35,7
103,128,35,7
103,127,35,7
103,127,35,7
103,126,35,7
103,126,35,7
102,125,35,7
102,125,34,7
101,151,34,7
100,157,34,7
100,156,34,7
99,156,34,7
99,155,34,7
98,153,33,7
98,153,33,7
103,152,33,7
110,152,32,7
109,151,33,7
108,150,33,6
108,149,32,6
108,148,32,7
107,155,32,6
106,154,32,6
106,153,31,6
105,152,31,6
103,152,31,6
103,151,31,6
103,150,31,6
113,149,31,6
112,148,31,6
111,147,31,6
110,147,31,6
110,146,31,6
110,167,31,6
109,167,30,6
109,166,30,6
108,165,30,6
108,164,30,6
107,163,30,6
107,163,29,5
106,161,30,6
105,161,29,5
105,159,29,6
103,159,29,5
103,158,29,5
103,157,29,5
103,167,28,6
102,167,28,5
102,167,28,5
101,166,28,5
101,165,28,5
100,163,28,5
101,163,28,5
101,162,28,5
101,161,28,5
99,160,28,5
99,159,27,5
99,159,27,5
99,159,27,5
98,158,27,5
98,157,27,5
97,156,27,5
97,156,27,5
