183,105,7,13
182,103,7,12
181,103,7,12
179,103,7,13
179,102,7,12
178,101,7,12
177,101,7,12
178,100,7,12
184,99,7,12
183,99,7,12
182,98,7,12
181,98,7,12
179,97,7,12
179,97,7,12
178,97,7,12
177,96,7,12
176,96,7,12
175,96,7,11
174,95,7,11
174,94,7,11
173,94,7,11
189,94,7,11
188,93,7,11
187,93,7,11
186,92,7,11
185,92,6,11
184,91,7,11
183,91,7,11
182,91,7,11
181,89,6,10
180,89,6,10
179,89,6,11
178,89,6,10
178,88,6,11
181,88,6,11
179,88,6,11
179,87,6,11
178,87,6,11
177,86,6,11
176,86,6,10
176,86,6,10
175,85,6,10
174,85,6,10
173,85,6,10
172,84,6,10
171,83,6,10
171,83,6,10
176,83,6,10
175,83,6,13
174,82,6,14
173,81,6,14
172,81,6,13
172,85,6,14
171,85,6,13
170,84,6,13
169,83,6,13
167,83,6,13
167,83,6,13
167,83,6,13
166,82,7,13
206,81,7,13
205,81,7,13
204,81,7,13
203,81,7,13
202,79,7,13
199,79,7,13
199,79,7,13
199,79,7,13
197,78,7,13
197,78,7,13
195,78,7,12
195,77,7,12
194,77,7,12
199,77,7,12
198,76,7,12
197,76,7,14
195,76,7,14
195,76,7,14
194,76,7,14
193,76,7,14
192,75,6,14
191,75,7,14
190,74,7,14
189,74,6,14
188,73,6,13
187,73,7,13
190,73,7,13
188,71,7,17
188,71,7,27
186,71,7,26
185,71,7,26
184,71,7,26
184,71,7,25
184,71,7,25
182,71,6,25
181,70,7,25
180,71,7,25
179,70,7,25
179,69,7,24
188,69,7,24
187,69,7,24
186,68,7,24
185,68,7,24
184,68,7,24
183,73,7,24
182,71,7,24
181,71,7,23
181,71,7,23
179,71,6,24
179,71,6,23
178,71,6,23
177,70,7,23
195,70,7,23
194,70,7,22
193,69,6,22
192,69,6,22
191,69,6,22
190,69,7,22
189,68,6,22
188,68,6,22
187,67,6,22
186,67,6,21
185,67,6,21
185,67,6,21
184,66,7,21
205,66,7,21
204,66,7,21
203,65,7,21
201,65,7,21
199,65,7,21
199,66,7,21
199,65,7,20
197,65,7,21
196,65,7,20
195,65,7,20
194,64,7,20
193,64,7,20
193,63,7,20
198,63,7,19
197,63,7,19
195,63,6,20
194,62,7,20
193,62,6,19
192,74,6,19
192,74,7,19
190,73,6,19
190,73,6,19
189,71,6,19
188,71,6,19
187,71,6,19
186,71,6,19
195,71,7,19
195,71,7,19
195,70,6,18
193,70,6,18
192,70,6,18
192,106,6,18
191,103,6,18
189,103,6,18
189,103,6,18
188,102,6,17
187,102,6,17
185,101,6,17
185,101,13,17
199,100,12,17
197,99,12,17
196,99,12,17
195,99,12,17
194,98,12,16
193,97,12,16
192,97,12,16
191,96,12,16
190,96,12,16
189,95,11,16
188,95,12,16
187,95,12,16
201,94,11,15
201,94,11,15
199,93,12,17
199,93,11,17
198,92,11,17
197,92,11,17
196,91,11,17
195,91,11,17
194,90,11,16
193,90,10,16
192,89,10,16
192,89,10,16
190,88,11,16
191,88,11,16
190,88,10,16
188,87,10,15
188,87,10,15
187,89,10,15
185,88,10,15
185,88,10,15
184,87,10,15
183,87,10,15
182,86,9,15
181,86,9,15
180,85,9,14
185,85,9,15
184,84,9,15
183,84,9,15
182,83,9,15
181,83,9,16
179,83,9,17
179,83,9,16
178,83,9,16
177,82,9,16
177,82,9,16
176,81,9,16
175,81,9,16
174,80,9,16
193,80,9,15
193,79,9,15
192,79,9,15
191,79,9,15
190,79,9,15
189,78,9,15
188,78,9,15
187,78,9,15
185,78,8,15
185,77,7,15
184,77,9,15
184,76,7,14
182,76,7,15
193,75,8,14
193,75,8,14
192,75,7,14
191,79,8,14
190,79,7,14
189,156,7,14
188,157,7,14
187,155,7,14
186,155,7,14
185,153,7,14
184,152,7,13
183,152,7,13
183,151,7,13
231,150,7,13
229,149,7,13
227,148,7,13
226,147,7,13
224,147,7,13
224,146,7,13
222,145,7,13
221,145,7,13
220,143,7,12
219,143,7,29
218,142,7,74
217,142,10,85
216,141,11,84
214,140,11,83
214,140,11,83
212,139,12,82
211,140,11,81
209,152,11,81
209,152,11,80
207,150,11,80
206,149,11,79
206,149,11,79
205,147,10,108
204,147,10,231
205,146,11,325
204,145,10,462
203,144,11,475
201,155,10,471
199,284,11,466
199,382,10,463
198,376,10,459
197,373,10,455
195,371,10,452
195,367,10,449
194,365,10,446
204,363,10,443
204,359,9,440
203,358,9,437
201,355,9,435
199,353,9,431
199,352,9,429
198,349,10,426
196,347,9,423
195,345,9,421
195,344,9,418
193,341,9,415
192,339,9,413
192,337,9,411
191,341,9,408
190,341,9,406
188,339,9,403
188,337,9,401
187,335,9,399
185,333,8,396
185,331,8,395
184,327,7,391
183,327,7,390
182,326,25,388
231,323,27,385
259,433,27,384
257,551,26,381
255,673,26,423
254,667,26,421
253,659,25,417
251,652,25,414
249,647,25,412
248,639,25,408
246,635,25,406
245,629,25,403
243,623,25,401
242,619,50,437
241,613,49,467
239,608,49,463
238,603,48,460
237,599,48,457
235,593,48,454
234,588,48,450
233,583,47,448
231,579,51,444
231,575,126,440
229,570,125,438
253,565,124,435
251,560,123,432
249,557,123,507
247,551,121,528
246,547,121,523
244,543,120,519
243,539,120,514
241,536,118,510
240,531,117,505
239,527,117,502
237,523,116,524
236,519,115,659
235,515,115,655
233,511,114,649
231,507,113,642
231,504,113,637
229,500,112,632
227,496,112,625
226,493,111,619
225,489,111,615
224,487,110,686
231,483,109,872
231,479,108,891
230,476,108,877
228,473,108,868
227,470,107,857
225,466,106,847
224,463,105,836
223,460,105,829
221,457,103,819
220,454,103,809
219,451,103,799
217,448,102,793
216,445,102,785
216,442,102,777
214,439,101,768
213,436,100,762
212,433,99,844
211,431,99,835
209,428,99,828
209,425,98,817
207,423,98,811
279,421,144,801
294,417,143,792
291,415,142,783
289,413,141,776
287,410,140,768
286,408,139,760
284,405,138,831
282,403,137,823
280,399,135,812
278,397,135,803
277,395,135,793
275,391,134,787
273,390,133,778
271,387,133,769
270,385,131,761
269,384,131,754
267,381,130,747
265,379,129,739
263,376,129,731
262,374,127,726
261,371,127,719
259,369,127,711
284,368,126,705
281,450,125,699
280,543,127,694
278,537,158,687
276,532,157,680
274,528,156,674
273,524,155,669
271,519,154,664
270,515,153,657
268,511,152,674
266,507,152,840
270,503,150,889
268,499,149,907
266,495,149,913
263,492,147,915
263,487,147,918
262,484,146,918
259,514,145,914
258,615,145,900
257,610,143,883
255,604,143,871
273,598,142,861
319,594,141,853
317,588,140,843
315,583,140,833
313,577,139,888
311,574,138,907
309,568,137,911
307,563,136,915
305,558,135,915
303,555,135,909
301,550,140,892
299,545,139,879
297,541,139,868
295,537,137,857
294,533,137,850
292,528,135,839
290,524,135,830
287,521,135,820
287,517,134,814
285,513,133,804
284,508,132,796
281,504,131,787
281,501,131,781
280,497,130,772
278,494,130,764
277,489,129,755
275,487,127,750
273,483,127,742
271,480,127,735
270,476,126,728
268,473,125,722
267,470,124,715
269,466,124,708
268,463,123,701
266,460,122,695
263,457,122,689
262,454,121,683
261,451,121,677
259,448,120,671
258,445,120,666
257,442,119,660
255,439,118,654
254,436,118,647
252,433,117,644
251,430,115,638
250,427,115,633
248,423,115,627
247,422,114,623
246,419,114,618
244,415,113,613
243,413,112,608
241,412,112,604
240,409,112,599
239,406,111,594
237,403,110,589
236,401,110,585
235,399,109,581
233,396,108,575
231,393,108,572
231,391,108,568
230,389,107,563
228,386,106,560
227,384,106,555
226,382,105,551
227,379,105,547
246,377,103,543
245,374,103,539
243,372,103,536
242,370,103,532
240,368,102,528
239,366,102,524
237,364,101,520
236,361,100,518
235,359,99,513
233,357,99,509
231,355,99,507
231,353,98,504
229,352,98,500
228,349,97,497
227,348,97,494
226,357,96,491
224,355,96,487
223,353,95,485
222,350,95,481
221,348,94,479
220,346,94,476
219,344,94,472
217,342,93,470
216,339,93,467
216,338,92,464
215,336,92,462
213,334,91,458
212,333,91,455
211,331,91,453
210,329,90,451
209,327,89,448
207,325,89,446
207,324,89,443
206,322,88,440
205,320,88,438
204,319,88,435
203,317,87,433
201,315,86,430
201,435,86,428
199,432,86,425
199,428,85,423
198,426,85,420
197,423,84,418
195,419,83,415
195,416,83,413
194,413,83,411
193,411,82,409
192,408,82,406
191,405,82,404
190,403,81,402
189,399,81,399
188,398,80,398
187,394,80,395
186,391,79,393
185,390,79,391
185,387,78,388
184,384,79,387
183,382,78,384
182,380,78,383
181,377,77,380
179,375,77,378
179,372,77,377
178,370,76,374
177,368,76,372
176,366,76,370
176,363,75,369
175,361,75,367
174,359,75,364
173,357,74,363
172,354,74,361
171,353,73,359
171,350,73,358
170,348,72,355
169,347,71,353
167,344,71,352
167,343,71,350
167,340,71,348
166,338,71,347
165,335,71,345
163,334,70,343
163,333,70,341
163,331,70,339
162,329,69,338
161,327,69,335
160,324,68,334
159,325,68,333
159,323,67,331
158,321,67,329
157,319,67,327
157,317,67,326
156,316,66,324
155,314,66,323
154,312,65,321
153,311,65,319
153,309,65,318
152,307,65,316
152,305,64,315
151,304,64,313
150,303,63,312
149,301,63,311
149,300,63,308
148,298,63,307
147,295,62,306
147,295,62,304
146,294,62,303
145,291,61,302
145,290,61,300
143,289,61,299
143,287,61,297
142,286,60,295
142,284,60,294
162,283,60,293
161,281,60,291
159,280,60,290
158,280,59,289
158,278,59,287
157,276,59,286
156,275,58,285
155,273,110,283
154,271,137,282
153,271,135,280
152,269,135,280
152,268,134,278
151,267,133,276
150,265,132,275
149,263,131,273
147,262,131,272
147,261,130,271
147,259,129,270
145,258,129,268
145,257,127,267
143,255,233,265
251,254,230,265
287,253,227,263
284,252,227,262
282,250,225,261
280,249,224,259
279,248,222,258
277,247,221,257
275,245,220,255
273,244,218,254
271,243,217,253
270,241,216,252
268,240,214,251
266,239,213,249
265,238,211,248
263,237,211,247
262,242,210,246
260,241,209,245
259,302,207,244
257,300,206,243
255,297,205,241
254,295,204,240
252,293,203,239
301,291,201,238
435,289,199,237
439,287,199,236
435,286,198,235
432,284,197,234
428,282,196,231
425,280,195,231
422,279,194,231
419,277,193,230
415,275,192,228
435,273,191,227
547,271,190,227
542,329,189,225
537,326,198,224
532,323,197,223
527,321,195,222
524,339,195,221
519,428,218,220
515,485,216,219
512,481,215,218
551,477,214,217
725,473,268,216
858,469,265,215
846,466,263,214
835,462,261,213
826,459,259,212
816,455,258,211
807,452,255,210
799,449,255,210
792,446,253,208
783,442,252,207
775,439,250,206
766,436,248,206
759,433,248,205
752,430,247,204
744,427,312,203
737,423,438,202
730,422,469,201
723,418,465,199
717,415,461,199
710,413,457,199
704,410,454,198
697,408,451,197
691,403,448,195
685,402,444,195
679,464,441,194
673,556,438,193
668,551,435,192
662,547,432,191
655,542,429,191
650,537,426,190
645,532,423,189
639,529,421,188
634,524,418,187
629,519,415,186
624,515,413,185
619,512,410,184
614,508,408,184
609,504,405,184
604,499,403,182
600,496,399,181
595,493,398,181
591,489,395,180
586,485,391,179
582,481,390,178
577,479,387,177
573,475,385,176
569,472,384,176
564,467,381,175
561,465,378,175
556,462,376,174
551,458,374,173
548,455,371,172
544,452,369,171
540,449,367,171
537,445,364,170
533,443,363,169
529,440,361,167
526,437,359,167
521,433,356,167
519,431,355,166
515,428,352,165
511,425,350,164
508,423,348,163
504,419,347,163
500,417,344,163
497,414,343,162
494,412,340,161
491,408,339,159
487,406,337,159
483,403,335,159
481,401,333,158
478,398,332,158
475,396,329,157
472,393,327,156
468,391,326,156
465,388,323,155
463,385,322,154
460,384,319,153
457,381,318,153
454,379,317,152
451,376,315,152
448,374,313,151
446,371,312,150
443,369,310,150
440,367,309,149
437,365,307,148
435,363,305,147
432,361,304,147
429,359,302,147
427,356,300,145
423,355,299,145
422,352,297,144
419,350,295,143
417,348,294,143
414,346,292,143
412,344,291,142
409,342,289,141
407,339,287,140
404,338,286,140
402,335,284,140
399,334,283,139
398,332,281,138
395,331,280,137
393,327,279,137
391,327,278,137
388,324,276,135
386,323,275,135
384,321,273,135
381,319,271,134
379,317,270,133
377,316,269,133
376,313,267,132
373,312,266,132
371,310,265,131
369,309,263,131
367,307,262,130
365,305,261,130
363,304,259,129
361,302,258,128
359,300,256,127
357,299,255,127
355,295,254,127
353,295,252,126
351,294,252,125
349,291,250,125
347,290,249,125
345,289,248,124
344,287,247,123
341,286,245,123
339,284,244,122
337,283,243,121
335,281,241,121
334,280,240,121
332,278,240,120
331,276,238,120
329,275,237,120
327,273,236,119
325,271,235,118
323,270,233,118
322,270,231,117
319,268,231,117
319,266,230,116
317,265,229,115
315,263,227,115
313,262,226,114
312,261,225,114
311,259,224,114
308,258,223,113
307,257,222,113
305,255,221,112
304,254,220,112
302,253,219,112
301,251,218,111
299,250,217,111
297,249,216,110
295,248,215,109
295,247,213,109
293,245,213,108
291,243,211,108
290,242,211,108
287,241,209,107
287,240,209,106
286,239,207,106
284,238,207,105
283,236,206,105
281,235,205,105
280,234,204,103
279,231,203,103
277,231,201,103
275,231,201,103
274,229,199,102
273,228,199,102
271,227,198,102
270,226,197,101
269,225,196,101
268,224,195,100
266,223,194,99
265,222,193,99
263,220,192,99
262,220,192,99
261,219,191,98
260,217,190,98
259,216,189,97
257,216,188,97
255,215,187,96
255,214,187,96
253,213,185,96
252,211,185,96
251,210,184,95
250,209,183,95
249,208,182,94
248,207,182,94
247,207,181,94
245,206,179,93
245,205,179,93
243,204,178,92
242,203,177,92
241,202,177,92
240,201,176,91
239,199,175,91
238,199,174,90
237,198,174,90
236,197,173,89
235,197,172,89
233,195,171,89
231,195,171,88
231,194,169,88
230,193,169,88
229,192,167,88
227,192,167,88
227,190,167,87
226,190,166,86
225,188,165,86
224,188,164,86
223,187,163,85
222,186,163,85
221,185,162,85
220,184,161,84
219,184,161,84
217,183,159,83
217,182,159,83
216,181,159,83
216,180,158,83
214,179,157,82
213,178,157,82
212,178,156,82
211,177,156,81
210,176,155,81
209,176,154,81
207,175,153,80
207,174,153,80
206,173,152,79
205,173,152,79
204,171,150,79
204,171,150,79
203,170,149,78
202,169,148,78
201,167,147,78
199,167,147,114
199,167,146,113
198,166,146,112
197,165,145,112
196,164,144,111
195,163,143,110
194,163,143,110
193,163,143,109
192,161,142,108
192,161,141,108
191,159,141,107
190,159,140,106
189,159,139,106
188,158,139,105
187,157,138,105
186,156,137,103
185,156,137,103
185,155,135,103
184,154,135,102
183,153,135,102
182,153,134,101
181,152,134,101
180,152,133,100
179,151,132,99
179,150,131,99
178,149,131,99
177,148,131,98
176,148,130,97
176,147,129,97
175,147,129,97
174,146,129,96
173,145,127,96
172,145,127,95
172,143,127,94
171,143,126,94
170,143,126,94
169,142,125,93
169,142,124,93
167,141,124,92
167,140,124,92
166,140,123,91
166,139,122,91
165,138,122,90
165,138,121,89
163,137,121,89
163,137,120,88
162,135,120,88
162,135,119,88
161,135,118,88
159,135,118,88
159,134,118,87
158,133,117,86
158,133,117,86
157,132,116,85
157,131,115,85
156,131,115,84
155,130,114,84
155,129,114,83
154,129,113,83
153,129,113,83
153,127,112,82
152,127,112,82
152,127,112,81
151,126,111,81
150,126,110,81
182,125,110,80
309,124,110,79
394,124,109,79
390,124,109,79
387,123,108,79
384,123,108,78
382,121,108,78
379,121,107,78
376,121,107,78
374,120,105,77
371,120,105,77
369,119,105,76
367,119,103,76
364,118,103,76
363,118,103,75
359,117,103,75
358,117,103,74
355,116,102,74
353,115,102,74
352,115,101,73
349,115,101,73
347,114,100,73
345,114,100,73
344,113,99,72
383,112,99,71
380,112,99,71
377,112,98,71
375,111,98,71
372,111,98,71
370,110,97,71
368,110,97,70
366,109,96,70
364,109,96,70
361,109,96,70
359,108,95,69
385,108,95,69
413,107,94,69
409,107,94,68
408,106,94,68
404,106,93,67
402,105,93,67
399,105,92,67
397,104,92,67
394,103,91,67
391,103,91,66
390,103,91,67
387,103,91,66
385,102,90,65
382,102,89,65
380,102,89,65
377,101,89,65
376,101,88,65
374,100,88,64
371,100,88,64
369,99,88,63
367,99,88,63
365,99,87,63
363,98,87,63
361,98,86,63
359,97,86,62
357,97,86,63
355,96,85,62
353,96,85,77
352,96,84,86
350,96,84,85
348,95,83,84
345,95,83,84
344,94,83,84
343,94,83,83
340,94,82,83
339,94,82,83
337,93,82,82
335,92,81,82
334,92,81,81
332,92,81,81
330,92,80,79
327,91,79,80
327,91,79,79
325,91,79,79
323,90,79,79
322,89,78,78
319,89,78,78
319,89,78,78
317,89,78,77
315,88,78,77
314,88,77,76
312,88,77,76
311,88,77,76
309,87,76,75
307,87,76,75
306,87,76,75
304,86,76,74
303,86,75,74
302,85,75,73
300,85,74,73
299,84,74,73
297,84,74,71
295,83,73,71
295,83,73,71
293,83,73,71
291,83,73,71
290,82,71,71
289,82,71,71
287,82,71,70
286,81,71,70
284,81,71,69
283,81,71,69
282,80,71,69
281,80,71,69
280,80,70,68
278,79,70,67
276,79,69,67
275,79,70,67
274,105,69,67
273,206,69,67
271,340,68,66
270,367,68,66
269,363,67,65
268,361,67,65
266,358,67,65
264,355,67,64
263,354,67,64
262,351,67,63
261,349,66,63
259,347,66,63
258,345,65,63
257,344,65,63
255,340,65,62
255,339,64,62
253,335,64,62
252,335,63,62
251,332,63,61
249,331,63,61
249,329,63,61
248,327,63,60
246,325,62,60
245,323,62,60
243,321,62,60
243,319,62,60
241,317,61,59
240,316,61,59
239,313,61,59
238,312,61,58
237,310,61,103
236,309,60,213
235,307,60,210
233,305,60,209
231,304,60,207
231,302,59,206
231,300,59,204
229,298,59,203
227,295,59,202
227,295,58,201
226,294,58,199
224,291,57,199
224,289,57,198
223,287,57,196
221,287,57,195
220,286,56,194
219,284,56,193
218,281,56,192
217,280,56,191
216,279,56,190
215,278,56,189
214,275,55,188
213,275,55,187
211,273,55,186
211,271,54,185
210,270,54,184
209,268,54,183
207,267,54,182
207,265,79,181
206,263,106,180
205,263,105,179
204,261,103,178
203,259,103,177
202,258,103,176
201,257,102,175
199,255,102,174
199,254,101,173
198,252,100,172
197,251,100,172
196,249,99,171
195,248,99,169
194,248,98,169
193,246,98,167
192,244,97,167
192,243,97,167
190,242,96,166
190,241,96,165
189,240,95,163
188,239,94,163
187,237,94,163
186,236,94,161
185,235,93,161
184,233,92,159
184,231,92,159
183,231,92,158
182,230,108,157
181,229,125,157
179,227,124,156
179,226,124,155
178,225,123,154
177,224,121,153
176,223,121,152
176,221,120,152
175,220,120,151
174,220,120,150
173,218,120,150
172,217,118,149
171,216,118,148
171,215,117,147
170,213,116,147
169,212,115,146
167,211,115,145
167,210,114,143
166,209,114,143
166,207,113,143
165,207,112,142
164,206,112,141
163,205,111,140
163,204,110,140
162,203,110,139
161,201,109,139
159,201,109,138
159,199,108,137
159,198,108,135
158,198,107,135
157,196,106,135
156,195,105,135
156,195,105,134
155,193,103,133
154,193,103,132
153,192,103,131
153,191,103,131
152,190,102,130
152,189,102,130
151,188,101,129
150,187,100,128
149,186,100,127
149,185,99,127
148,184,99,126
147,183,99,126
147,182,98,125
146,181,97,124
145,180,96,124
144,179,96,124
144,179,96,123
143,178,96,122
143,177,95,122
142,176,94,121
142,175,94,121
141,174,93,120
140,173,92,120
140,172,93,119
139,172,92,119
139,171,92,118
138,171,91,117
137,169,91,116
137,169,90,116
135,167,100,115
135,167,105,115
135,167,105,114
134,165,103,114
134,165,103,113
133,163,103,113
132,163,102,112
131,162,102,112
131,161,101,111
130,177,100,110
130,176,100,110
129,175,99,109
129,174,99,109
129,173,98,108
127,172,97,108
127,171,97,107
127,170,96,107
126,169,96,106
126,167,96,106
125,167,95,105
124,249,95,105
124,255,94,103
124,254,93,103
123,252,93,103
122,251,92,103
121,249,92,102
121,248,92,102
121,246,91,101
120,244,90,103
120,243,90,103
120,241,89,103
119,259,89,103
118,261,88,102
118,259,88,102
117,258,88,101
117,255,88,101
116,254,87,100
115,252,86,99
115,251,86,99
115,250,85,99
114,248,85,98
114,247,84,98
113,246,84,97
113,244,83,97
112,243,83,96
112,241,83,96
111,240,82,96
111,239,82,96
110,238,81,95
110,236,81,94
110,236,81,94
109,234,80,94
109,231,80,93
108,231,79,92
108,230,81,92
108,229,81,92
107,227,80,91
107,227,79,91
106,225,79,91
105,224,79,90
105,223,79,90
105,222,79,89
103,221,78,89
103,220,77,89
103,219,77,89
103,217,77,88
103,216,76,88
102,216,76,88
102,214,76,87
102,213,75,86
101,211,75,86
101,211,75,86
100,210,74,85
100,209,74,85
99,207,73,84
99,207,73,85
99,206,73,83
98,205,71,83
98,204,71,83
97,203,71,83
97,201,71,82
97,199,71,82
96,199,71,81
96,199,71,81
96,198,70,81
96,197,70,81
95,196,70,79
94,195,69,79
94,194,68,79
94,193,69,79
93,192,68,79
93,192,67,79
93,191,68,79
92,190,67,78
92,189,67,78
92,188,67,77
91,187,67,77
91,186,66,77
91,185,66,76
90,185,65,76
90,184,65,76
89,183,65,76
89,182,64,75
89,181,64,75
89,180,63,75
88,179,63,74
88,179,63,74
88,178,63,73
87,177,62,73
87,176,62,73
86,175,62,73
86,175,62,71
86,174,62,71
85,173,61,71
85,172,61,71
85,172,60,71
84,171,60,71
84,170,60,70
83,169,60,70
83,167,60,70
83,167,59,70
83,167,59,69
82,166,59,69
121,165,59,69
120,164,58,68
119,163,58,68
118,163,58,67
118,162,57,67
117,161,57,67
116,160,57,67
115,159,57,67
115,159,56,67
114,158,56,66
114,158,56,66
113,157,56,66
112,157,55,65
112,156,55,64
112,155,54,64
111,154,54,64
110,153,54,64
110,153,54,63
109,152,54,63
109,152,54,63
108,151,53,63
107,151,53,63
107,150,52,62
106,149,52,62
105,148,52,62
105,147,51,62
105,147,51,61
103,146,51,61
103,145,51,61
103,145,51,61
103,143,51,60
102,143,51,60
101,143,50,60
101,142,50,59
100,142,50,59
100,141,50,59
99,141,49,59
99,140,49,59
98,140,49,58
98,139,49,58
97,139,48,57
97,138,48,57
97,137,48,57
96,135,48,57
96,135,48,57
96,135,48,57
95,135,47,56
95,134,47,56
94,134,47,56
94,133,47,56
93,133,47,56
92,132,46,56
92,131,46,55
92,131,46,55
91,130,46,55
91,130,45,54
90,129,45,54
90,129,45,54
89,127,45,54
89,127,45,54
88,127,44,53
88,126,44,53
88,126,44,53
88,125,44,53
87,125,44,52
87,125,44,52
86,124,44,52
86,123,43,51
86,123,43,51
85,123,43,51
85,121,43,51
85,121,42,51
83,121,42,50
83,120,42,50
83,120,42,50
83,120,42,50
82,119,41,50
82,118,41,49
82,118,41,50
81,118,41,49
81,117,41,49
81,117,40,49
80,115,41,48
80,115,39,48
79,115,39,48
79,115,39,48
79,114,39,48
79,114,39,48
78,113,39,47
78,112,39,47
78,112,39,47
78,112,39,47
77,111,39,47
77,111,38,46
77,111,38,46
76,110,38,46
76,110,38,46
76,109,38,46
75,109,38,46
75,108,38,45
75,108,37,45
75,107,37,45
74,107,37,45
74,107,37,45
73,106,37,45
73,105,37,44
73,105,36,44
73,103,36,44
71,103,36,44
71,103,35,44
71,103,35,43
71,103,35,43
71,103,35,43
71,102,35,43
71,102,35,43
71,101,35,43
70,101,35,42
70,100,34,42
70,100,34,42
69,99,34,42
69,99,34,42
69,99,34,41
69,98,34,41
68,98,34,41
68,97,33,41
67,97,33,41
67,97,33,40
67,96,33,41
67,96,33,39
67,96,33,39
66,95,33,39
66,95,32,39
66,94,32,39
66,94,32,39
66,94,32,39
65,93,31,39
65,93,31,39
65,93,31,39
64,93,31,39
63,92,31,39
63,92,31,38
63,92,31,38
63,91,31,38
63,91,31,38
63,90,31,38
63,90,31,37
63,89,30,38
62,89,30,37
62,89,30,37
62,88,30,37
62,88,30,37
61,88,29,36
61,88,30,37
61,88,29,37
61,87,29,36
61,87,29,36
60,86,29,36
60,86,29,36
60,86,29,35
60,85,29,36
59,85,29,35
59,84,29,35
59,84,28,35
59,83,28,35
59,83,28,35
58,83,28,35
58,82,28,35
57,83,28,34
57,82,28,34
57,82,27,34
57,81,27,34
57,81,27,34
57,81,27,34
57,81,27,33
56,80,27,34
56,79,27,33
56,79,27,33
56,79,26,33
56,79,26,33
56,78,26,33
55,78,26,33
55,78,26,32
54,78,26,32
54,78,25,32
54,77,25,32
54,77,25,32
54,76,25,31
53,77,25,31
53,76,25,31
53,76,25,31
53,76,25,31
53,75,25,31
52,75,25,31
52,75,25,31
51,74,24,31
51,74,24,31
51,74,24,31
51,73,24,30
51,73,24,30
51,73,24,30
51,73,24,30
51,71,24,30
50,71,24,30
50,71,24,29
50,71,24,30
50,71,24,30
50,71,23,29
50,71,23,30
49,70,24,29
49,70,23,29
49,70,23,29
48,70,22,29
48,69,23,29
51,69,22,28
51,69,22,28
51,69,23,28
51,68,22,28
51,68,22,28
51,68,22,28
51,67,22,28
50,67,22,28
50,67,22,28
50,67,21,27
50,67,21,27
49,66,21,27
49,66,21,27
51,66,21,27
52,66,21,27
51,65,21,27
51,65,21,27
51,65,21,26
51,64,20,26
51,64,20,26
50,63,20,26
50,63,20,26
50,63,20,26
50,63,19,25
49,63,20,26
49,63,19,26
49,62,19,26
49,62,19,26
48,62,19,25
48,62,19,25
48,62,19,25
48,61,19,25
48,61,19,25
47,61,19,25
47,60,19,25
47,60,19,24
47,60,19,24
47,60,18,24
46,60,19,24
46,60,18,24
46,59,18,24
46,59,18,24
46,59,18,24
45,59,18,24
45,59,18,24
45,58,17,24
45,57,17,24
45,57,18,24
45,57,18,24
44,57,18,23
44,57,17,23
44,57,17,23
46,57,17,23
47,56,17,23
47,56,17,23
46,56,17,22
46,56,17,22
46,56,17,22
46,56,17,22
45,55,16,22
45,55,16,22
45,55,16,22
45,54,16,22
45,54,16,22
44,54,16,22
44,54,16,22
44,54,16,21
44,53,16,21
44,53,15,21
44,53,16,21
43,53,16,21
43,52,16,21
43,53,15,21
43,52,15,21
42,52,15,21
43,51,15,21
42,51,15,20
42,51,15,20
42,51,15,20
42,51,15,20
42,51,15,19
42,51,15,20
41,50,15,19
41,50,15,20
41,50,14,19
41,49,14,19
41,49,14,19
41,49,14,19
41,49,14,19
39,49,14,19
39,48,14,19
39,49,14,19
48,48,14,19
48,48,14,19
48,48,14,19
47,48,14,19
47,48,13,19
47,48,14,18
46,47,13,18
46,47,13,18
46,47,13,18
46,47,13,18
45,46,13,18
45,46,13,18
45,46,13,18
44,46,13,18
45,46,13,18
44,45,13,17
44,46,13,17
44,45,13,17
44,45,12,17
44,45,12,17
43,45,12,17
43,44,13,17
43,44,12,17
43,44,12,17
42,44,12,17
42,44,12,17
42,44,12,17
41,44,12,17
41,43,12,17
41,43,12,16
41,43,12,16
41,42,12,16
41,42,12,16
41,42,12,16
39,42,11,16
39,42,11,15
39,41,11,16
39,41,11,16
39,41,11,16
39,41,12,16
39,41,11,15
39,41,11,15
39,41,11,15
39,39,11,15
39,40,11,15
38,40,11,15
38,39,11,15
38,39,11,15
38,39,10,15
38,39,11,15
38,39,10,15
38,39,10,15
37,39,10,15
37,39,10,14
37,39,10,14
37,39,10,14
37,38,10,14
37,38,10,14
36,38,10,14
36,38,10,14
36,38,9,14
35,38,9,14
35,38,10,14
35,37,9,14
35,38,9,14
35,37,9,14
35,37,9,13
35,37,9,14
35,37,9,13
35,36,9,13
35,36,9,13
35,36,9,13
34,36,9,13
34,35,9,14
34,35,9,13
34,36,9,13
34,35,9,13
34,35,9,13
34,35,9,13
34,35,8,13
34,35,8,13
33,35,9,13
33,35,9,13
33,35,7,13
33,34,8,13
33,34,7,12
32,34,8,12
32,34,7,12
32,34,7,12
32,34,7,12
31,33,7,12
31,34,7,12
31,33,7,12
31,33,7,12
31,33,7,12
31,33,7,12
31,33,7,12
31,33,7,12
31,32,7,12
31,33,7,12
31,32,7,12
30,32,7,12
30,32,7,12
30,31,7,11
30,31,7,11
30,31,7,11
30,31,7,11
30,31,7,11
30,31,7,11
30,31,7,11
30,31,7,11
29,31,7,11
29,31,7,11
29,31,7,11
29,30,7,11
29,30,7,11
29,30,7,10
29,30,6,11
29,30,7,11
29,30,7,10
28,30,7,10
28,30,7,10
28,29,7,10
28,29,6,10
28,29,7,10
28,29,7,10
28,29,6,10
