15,129,0,7
17,128,0,7
18,127,0,6
18,127,0,7
17,126,0,7
17,126,0,7
17,125,0,7
17,125,0,7
17,129,0,7
17,128,0,7
17,127,0,7
16,127,0,6
17,126,0,7
16,126,0,7
16,125,0,6
16,125,0,6
17,124,0,6
17,124,0,7
17,123,0,7
17,123,0,7
17,122,0,7
17,125,0,7
17,130,0,7
17,129,0,7
17,129,0,7
16,127,0,7
17,127,0,6
16,127,0,7
16,126,0,7
17,126,0,6
17,125,0,6
17,124,0,7
16,124,0,7
16,123,0,6
16,123,0,7
16,127,0,7
16,127,0,7
16,126,0,7
16,126,0,7
15,125,0,6
16,125,0,6
15,124,0,6
16,123,0,6
16,123,0,6
17,122,0,6
17,121,0,6
17,121,0,6
16,120,0,6
16,120,0,6
16,129,0,6
16,128,0,6
16,127,0,6
15,127,0,6
15,127,0,6
15,126,0,5
15,125,0,6
15,125,0,6
16,124,0,6
16,124,0,6
16,123,0,7
15,123,0,6
16,122,0,7
15,121,0,6
15,124,0,6
15,123,0,6
15,123,0,6
15,122,0,7
15,121,0,6
15,121,0,6
15,120,0,6
15,120,0,6
15,120,1,6
15,119,0,6
15,119,0,7
15,118,0,6
15,117,0,6
15,116,0,6
15,127,0,6
15,126,0,6
15,125,0,6
15,125,0,6
15,124,0,6
15,124,0,6
15,123,0,6
15,123,0,6
18,121,1,5
18,121,0,7
17,121,0,7
18,120,1,7
17,120,0,7
17,119,1,7
17,128,0,6
16,127,0,7
17,126,0,6
17,126,0,6
16,125,0,6
16,125,1,6
16,124,1,6
16,124,0,6
17,123,0,6
17,123,0,6
17,122,0,7
17,121,0,7
17,120,0,7
16,122,0,6
16,134,0,7
16,132,0,6
16,131,0,6
15,131,1,7
15,131,0,7
16,130,0,6
15,129,0,6
16,129,0,6
16,128,0,6
16,127,0,7
16,127,1,7
16,126,0,7
16,125,0,6
16,137,0,6
16,135,0,7
15,135,0,7
15,135,0,6
15,134,1,6
15,133,0,6
15,133,0,6
15,132,1,6
15,131,0,6
15,131,0,6
15,130,0,6
15,130,1,6
15,129,1,6
15,127,0,6
15,131,1,6
15,131,0,6
15,131,0,6
15,130,1,6
15,129,0,6
15,128,0,6
15,127,0,6
14,127,0,5
19,127,0,6
19,126,0,6
19,125,1,7
19,125,0,6
19,124,1,6
19,124,0,6
19,139,0,6
19,138,0,6
18,137,0,6
18,135,0,6
18,135,0,6
19,135,0,6
18,134,0,6
18,134,0,6
19,133,0,6
18,132,0,7
18,132,1,7
18,131,1,7
18,130,0,7
17,130,0,7
17,130,0,7
17,130,0,7
17,129,0,7
17,129,0,7
17,128,0,7
17,127,1,7
16,127,0,7
17,126,1,7
18,125,1,7
18,125,1,7
17,125,0,7
17,124,1,7
17,123,1,7
17,123,0,7
17,135,1,7
17,135,0,7
17,135,0,7
17,134,0,7
16,134,1,7
17,133,1,7
17,132,0,7
18,131,1,7
19,131,0,7
19,131,1,7
19,130,0,7
19,129,0,7
19,129,0,7
19,128,0,7
19,135,0,7
19,135,0,7
19,134,0,7
18,134,0,7
18,133,0,9
18,132,0,11
18,131,0,80
18,131,0,202
18,131,0,230
17,130,0,227
18,129,0,225
17,128,0,224
17,127,0,223
17,141,0,221
17,140,0,220
17,139,1,219
17,139,0,217
17,138,0,216
17,137,0,216
16,135,0,214
19,135,0,213
19,135,0,212
19,134,0,211
19,133,0,209
19,132,1,209
18,132,0,207
18,131,1,207
19,131,0,206
18,130,0,205
18,129,0,204
18,128,0,203
18,127,1,202
17,127,2,199
18,126,2,199
17,126,2,199
20,125,2,198
34,125,1,197
35,194,2,203
34,210,2,202
33,207,2,201
33,207,2,199
33,206,1,199
33,205,2,198
32,204,2,197
33,202,2,195
32,201,4,195
31,199,4,194
31,199,4,193
31,198,4,192
31,199,4,192
31,261,4,191
31,258,4,190
31,255,4,223
31,255,3,319
31,253,4,337
31,252,4,335
30,250,9,332
30,249,9,330
30,248,9,327
29,246,7,326
29,245,9,323
29,280,7,322
29,383,8,320
29,414,7,319
29,411,8,316
28,408,7,315
28,405,7,313
28,402,7,312
28,399,7,409
67,397,7,522
68,395,7,578
67,391,7,572
67,390,7,566
66,387,7,562
66,385,7,558
66,382,7,554
65,380,7,550
65,378,9,545
64,376,8,571
64,374,9,711
64,371,8,713
138,369,10,707
142,367,24,699
140,365,24,693
139,363,23,686
138,359,23,681
137,358,24,674
135,355,24,668
135,354,24,663
135,352,23,655
134,350,23,652
133,348,23,646
132,345,23,639
131,344,34,635
156,341,34,629
174,339,34,625
173,337,33,619
172,396,33,614
171,516,33,610
169,624,33,605
167,619,32,600
167,612,86,595
167,606,85,591
166,601,84,586
165,595,83,714
163,591,83,831
163,586,82,819
162,582,82,812
161,576,81,802
160,572,81,793
159,568,80,786
158,563,79,777
157,559,79,770
156,553,79,761
156,549,79,754
155,545,78,748
154,541,78,740
153,537,77,772
153,667,77,883
152,816,76,894
152,807,76,880
150,796,76,868
149,789,75,860
148,779,74,850
147,773,74,842
147,764,73,831
146,755,73,824
145,748,73,880
144,740,71,868
143,734,71,859
143,727,71,848
142,719,71,839
142,713,71,831
141,706,71,822
140,700,70,815
139,694,70,805
139,687,69,799
138,681,69,790
137,675,69,781
135,670,78,775
135,664,77,766
135,659,77,760
135,652,77,752
134,647,76,743
133,642,76,739
132,636,75,731
131,632,75,726
131,625,74,743
131,620,74,895
188,615,82,889
186,610,84,876
185,606,83,867
184,601,82,857
182,595,82,849
181,591,81,839
180,587,81,829
179,583,80,822
178,578,80,812
177,574,79,805
176,569,79,796
175,565,79,787
174,561,78,781
173,557,78,773
172,553,78,766
171,549,77,758
170,544,77,750
169,541,76,744
167,537,76,737
167,534,76,731
167,530,75,754
166,526,74,875
165,523,74,863
164,519,74,851
163,615,73,844
162,828,73,833
161,856,73,826
160,844,71,816
159,833,75,807
158,825,75,799
158,816,74,791
157,809,73,785
156,799,73,775
155,790,73,767
155,783,73,761
154,774,71,753
153,767,71,747
152,759,71,829
151,750,71,828
151,744,70,818
150,736,70,808
149,731,70,802
148,723,69,792
147,717,69,785
147,710,92,777
146,703,109,768
145,697,137,761
145,691,147,753
143,684,146,745
143,677,145,738
142,671,143,730
141,666,143,724
140,659,142,717
140,653,141,711
139,649,140,705
138,643,139,701
137,636,139,809
137,631,138,799
137,627,137,790
135,621,135,783
135,615,135,774
135,610,141,765
134,605,146,757
133,601,231,751
133,595,358,743
132,591,460,735
141,585,615,728
140,582,743,830
139,577,733,903
138,572,726,910
137,568,718,914
135,563,711,913
135,559,703,900
135,555,698,883
135,550,691,895
133,547,684,907
133,542,677,911
131,537,671,914
131,534,666,908
130,531,660,889
130,526,654,880
129,579,648,869
127,613,643,858
127,608,643,847
127,603,844,840
126,596,905,831
126,591,911,821
125,587,915,812
124,581,919,805
123,575,921,796
123,570,922,787
123,566,922,779
121,561,919,772
121,557,902,764
120,551,888,755
120,547,876,748
119,543,867,743
119,539,856,735
118,534,848,728
117,529,839,719
116,526,830,715
115,522,821,708
115,518,815,701
115,515,806,695
114,511,798,689
114,507,789,684
113,504,782,678
113,499,775,671
112,497,768,665
112,493,760,660
111,489,752,655
110,486,747,649
110,483,739,643
109,480,732,639
108,476,726,633
108,473,719,627
108,471,713,622
107,467,707,618
106,463,700,613
105,461,696,608
105,457,689,603
103,455,683,600
103,451,677,594
103,449,671,589
103,446,667,583
102,444,661,581
102,440,655,575
102,437,651,572
101,434,646,568
100,432,639,563
99,429,635,560
99,427,631,556
99,423,625,551
98,422,622,547
98,419,616,545
97,417,611,540
97,415,608,536
96,412,603,534
96,409,600,529
96,408,595,527
95,405,591,523
95,403,587,519
94,399,582,516
105,397,579,512
103,395,574,508
103,393,570,505
103,391,566,502
102,387,562,498
102,385,558,495
101,384,554,492
101,381,550,489
100,379,547,485
99,377,543,482
99,375,539,479
98,372,536,476
97,371,532,473
97,415,529,471
96,423,526,467
96,419,521,465
96,415,519,462
95,414,515,460
95,411,512,457
94,408,508,454
94,405,505,451
93,403,502,448
93,399,499,446
92,396,496,443
91,395,493,441
91,391,491,438
91,389,487,435
91,386,483,433
90,384,481,430
89,382,478,428
89,379,476,425
88,377,473,423
88,374,470,421
88,371,467,418
88,369,463,415
87,368,462,414
86,366,459,412
86,465,455,409
86,462,454,407
85,457,451,404
84,454,448,402
84,451,446,399
83,447,444,398
83,444,441,395
83,441,438,393
82,437,435,391
83,435,433,389
82,432,431,387
82,429,428,385
81,425,426,384
80,423,423,381
80,419,421,379
79,417,419,377
79,415,416,375
79,412,414,373
79,409,412,371
78,406,409,369
78,403,408,367
77,401,405,365
77,398,403,363
77,396,401,361
76,393,399,359
76,390,397,358
76,388,395,355
159,385,391,354
187,383,391,352
185,381,388,350
184,378,386,348
183,376,384,346
181,373,382,344
180,371,380,343
179,368,377,341
178,366,376,339
177,364,374,337
176,361,371,335
188,359,369,334
193,358,367,332
192,355,366,330
191,450,364,327
189,447,361,327
188,607,359,325
187,633,358,323
185,626,355,322
184,622,354,319
184,615,352,319
183,609,351,437
220,604,348,475
226,600,347,472
224,593,345,467
223,588,343,463
222,583,341,459
220,579,339,455
219,574,338,454
217,568,335,453
216,563,335,494
215,560,358,618
214,555,447,769
212,550,487,877
211,545,484,864
209,542,480,853
207,537,476,845
207,533,472,835
206,528,470,824
205,524,466,815
204,521,462,807
203,517,459,799
201,513,455,790
199,508,453,781
199,505,449,775
198,501,446,766
196,497,444,758
195,493,441,750
195,491,438,743
258,487,435,736
391,483,432,729
534,480,429,721
545,477,426,716
540,473,423,709
536,470,420,702
579,466,418,696
574,463,415,688
568,460,412,684
563,457,409,677
559,454,408,671
554,451,405,664
550,448,402,660
545,444,399,654
541,441,397,648
537,440,395,643
532,435,391,638
528,433,389,632
524,430,387,627
519,427,385,621
516,423,383,617
513,422,380,612
509,419,379,607
505,415,376,602
501,414,374,598
498,411,371,706
543,408,369,889
679,406,367,906
671,403,365,906
665,400,363,892
658,398,361,879
652,395,359,867
647,393,356,857
639,391,354,849
636,387,352,839
630,385,350,829
624,384,348,819
619,381,347,813
788,379,344,803
899,376,343,794
910,374,341,786
914,371,339,779
917,369,337,771
920,367,335,763
921,366,333,755
923,363,331,749
924,361,329,741
923,359,327,733
915,356,326,726
891,355,324,719
880,352,323,713
870,350,321,706
860,348,319,700
851,347,318,695
841,344,316,688
831,343,315,681
824,340,313,675
815,339,312,670
807,337,310,665
798,335,308,658
790,333,307,652
783,331,305,647
775,329,304,642
768,327,302,636
760,326,301,632
753,324,299,625
745,323,297,622
739,319,295,615
732,319,295,611
725,317,322,606
718,315,319,601
711,313,317,597
706,312,316,591
700,310,313,587
693,308,312,583
688,423,310,579
681,425,307,574
676,422,306,569
670,419,304,566
664,415,302,561
659,413,300,557
653,409,299,553
647,408,295,550
643,404,295,545
637,401,294,542
632,398,292,537
627,396,290,534
622,393,289,530
617,390,287,527
612,387,286,523
608,385,284,519
603,382,283,515
599,380,281,512
594,377,280,508
589,375,280,504
585,372,278,502
581,369,276,497
575,367,275,494
572,365,273,491
568,363,271,487
564,359,271,484
560,358,270,481
556,355,268,478
551,353,267,476
547,351,265,472
543,349,264,469
540,347,263,466
536,344,262,463
532,342,260,460
529,340,259,457
525,338,258,454
521,335,257,451
518,334,255,449
515,332,255,446
511,330,253,443
507,327,252,441
504,326,251,438
501,323,249,435
497,322,248,432
494,319,248,430
491,319,246,428
487,316,244,425
484,314,243,422
481,313,243,419
478,312,241,417
475,309,240,415
472,307,240,412
469,306,238,409
466,304,237,408
463,303,236,405
461,301,235,403
457,299,233,399
455,297,231,399
451,295,231,396
449,294,231,393
446,292,230,391
444,291,228,389
441,289,227,387
438,287,226,384
435,287,225,382
433,285,224,380
430,284,223,378
428,282,222,376
425,280,221,373
423,280,220,371
420,278,219,369
418,275,218,368
415,275,217,365
413,273,216,363
410,272,216,361
408,294,214,359
406,291,213,358
403,290,211,355
401,287,211,354
398,286,210,352
396,284,209,350
394,283,208,348
391,281,207,347
389,280,206,344
387,277,206,343
385,275,204,340
383,274,204,339
380,272,203,337
379,271,202,335
376,269,200,333
375,268,199,332
372,267,199,330
370,265,198,327
368,263,197,327
366,263,196,325
364,261,195,323
362,259,195,321
359,258,194,319
358,257,193,318
356,255,192,316
354,254,191,315
352,253,190,313
350,252,190,312
348,251,188,310
347,249,188,308
345,248,187,307
344,247,186,305
341,246,185,304
339,244,184,302
337,243,184,301
335,242,183,299
334,240,182,298
332,240,181,295
330,238,180,295
327,237,179,293
327,236,179,292
325,235,177,290
323,233,177,289
322,231,176,287
319,231,176,286
318,230,175,285
317,229,174,283
315,227,173,281
313,227,172,280
312,226,172,280
310,224,171,278
308,223,170,276
307,223,169,275
305,221,167,274
304,220,167,272
302,219,167,271
300,218,167,270
299,217,166,268
297,216,165,267
295,215,164,265
295,214,163,263
293,213,163,263
291,212,162,262
290,211,161,261
289,210,160,259
287,209,159,258
286,207,159,257
285,206,159,255
283,206,158,254
281,205,157,253
280,204,156,252
279,203,156,251
278,201,155,249
275,201,154,249
275,199,153,248
273,199,153,246
271,198,152,245
271,197,152,243
269,196,151,243
268,195,150,241
267,194,149,240
265,193,149,239
263,193,148,238
263,192,147,237
261,190,147,236
259,190,147,235
259,189,146,233
257,188,145,231
255,187,144,231
255,186,143,230
253,185,143,230
252,184,143,228
251,184,142,227
249,183,141,226
248,182,141,225
248,181,140,224
246,179,139,223
245,179,139,222
244,179,138,221
243,177,137,220
242,177,137,219
240,176,135,218
239,175,135,217
238,174,135,216
237,173,135,215
236,172,135,214
235,172,134,213
233,171,133,212
231,170,132,211
231,169,131,210
230,169,131,209
229,167,130,208
227,167,130,207
227,166,129,206
226,166,129,205
225,165,128,205
224,164,127,204
223,163,127,203
222,163,127,201
220,162,126,201
220,161,125,199
219,159,125,199
217,159,124,198
216,159,124,198
216,158,123,197
215,157,123,195
213,156,122,194
212,156,121,194
211,156,121,193
210,154,121,192
209,153,120,191
208,153,120,190
207,152,119,189
207,152,118,189
206,151,118,188
205,150,118,187
204,150,117,186
203,149,116,185
202,148,116,184
201,147,115,184
199,147,115,183
199,146,114,182
198,145,113,181
197,145,113,180
196,144,113,179
195,143,112,179
195,143,112,178
193,143,111,177
193,142,111,177
192,141,110,176
191,140,110,175
190,139,110,174
189,139,109,174
188,138,108,173
188,137,108,172
186,137,108,171
185,136,107,171
184,135,106,169
184,135,106,169
184,209,106,167
183,243,105,167
181,253,103,167
180,250,103,166
179,249,103,165
179,248,103,165
178,246,103,163
177,243,102,163
177,242,102,163
176,241,101,161
175,239,101,161
174,313,101,160
173,310,100,159
172,308,99,159
172,306,99,158
171,304,99,157
170,302,98,157
169,300,98,156
168,298,97,156
167,295,97,155
167,294,97,154
167,292,97,153
166,291,96,153
165,289,96,152
165,287,95,152
163,286,95,152
163,284,95,151
163,282,94,227
161,281,94,331
161,279,93,386
160,277,93,383
159,275,92,379
159,274,92,376
158,272,92,375
158,271,91,371
157,270,91,369
156,268,91,367
156,266,90,365
155,265,90,362
154,263,89,396
153,262,89,481
153,260,89,476
152,259,88,473
152,257,88,469
151,255,88,473
150,254,88,470
150,253,87,466
149,252,87,463
148,249,86,460
147,248,86,455
147,248,85,454
146,246,85,505
145,245,84,575
145,243,84,569
144,242,84,565
144,241,88,560
143,239,109,555
143,238,221,550
142,237,301,547
141,235,390,542
141,234,445,537
140,233,527,533
139,231,521,529
139,231,517,525
139,229,513,521
137,227,508,517
137,227,504,513
135,225,499,509
135,224,497,505
135,222,493,502
135,221,489,498
134,220,486,494
133,219,483,491
133,217,479,487
132,217,476,484
131,216,472,480
131,214,468,477
130,213,466,473
130,211,463,470
129,211,459,467
129,210,455,463
128,207,454,461
127,207,450,457
127,206,447,455
126,205,444,451
126,204,441,449
125,203,439,446
125,201,435,443
124,201,432,440
124,199,430,437
123,199,428,434
122,198,423,432
122,197,422,429
121,195,419,425
121,195,417,423
120,193,414,421
120,192,411,418
119,192,409,415
119,191,407,413
118,190,403,410
117,189,401,408
117,188,399,405
117,187,397,403
115,185,394,401
115,185,391,398
152,184,390,396
151,183,387,393
150,182,385,391
148,181,383,388
148,180,380,386
147,179,378,384
146,178,376,381
145,177,374,380
143,176,371,377
143,175,370,375
157,175,368,373
294,174,365,371
308,173,363,368
306,172,361,366
304,171,359,364
301,170,357,362
299,169,355,359
297,167,353,358
295,167,352,355
293,167,349,354
291,166,347,352
358,165,345,350
409,164,344,348
406,163,341,346
403,163,339,344
399,162,338,342
397,172,335,339
394,171,334,338
391,170,332,335
388,169,330,335
386,167,327,332
384,167,327,331
381,166,325,329
379,165,323,327
376,163,321,326
373,163,319,323
371,174,318,322
368,221,316,319
366,219,315,318
364,218,313,316
361,216,312,315
359,216,309,313
357,213,307,312
355,212,306,310
353,211,305,309
350,210,303,307
348,208,302,305
346,243,300,348
344,315,317,463
343,313,433,545
340,312,430,539
338,309,427,534
335,307,423,530
334,305,419,526
332,303,417,521
329,300,414,517
327,299,411,512
326,297,408,509
324,295,405,504
322,293,403,501
319,291,400,496
318,289,398,494
317,287,395,490
315,285,393,487
313,284,390,483
311,282,387,480
309,280,385,483
307,279,383,480
306,277,380,476
304,275,378,473
302,273,376,470
301,271,373,467
299,270,371,463
297,269,369,460
295,267,366,457
294,265,364,454
292,263,362,451
291,263,359,448
289,261,358,445
287,259,355,442
286,257,353,439
284,255,352,436
283,255,349,433
281,253,347,430
280,252,345,491
278,251,344,675
277,249,341,682
275,248,339,674
274,246,337,667
271,245,335,660
271,243,334,655
269,242,332,649
268,240,329,643
267,240,327,636
263,238,326,632
263,236,323,626
262,235,323,620
260,233,319,615
259,231,319,610
258,231,317,605
257,252,316,600
255,312,313,594
254,310,312,591
252,307,310,585
251,305,308,580
249,302,307,575
248,301,305,572
248,299,303,568
246,295,302,562
244,295,300,558
243,293,298,555
242,291,295,550
241,289,295,546
240,287,294,541
238,286,291,537
237,284,290,534
236,282,289,529
234,280,287,526
233,279,286,521
231,277,284,519
231,275,283,515
230,273,281,511
228,271,280,507
227,270,279,504
226,269,277,499
225,267,275,496
224,265,275,493
222,263,273,490
222,262,271,486
221,260,271,483
220,259,269,479
219,257,268,476
217,255,266,473
216,254,265,470
215,253,263,467
214,252,262,463
213,250,261,462
211,248,260,457
211,247,258,455
209,246,257,452
208,244,255,449
207,243,254,446
207,241,253,443
206,240,252,440
205,239,251,438
204,237,249,435
203,236,286,432
201,235,284,429
199,233,282,427
199,231,280,423
198,231,278,422
197,230,277,419
196,228,275,417
195,227,273,414
195,225,271,412
193,224,270,409
193,224,268,407
192,222,267,404
191,221,265,401
190,219,263,399
189,219,262,397
188,217,260,395
187,216,259,391
186,215,258,390
185,214,255,387
184,212,254,385
184,211,253,383
182,210,252,380
181,209,250,379
180,207,248,376
179,207,248,374
179,206,247,371
178,205,245,370
177,204,243,368
176,203,243,366
176,201,241,364
175,199,240,361
174,199,239,359
173,198,238,358
172,197,237,355
171,196,236,353
171,195,235,352
169,194,233,350
169,193,231,348
167,192,231,345
167,191,230,344
166,190,228,342
166,189,227,340
165,188,227,338
163,187,226,337
163,185,225,335
162,185,224,333
162,184,222,331
161,184,221,329
159,182,220,327
159,181,219,326
159,180,218,323
158,179,217,323
157,179,216,321
156,177,215,319
156,176,214,317
155,176,213,316
154,175,211,314
153,174,211,312
152,173,210,311
152,172,208,308
151,171,207,307
150,170,207,305
150,169,206,304
149,167,205,302
148,167,204,301
147,167,203,300
147,166,202,298
146,165,201,295
145,165,199,295
145,163,199,293
144,163,198,291
143,161,197,290
143,161,196,289
142,159,195,287
141,159,195,286
141,159,194,285
140,158,193,283
140,157,192,281
139,156,191,280
138,155,190,279
137,155,189,277
137,154,188,276
135,153,187,274
135,152,187,273
135,152,186,271
134,151,185,271
134,150,184,269
133,149,184,268
132,148,182,266
131,148,181,265
131,147,181,263
131,146,179,262
130,146,179,261
129,145,178,259
128,143,177,259
127,143,177,257
127,143,176,255
127,142,175,255
126,141,174,254
126,141,173,252
125,140,172,251
124,140,171,250
124,139,171,248
124,138,170,248
123,137,169,246
122,137,167,245
121,135,167,243
121,135,167,242
121,135,166,241
120,134,165,240
120,133,164,240
119,133,163,238
118,132,163,236
118,131,162,236
117,131,161,235
117,130,161,233
116,130,159,231
115,129,159,231
115,128,158,230
114,127,158,229
114,127,157,227
113,126,157,227
113,126,156,226
112,125,155,225
112,125,154,224
112,124,153,223
111,124,153,222
110,123,152,220
110,123,152,220
109,122,151,218
109,121,150,217
108,121,150,216
108,120,149,216
107,120,148,214
107,120,147,214
106,119,147,212
105,118,146,211
105,117,146,211
105,117,144,209
103,116,144,209
103,116,143,207
103,115,143,207
103,115,142,206
103,115,142,205
102,114,141,204
102,113,140,203
101,113,140,201
101,112,139,201
100,112,139,199
100,111,137,199
99,111,137,198
99,110,136,198
98,110,135,196
98,109,135,196
97,109,135,195
97,109,134,194
97,108,134,193
96,108,133,192
96,107,132,192
96,107,131,190
95,106,131,190
95,105,131,189
94,105,130,188
94,103,129,187
93,103,129,186
93,103,128,186
93,103,127,185
92,103,127,184
92,103,126,183
92,102,126,182
91,102,125,182
91,101,125,181
90,101,125,180
90,100,124,179
89,99,123,179
89,99,123,178
89,99,122,177
88,99,122,176
88,98,121,176
88,98,121,175
88,97,121,174
87,97,120,174
87,97,120,173
86,96,120,172
86,96,119,172
86,96,119,171
85,95,118,170
85,95,117,169
84,94,116,169
84,94,116,167
83,94,115,167
83,93,115,167
83,92,115,166
83,107,114,166
83,127,114,164
82,126,113,164
82,125,113,163
81,125,113,162
81,124,112,161
81,123,111,161
80,123,111,161
79,122,111,159
79,121,110,159
79,120,109,158
79,120,109,158
78,120,108,157
78,118,108,156
78,118,108,156
78,117,107,155
77,116,107,155
77,115,106,154
77,115,105,153
76,115,105,153
76,114,105,152
76,113,103,152
76,113,103,151
75,112,103,150
75,111,103,150
75,111,103,149
74,110,102,148
73,110,102,147
73,109,101,147
73,109,101,146
72,108,100,146
71,107,99,145
71,107,99,144
71,106,99,143
71,105,99,143
71,105,98,143
71,104,98,142
71,103,97,142
71,103,97,141
70,103,96,140
70,103,96,140
70,102,96,140
69,102,96,139
69,101,95,138
69,100,95,137
68,100,94,137
68,99,94,135
67,99,94,137
67,98,93,135
67,98,93,135
67,98,92,135
67,97,92,134
66,97,92,134
66,96,91,133
66,96,91,132
66,95,91,132
65,95,91,131
65,94,90,131
65,94,89,131
64,93,89,131
64,93,89,129
64,93,89,129
63,92,88,128
63,92,88,128
63,92,88,127
63,92,87,127
63,91,88,127
62,90,87,126
63,90,86,126
62,89,86,125
62,89,86,125
61,89,85,124
61,89,85,124
61,88,85,124
61,88,84,123
60,88,84,123
60,88,83,122
60,87,83,121
60,86,83,121
60,86,83,121
59,86,82,121
60,86,82,120
59,85,82,120
59,85,81,119
58,85,81,119
58,84,80,119
58,83,81,118
57,83,79,117
57,83,79,117
57,83,79,116
57,82,79,115
57,82,79,115
56,82,78,115
56,81,78,115
56,81,78,114
56,81,78,114
56,80,77,113
56,80,77,113
55,79,77,112
55,79,76,112
54,79,76,112
55,79,76,111
54,79,75,111
54,78,76,110
54,78,75,110
54,78,75,110
53,77,74,109
53,77,74,109
53,76,73,108
53,76,73,108
53,76,73,108
52,76,73,107
52,75,71,107
52,75,71,106
51,75,71,106
51,74,71,105
51,74,71,105
51,74,71,105
51,73,71,103
50,73,71,103
50,73,71,103
50,73,70,103
50,71,70,103
49,71,70,103
49,71,69,102
49,71,69,102
49,71,69,102
48,71,68,101
49,71,68,100
48,71,68,100
48,70,67,100
48,70,67,99
48,70,67,99
48,69,67,99
48,69,67,99
47,69,67,98
47,69,66,98
47,68,66,97
47,68,65,97
47,67,65,97
46,67,65,96
46,67,65,96
46,67,65,96
46,67,64,96
46,66,64,95
45,66,64,95
45,66,63,94
45,65,63,94
45,65,63,94
45,65,63,93
45,65,63,93
44,65,62,93
44,64,63,93
44,63,62,92
44,63,62,92
44,63,62,92
44,63,62,92
44,63,61,90
43,63,61,91
43,63,61,90
43,62,60,90
43,62,60,90
43,62,60,89
42,62,60,89
42,62,59,89
42,61,60,88
42,61,59,88
42,61,59,88
42,61,59,88
41,60,59,87
41,60,58,87
41,60,58,86
41,71,58,86
40,71,57,86
39,70,57,86
39,70,57,85
39,70,57,85
39,69,57,85
39,69,56,84
39,68,56,84
39,68,56,83
39,67,56,83
39,67,56,83
39,67,55,83
39,67,55,83
39,66,56,82
39,70,55,82
39,70,55,82
39,69,54,81
38,69,54,81
38,68,54,80
38,68,54,80
38,67,54,80
38,67,53,80
37,67,53,79
37,67,53,79
37,66,53,79
37,66,53,79
37,79,53,78
37,95,52,78
37,94,52,78
36,94,51,78
36,93,51,77
36,93,51,77
36,92,51,77
36,91,51,77
35,91,51,76
35,90,51,76
35,90,50,76
35,89,50,76
35,89,50,75
35,90,50,75
35,103,49,75
35,103,49,75
35,102,49,74
34,102,49,74
34,101,49,73
34,100,48,73
34,99,48,73
34,99,48,73
33,99,48,73
34,98,48,71
33,97,48,71
33,97,47,71
33,98,47,71
33,97,47,71
33,97,47,71
33,96,47,71
32,96,47,70
33,95,46,71
32,95,46,70
31,94,46,70
31,94,46,69
31,94,46,69
31,93,45,69
31,93,45,69
31,92,45,68
31,96,45,68
31,96,45,68
31,96,45,68
31,95,44,67
31,95,44,67
31,94,44,67
30,93,44,66
30,93,44,67
30,93,44,66
30,92,44,66
30,91,43,66
30,91,43,66
30,91,43,65
30,108,43,65
29,129,42,65
30,129,43,65
29,127,42,64
29,127,42,64
29,126,41,63
29,125,42,63
29,124,41,63
29,124,41,63
28,123,41,63
28,123,41,63
28,122,41,62
28,121,39,62
28,121,39,62
28,121,39,62
28,120,39,62
28,120,39,61
28,119,39,61
27,119,39,60
27,118,39,61
27,117,39,60
27,116,39,60
27,116,39,60
27,115,39,60
27,115,39,59
26,135,38,59
26,134,38,59
26,134,38,59
26,132,38,58
26,132,38,58
26,131,38,58
25,131,38,58
25,130,38,57
25,129,37,57
25,129,37,57
25,127,37,57
25,127,37,57
25,126,36,57
25,130,36,56
25,130,36,56
25,129,36,56
25,127,35,56
24,127,85,56
24,127,174,55
24,126,237,55
24,125,255,55
24,124,262,54
24,124,299,54
24,124,300,54
24,123,299,54
24,141,297,54
24,140,295,54
24,139,294,53
24,139,293,53
23,137,291,53
23,137,289,52
23,135,287,52
23,135,286,52
23,135,284,51
23,134,282,51
22,133,281,51
22,132,280,51
22,131,278,51
22,131,276,51
22,130,275,50
22,130,273,50
22,129,271,50
22,128,270,50
22,127,269,50
21,127,268,49
21,126,266,49
21,126,263,49
21,125,263,49
21,124,262,49
21,124,261,49
20,123,259,48
21,123,258,48
20,121,257,48
21,121,255,48
20,121,254,48
20,120,253,47
20,119,251,47
20,118,250,47
20,118,249,47
19,117,248,47
19,117,246,47
19,116,245,46
19,115,244,46
19,115,243,46
19,114,241,46
19,114,240,45
19,113,239,45
19,112,238,45
19,112,236,45
19,111,236,44
18,111,235,44
19,110,233,44
18,110,231,44
19,109,231,44
18,109,230,44
18,108,229,44
18,108,227,44
18,107,226,43
18,107,225,43
18,106,224,43
17,105,223,43
17,105,222,42
18,103,221,42
17,103,220,42
17,103,219,42
17,103,218,41
17,103,217,41
17,103,216,41
17,102,215,41
16,102,214,41
17,101,212,41
17,100,211,41
16,99,211,41
16,99,210,39
16,99,209,39
16,99,207,39
16,98,207,39
16,98,207,39
15,97,205,39
