115,85,1,60
115,96,1,63
114,96,1,69
113,95,0,69
113,94,1,68
112,94,1,68
112,93,0,67
112,93,0,67
111,93,1,67
112,92,0,67
121,92,1,66
120,91,0,66
120,91,1,65
119,91,0,65
118,90,0,65
117,89,1,65
117,89,1,65
116,89,1,63
115,88,0,63
115,88,1,63
115,88,1,63
114,87,1,63
113,87,1,63
120,86,1,62
120,86,1,62
119,85,1,62
119,84,1,61
118,84,1,61
117,83,1,61
117,83,1,60
116,83,1,60
115,82,1,60
115,83,1,60
114,82,1,60
114,82,1,59
113,81,1,59
117,81,1,59
116,80,1,59
116,80,1,57
115,79,1,58
115,83,1,57
114,100,1,63
113,99,1,63
113,99,1,63
112,98,1,62
112,98,1,62
112,97,0,62
111,97,1,61
110,97,1,61
115,96,1,61
114,96,1,60
113,95,1,60
113,95,1,60
113,94,1,60
112,94,1,60
112,93,1,60
111,93,1,60
111,93,1,59
110,92,1,59
109,91,0,59
109,91,1,59
109,91,1,58
109,90,1,58
109,89,1,57
108,89,1,57
108,89,1,57
107,89,1,57
107,88,0,63
106,88,1,62
106,87,1,62
105,87,1,62
105,86,1,61
103,86,1,61
103,86,1,61
103,85,1,60
115,85,1,60
115,84,1,60
114,84,1,60
113,83,1,59
113,83,1,59
112,105,1,59
112,103,1,59
111,103,1,58
110,103,0,58
110,103,1,58
109,102,1,57
109,101,1,57
115,101,1,57
120,100,1,57
119,100,1,56
118,99,1,56
118,99,1,56
117,98,1,56
116,98,1,56
115,97,1,55
115,97,1,55
115,97,1,55
114,96,1,54
113,96,0,54
113,95,1,54
116,95,1,53
117,94,1,53
117,94,1,53
116,93,1,53
115,93,1,52
115,93,1,52
114,93,1,57
114,92,0,57
113,91,1,57
112,91,1,57
112,91,1,56
112,90,1,56
111,89,0,56
120,89,1,56
120,89,1,56
119,88,1,56
118,88,0,55
117,88,1,55
117,92,1,54
116,92,1,56
115,92,1,56
115,91,1,56
115,91,1,56
114,90,1,56
113,89,0,55
113,89,1,55
113,89,1,54
116,89,1,54
115,88,1,54
115,88,1,54
114,87,0,53
113,88,0,61
113,87,0,82
113,86,1,81
112,86,0,81
112,86,0,80
111,85,1,79
110,85,0,79
110,84,0,79
111,83,1,78
113,83,1,78
112,83,1,78
112,83,0,77
111,82,1,77
110,86,1,77
110,86,1,76
109,85,1,76
109,85,1,76
108,84,0,76
108,83,0,75
107,83,0,75
107,83,0,74
108,82,1,74
118,82,1,74
118,82,0,73
117,81,0,73
116,81,1,73
115,83,1,73
115,83,0,75
115,82,1,75
114,82,0,75
113,81,0,74
113,81,0,73
112,80,1,73
112,79,1,73
111,79,0,71
121,79,1,71
120,79,0,71
120,78,1,71
120,78,0,71
118,79,0,71
118,78,1,71
117,78,0,71
117,78,1,71
116,77,1,71
115,77,1,71
115,77,1,71
114,76,0,70
114,76,1,70
123,75,1,70
123,75,1,69
121,75,0,69
121,75,0,68
121,74,0,68
120,74,1,68
120,73,0,67
119,73,1,67
118,73,0,67
118,72,0,67
117,71,1,66
116,71,0,66
115,71,1,66
120,71,1,65
120,71,1,65
119,71,0,65
119,70,1,64
118,70,1,64
117,70,1,67
117,69,1,67
116,69,0,67
115,68,0,67
115,68,0,67
114,68,0,66
114,67,1,66
113,67,0,65
114,67,1,65
113,67,1,65
113,66,1,65
112,66,1,64
112,66,0,64
111,71,0,71
110,71,0,73
110,70,1,71
109,70,1,71
109,69,0,71
108,69,1,71
108,69,0,71
108,68,0,70
120,68,1,70
119,67,0,70
118,67,1,69
117,67,0,69
117,67,0,69
116,77,0,69
116,77,0,70
115,76,0,69
115,76,0,69
114,76,0,69
113,75,0,68
113,75,1,68
112,75,0,67
121,74,1,67
121,73,1,67
120,73,1,67
120,73,1,66
119,73,1,66
118,72,1,66
118,71,1,65
117,71,1,65
116,71,0,65
115,71,1,64
115,71,1,64
115,70,1,63
114,70,1,63
120,69,1,63
119,69,1,63
118,68,1,63
117,68,1,63
117,68,1,62
116,68,1,62
115,67,1,66
115,67,1,66
115,67,1,65
114,67,1,65
113,66,1,64
113,66,1,64
112,66,1,63
119,65,1,63
118,66,1,63
117,65,1,63
117,65,1,63
116,64,1,63
115,94,1,62
115,93,1,62
114,93,1,62
114,92,1,62
113,92,1,62
113,91,1,61
112,90,1,61
112,90,1,61
117,89,1,60
118,89,1,60
117,89,1,60
116,88,1,60
115,88,1,59
115,130,1,73
115,129,1,75
114,127,1,75
114,127,1,74
113,126,1,73
112,126,1,73
112,125,1,73
111,124,1,72
113,123,1,71
113,123,1,71
112,122,1,71
112,121,1,71
111,121,1,71
111,120,1,71
110,120,1,70
109,120,1,70
108,118,1,70
108,118,1,69
108,117,1,69
107,116,1,69
107,116,1,68
106,115,1,67
106,115,1,67
105,114,1,67
105,113,1,67
103,113,1,67
103,113,1,67
103,112,1,66
102,112,1,66
102,111,1,65
102,110,1,65
101,110,2,65
112,109,2,65
114,109,2,64
113,108,2,63
113,108,2,63
112,107,2,63
112,107,2,63
111,106,2,63
110,106,2,63
110,105,2,62
109,105,2,62
108,103,2,62
108,103,2,61
108,103,2,61
118,102,2,61
117,102,2,61
116,102,2,60
116,101,2,60
115,128,2,60
115,129,2,63
114,127,2,63
113,127,2,63
113,126,2,63
112,125,2,62
112,125,2,62
111,124,2,62
114,124,2,61
115,123,2,61
114,122,2,61
113,121,2,60
113,121,2,60
112,120,2,60
112,120,2,60
111,120,2,60
111,118,2,59
110,118,2,59
109,118,2,59
109,117,2,58
109,116,2,58
123,115,2,57
122,115,2,57
121,114,2,57
121,114,2,57
120,113,2,57
120,113,2,59
119,112,2,58
119,112,2,58
118,111,2,57
117,111,2,57
117,110,2,57
115,109,2,57
123,109,2,56
123,108,2,56
121,108,2,56
121,107,2,56
121,107,2,56
120,108,2,62
120,107,2,62
119,107,2,62
118,107,2,61
118,106,2,61
117,105,2,60
116,103,2,60
123,103,2,60
123,103,2,60
123,103,2,59
122,103,2,59
121,102,2,58
120,102,2,61
120,101,2,63
120,100,2,63
119,100,2,63
118,99,2,63
118,99,2,62
117,99,2,62
117,99,2,62
121,98,2,62
121,97,2,61
120,97,2,61
120,96,2,60
119,96,2,60
118,96,2,60
118,95,2,60
117,95,2,60
116,95,2,59
115,94,2,59
115,94,2,59
115,93,2,59
115,93,2,58
121,92,2,58
120,92,2,58
120,92,2,57
119,91,2,57
119,91,2,57
118,90,2,57
117,90,2,60
117,89,2,59
116,89,2,59
115,89,2,59
115,88,2,58
114,88,2,58
114,88,2,58
120,88,2,57
120,87,2,57
120,87,2,57
118,86,2,56
118,86,2,57
117,85,2,57
116,85,2,65
115,85,2,64
115,84,2,63
115,83,2,63
115,83,1,63
114,83,1,63
113,83,2,62
121,82,2,63
121,82,2,62
120,81,2,62
120,81,2,61
120,81,2,61
119,109,2,64
118,109,1,64
117,108,2,63
117,107,2,63
116,106,2,63
115,106,2,62
115,105,2,62
114,105,2,62
119,103,2,62
118,103,1,61
117,103,1,61
116,103,1,61
115,102,1,61
115,102,2,65
115,101,2,65
114,101,2,64
113,100,2,64
113,99,1,63
113,99,1,63
112,99,2,63
117,98,2,62
117,98,2,63
116,97,2,62
116,97,1,62
115,97,2,61
115,96,1,62
114,96,1,69
113,95,1,69
113,95,1,68
112,94,1,68
112,94,1,67
111,94,1,67
111,93,2,67
115,92,2,67
115,92,2,66
115,92,2,66
114,91,2,66
114,91,2,65
113,90,2,65
112,90,2,65
112,89,2,64
111,89,2,64
111,89,2,63
111,88,2,63
110,88,2,63
109,88,2,63
116,87,2,62
118,87,2,62
117,86,2,62
116,86,2,61
115,85,2,61
115,91,2,62
115,91,2,63
114,91,2,63
113,89,2,62
113,89,2,62
112,89,2,62
112,89,1,62
111,88,2,61
115,88,2,61
120,88,2,61
120,87,2,60
120,86,2,60
118,86,2,60
118,86,2,60
117,85,2,67
117,85,2,67
115,84,2,67
115,84,2,67
115,83,2,66
114,83,2,66
114,83,2,65
116,82,2,65
118,82,2,65
116,82,2,64
115,82,2,64
115,81,1,63
115,85,2,63
115,87,2,70
114,86,2,70
113,86,2,69
113,85,2,68
112,85,2,68
112,84,1,67
111,84,2,67
114,83,2,67
123,83,2,67
121,83,2,66
121,82,2,66
120,82,2,66
120,82,2,65
120,81,2,65
119,81,2,65
118,80,1,65
118,79,1,64
117,79,2,63
116,79,2,63
115,79,2,63
116,79,2,63
123,78,2,63
122,78,2,62
121,77,2,62
121,77,2,62
120,77,2,61
120,77,2,61
119,76,2,61
118,76,2,61
118,76,2,60
117,76,2,60
117,75,2,60
115,75,2,60
115,74,2,59
120,74,2,59
119,74,2,59
118,73,2,58
117,73,2,58
117,73,2,58
116,73,2,71
115,71,2,71
115,71,2,71
115,71,2,70
114,71,2,70
113,71,2,70
113,70,2,69
113,70,2,69
115,70,2,68
115,70,2,68
114,69,2,67
114,69,2,67
113,69,2,67
112,87,2,67
112,86,2,66
112,86,2,66
111,85,2,65
110,85,2,65
110,85,2,65
109,84,2,65
109,83,2,64
121,83,2,64
120,83,2,63
120,82,2,63
120,82,2,63
119,81,2,63
118,96,2,63
117,95,2,63
117,94,2,63
116,94,2,62
115,93,2,62
115,93,2,62
115,92,2,62
114,92,2,61
120,91,2,61
120,91,2,60
120,90,2,60
119,90,2,60
118,90,2,60
117,93,2,63
117,92,2,63
116,91,2,63
115,91,2,62
115,91,2,62
114,90,2,62
114,89,2,61
113,89,2,61
120,89,2,61
119,88,2,61
118,88,2,60
118,88,3,60
117,88,2,60
116,110,2,60
115,109,2,61
115,108,2,61
115,108,2,60
114,107,2,60
113,106,2,60
113,105,3,60
119,105,3,59
121,105,2,59
121,103,3,59
120,103,3,58
120,103,2,58
119,103,2,60
118,102,3,63
117,101,3,63
117,101,2,62
116,100,2,62
115,99,3,62
115,99,3,61
115,99,3,61
123,98,3,61
122,98,3,61
121,97,3,60
121,97,3,60
120,97,3,60
120,96,3,63
119,96,3,63
119,95,3,63
118,95,3,62
117,94,3,62
117,94,3,62
115,93,2,62
115,93,3,62
120,92,3,61
120,92,3,61
120,92,3,60
119,91,3,61
118,91,3,60
118,94,3,60
117,93,3,60
117,93,3,60
115,93,2,60
115,92,3,59
115,92,2,59
114,91,2,59
113,91,2,59
121,90,3,58
121,89,2,58
121,89,3,57
120,89,2,57
120,88,3,57
120,89,2,58
119,89,2,61
118,89,3,60
118,88,2,60
117,88,2,60
116,88,2,60
115,87,2,59
115,86,2,59
121,86,3,59
121,86,2,58
121,85,2,58
120,85,2,58
119,84,2,57
119,86,2,57
118,86,2,57
118,85,2,57
117,85,2,56
116,84,2,56
116,83,2,56
115,83,2,56
115,83,2,56
121,82,2,56
124,82,2,55
123,82,2,54
123,81,2,54
122,81,2,54
121,81,2,54
121,80,2,56
120,80,2,55
120,79,2,55
119,79,2,54
119,79,2,54
118,79,2,54
117,79,2,54
119,78,2,54
119,78,2,53
119,77,2,53
118,77,2,53
117,76,2,53
117,79,2,54
115,79,2,57
115,79,2,57
115,78,2,56
114,78,2,56
113,78,2,56
113,77,2,56
113,77,2,55
119,77,2,56
124,76,2,55
124,76,2,55
123,76,2,54
123,75,2,54
122,75,2,54
121,75,2,70
120,74,2,69
120,74,2,69
120,73,2,69
119,73,2,68
118,73,2,68
118,71,2,67
118,71,2,67
121,71,2,67
121,71,2,66
120,71,2,66
120,71,2,66
119,100,2,65
118,99,2,67
118,98,2,66
117,97,2,66
116,97,2,66
115,96,2,65
115,96,1,65
115,96,2,65
118,95,2,64
119,94,2,63
119,94,2,63
118,94,2,63
117,93,2,63
117,93,2,70
116,92,1,78
115,92,1,78
115,92,2,77
115,91,1,77
114,91,1,76
113,90,1,76
113,89,2,76
115,89,2,75
120,89,1,75
120,88,1,74
120,88,1,74
119,88,1,73
118,87,1,73
117,88,2,74
117,87,1,73
116,86,1,73
115,85,1,73
115,85,1,73
115,85,1,72
114,84,2,71
113,84,1,71
119,83,1,71
118,83,2,71
118,83,1,71
117,82,1,70
117,94,1,70
115,96,1,75
115,96,1,74
115,95,1,73
114,94,1,73
114,94,1,73
113,93,1,73
112,93,1,71
112,93,2,71
116,92,1,71
115,92,2,71
115,91,1,71
115,91,1,71
114,92,1,70
113,92,1,70
113,92,1,70
112,92,1,70
112,91,1,69
111,90,1,69
111,90,1,68
110,89,1,68
110,89,1,67
121,88,1,67
120,88,1,67
119,88,1,67
119,88,1,66
118,87,1,66
117,87,1,66
117,86,1,66
116,86,1,65
115,85,1,65
115,85,1,64
114,85,1,64
114,84,1,63
113,83,2,63
118,83,2,63
117,83,2,63
117,82,1,63
116,82,2,63
115,82,2,63
115,88,2,68
114,87,1,67
114,87,1,67
113,86,1,67
113,86,1,67
112,85,1,66
112,84,1,66
111,84,2,66
125,83,2,65
125,83,1,65
124,83,2,65
123,83,1,64
123,82,2,63
122,82,1,63
121,81,1,63
121,81,2,63
120,81,2,63
120,80,1,63
120,80,1,62
119,79,2,62
118,79,2,62
121,79,2,61
120,78,2,61
120,78,1,61
119,78,1,61
118,77,2,60
118,79,1,60
117,78,1,60
117,78,1,59
116,77,1,59
115,77,1,59
115,76,1,59
114,76,1,58
113,76,2,58
119,76,1,57
118,75,2,57
118,75,2,57
117,74,2,57
116,74,2,57
115,91,2,59
115,90,2,58
115,89,1,58
114,89,2,57
114,89,2,57
113,88,1,57
112,88,2,57
112,87,2,56
115,86,2,56
114,86,2,56
114,86,2,56
113,85,2,56
113,85,2,56
112,87,2,55
112,87,2,54
111,86,2,55
111,86,2,54
110,85,1,54
110,85,1,54
109,84,2,53
109,84,1,53
117,83,2,53
117,83,2,52
115,82,2,52
115,82,2,52
115,82,1,51
114,81,2,54
114,81,1,55
113,81,1,54
112,81,1,54
112,80,2,54
112,79,1,54
111,79,2,53
111,79,2,53
125,79,2,52
124,78,2,52
124,78,2,52
123,77,2,51
123,77,2,51
121,77,1,53
121,76,2,53
120,76,1,53
120,76,2,53
120,75,2,52
119,75,2,52
118,74,2,51
118,74,2,51
120,74,2,51
120,73,2,51
119,73,2,51
118,73,2,50
118,71,2,50
117,71,2,56
117,71,2,60
116,71,2,60
115,71,1,59
115,71,2,59
115,71,2,59
114,70,2,58
113,70,2,57
118,70,2,57
118,69,2,57
117,69,2,57
116,68,2,57
116,68,2,56
115,69,2,57
115,68,2,60
114,68,2,60
114,67,2,60
113,67,2,60
113,67,2,60
112,67,2,59
111,66,2,59
123,66,2,59
123,66,2,58
123,66,2,58
121,65,2,58
121,65,2,57
121,93,2,57
120,92,2,60
120,92,2,59
119,91,2,59
118,90,2,59
117,90,2,59
117,89,2,58
116,89,2,58
120,88,2,57
121,88,2,57
120,88,2,57
120,88,2,56
119,87,1,57
118,103,1,67
118,102,2,69
117,101,1,68
116,100,1,68
115,100,2,67
115,99,1,67
115,99,1,67
114,99,2,67
113,98,2,66
113,97,2,66
112,97,2,66
112,96,2,66
111,96,2,95
111,96,2,189
110,96,1,235
110,95,1,233
109,94,1,231
109,94,1,230
108,93,1,229
108,93,7,227
146,93,7,226
190,92,7,225
188,91,8,224
188,91,7,223
186,90,7,221
185,90,7,220
184,90,7,219
183,89,7,217
182,89,7,217
181,88,7,216
180,88,7,215
179,88,7,214
179,87,7,213
179,86,7,211
192,86,7,210
191,86,7,209
190,85,7,208
189,86,7,207
188,152,7,207
187,188,7,206
186,185,7,204
185,184,7,203
184,183,7,203
183,182,7,201
182,180,7,199
181,179,7,199
180,179,7,286
179,177,7,319
178,177,17,315
177,176,18,312
176,175,18,311
175,174,17,308
174,173,17,307
173,172,17,305
172,171,17,303
171,170,19,302
171,169,84,300
169,167,124,297
169,167,219,391
167,193,216,541
167,289,214,696
166,373,211,685
165,368,210,679
163,364,208,671
163,361,207,664
162,359,206,657
161,357,205,653
281,354,204,647
293,352,203,639
290,349,201,634
287,347,199,630
286,345,199,624
284,342,198,618
283,339,197,612
280,338,195,608
279,335,195,603
277,334,193,598
275,332,192,592
273,329,191,588
271,344,190,583
270,341,189,579
269,339,188,574
267,337,187,569
265,335,185,566
263,332,185,561
262,329,184,556
260,327,183,551
259,326,182,549
258,388,180,544
255,543,180,540
254,618,179,536
253,610,177,532
252,604,177,528
250,598,176,524
248,591,175,521
248,588,174,518
246,583,173,514
245,577,172,510
243,572,172,506
242,568,171,504
241,563,169,499
240,559,169,573
238,553,167,627
237,550,167,622
236,545,166,615
234,541,165,609
231,536,164,604
231,533,163,600
230,529,162,594
229,524,162,589
227,519,161,583
226,517,159,579
225,513,159,575
224,508,158,615
223,504,158,818
221,502,157,902
220,497,156,909
219,494,155,913
218,489,155,917
217,487,153,919
216,483,152,920
214,480,152,921
213,476,152,918
211,473,150,903
211,470,149,887
210,467,148,900
209,463,147,909
207,460,147,914
207,457,146,916
206,454,146,919
204,451,145,920
203,448,144,921
202,445,143,921
201,441,143,915
199,439,142,891
199,435,141,879
198,527,141,870
197,560,140,860
195,555,139,849
195,550,139,839
193,546,137,896
193,541,137,899
192,536,135,886
192,532,135,873
190,528,135,863
189,524,134,855
188,519,134,844
187,515,133,835
186,512,132,825
185,508,131,818
184,504,131,816
184,499,130,807
182,496,130,798
237,493,225,792
235,489,256,783
234,497,255,775
231,563,259,767
231,571,319,760
229,565,316,753
227,560,314,745
226,555,312,738
225,551,310,732
224,546,307,725
222,541,306,718
221,536,304,711
220,533,302,705
219,528,300,699
217,524,297,693
216,519,295,686
215,517,294,679
214,512,293,675
213,508,291,669
211,504,289,663
210,501,287,686
210,497,286,681
209,493,293,674
207,489,291,667
207,486,289,660
205,482,287,655
204,479,285,650
204,475,284,645
202,472,283,639
201,469,281,635
199,465,280,629
199,462,278,624
198,459,276,619
196,455,275,615
195,453,273,609
194,449,271,604
193,446,270,600
192,444,268,595
191,440,267,591
190,438,265,586
189,435,263,582
188,432,262,578
187,429,261,573
186,426,259,569
185,423,259,564
184,421,257,560
184,418,255,557
183,415,253,553
181,412,252,548
180,411,251,543
179,408,249,541
178,405,248,537
227,402,248,533
225,399,246,529
224,397,244,526
223,395,243,523
221,391,242,519
220,390,240,515
218,387,239,512
217,385,238,508
216,384,236,504
215,380,235,500
213,379,234,497
211,376,231,494
210,374,231,491
209,371,231,487
207,369,229,485
207,367,227,481
206,365,227,478
205,363,225,475
203,361,224,473
202,359,223,470
201,356,222,466
199,354,221,463
199,352,220,460
198,423,219,458
197,481,217,455
195,477,217,451
195,473,216,449
193,470,214,447
192,466,213,444
191,462,212,441
190,459,211,438
189,455,210,435
188,451,209,433
187,448,207,430
186,445,207,428
185,443,206,425
184,440,204,423
183,437,204,420
182,433,203,417
181,431,201,415
180,428,199,413
179,425,199,411
178,422,199,408
177,419,197,406
176,415,196,403
175,413,196,401
174,410,195,399
173,408,193,396
172,405,192,394
171,402,192,391
171,399,191,390
169,397,190,387
169,395,189,385
167,391,188,384
167,389,187,381
167,387,186,379
165,384,185,377
164,382,184,375
163,379,184,373
163,377,182,370
162,374,181,369
162,372,180,367
160,369,179,364
159,367,179,362
159,366,178,361
158,363,177,359
157,361,176,356
156,358,175,355
156,356,175,353
155,354,174,351
154,352,173,349
153,350,172,347
152,348,171,345
152,345,170,344
152,344,169,342
151,342,167,339
150,339,167,338
149,338,167,336
147,335,166,335
147,446,166,333
156,474,164,331
279,470,163,329
295,465,163,327
291,462,162,326
289,459,161,324
287,455,160,323
286,451,159,321
284,448,159,319
282,444,159,318
280,441,157,316
279,439,156,315
277,435,156,313
275,432,155,312
273,429,154,310
271,426,153,308
270,423,153,307
268,419,152,305
267,417,152,304
265,414,151,302
263,411,150,300
262,408,149,299
260,406,148,297
259,435,148,295
257,449,147,295
255,487,147,293
254,483,146,291
253,479,145,290
251,475,144,289
250,472,143,287
248,468,143,388
248,465,249,462
246,461,246,457
244,457,245,453
243,455,243,449
241,451,241,446
240,448,240,443
239,444,239,440
237,441,237,435
236,439,235,433
235,529,234,430
233,621,233,427
231,614,231,423
231,609,230,422
230,603,228,419
228,598,227,415
227,591,239,412
226,588,237,411
225,582,235,408
223,577,234,405
222,572,233,402
221,568,231,399
220,563,230,397
219,559,228,395
217,553,227,391
216,550,226,389
215,545,224,387
214,541,227,385
213,536,331,382
211,533,403,379
211,529,399,377
209,524,397,377
208,519,395,377
207,517,391,376
206,513,388,373
205,508,385,371
204,504,384,368
203,501,381,366
201,498,378,390
201,494,438,387
199,490,459,384
199,487,455,380
198,483,451,386
197,480,448,533
195,476,445,527
195,473,441,522
194,470,439,518
192,467,435,514
192,463,463,510
191,460,624,505
190,458,686,502
188,454,678,498
188,451,671,494
187,448,665,490
186,586,659,487
185,719,653,483
187,710,836,614
325,702,900,801
366,696,910,789
389,689,908,781
385,681,892,772
382,675,882,763
380,669,871,755
376,663,861,749
374,656,851,740
472,650,844,733
630,644,835,725
810,639,825,719
843,633,816,711
831,627,809,705
823,622,801,698
814,617,792,693
804,611,783,686
795,606,777,679
787,601,770,673
780,597,761,668
771,591,754,662
763,587,749,655
756,582,741,650
888,578,734,646
908,573,727,639
913,568,719,634
917,563,715,628
920,560,708,623
921,555,701,619
922,551,696,613
924,546,691,608
924,543,684,603
926,539,678,599
926,534,671,594
927,530,668,589
929,527,662,583
929,523,655,581
930,519,651,575
929,514,647,571
926,510,641,567
908,507,635,563
886,504,630,559
876,499,626,554
866,496,621,550
856,493,615,547
847,489,611,543
838,486,607,539
829,482,602,534
821,479,598,531
812,476,593,527
803,473,590,524
796,470,585,519
788,467,581,517
780,463,575,513
772,460,572,509
765,457,568,505
758,455,564,502
751,451,560,499
743,448,556,495
737,445,553,492
729,443,548,487
723,440,545,486
717,437,541,482
711,434,537,479
704,432,534,476
697,428,530,473
691,425,526,470
686,423,524,467
679,420,519,463
673,418,515,461
668,415,512,457
663,412,509,455
657,409,505,451
652,408,502,449
647,405,499,446
641,402,496,444
636,399,492,441
631,398,489,439
626,395,486,435
621,393,483,433
615,390,480,430
611,388,477,427
607,385,474,425
602,383,471,422
598,380,469,419
593,379,465,417
589,376,462,415
583,374,460,412
579,371,457,409
575,370,455,407
571,368,451,405
567,366,448,403
563,363,447,399
559,361,444,398
555,359,441,396
551,357,438,393
547,355,435,391
543,353,433,389
539,352,430,387
536,349,428,384
531,347,425,382
528,345,423,380
524,344,420,378
521,341,418,376
518,339,415,373
514,337,413,371
510,335,411,370
507,334,409,367
504,332,406,365
499,329,403,363
496,327,401,359
493,327,399,359
490,324,397,357
487,322,395,355
483,321,391,353
481,319,391,352
478,317,387,349
475,315,386,348
472,314,384,345
468,312,382,344
465,310,380,342
463,309,377,339
460,307,376,338
457,305,374,336
454,304,371,335
451,302,370,333
448,301,368,331
446,299,365,329
443,297,363,327
440,295,362,326
438,294,359,324
435,293,358,323
432,291,355,321
430,289,354,319
427,287,352,317
423,287,350,316
422,285,348,314
419,284,346,313
417,282,345,311
415,280,343,309
412,280,341,308
410,278,339,306
408,276,338,304
405,275,335,303
403,273,334,302
400,271,332,300
398,270,331,298
396,270,329,297
393,268,327,295
391,267,326,294
390,265,324,292
387,263,322,291
384,262,321,290
383,261,319,287
380,259,318,286
378,258,316,285
376,257,314,284
374,255,312,283
371,254,312,281
370,253,310,280
368,252,307,279
366,251,306,277
364,249,305,275
362,248,304,274
359,247,302,273
358,245,300,271
355,244,299,270
354,243,297,269
352,242,295,268
350,241,295,267
348,240,292,265
346,238,291,263
344,237,290,262
343,236,288,261
341,235,287,259
339,233,286,259
337,231,284,257
335,231,283,255
333,230,281,255
332,229,280,254
330,227,279,252
327,227,277,252
327,225,276,250
325,225,275,249
323,224,273,248
321,223,271,247
319,221,271,246
318,220,270,244
316,219,268,243
315,218,267,242
313,217,265,241
312,216,263,240
310,215,263,239
308,214,262,238
307,213,260,236
305,211,259,235
304,211,258,234
302,210,257,233
300,209,255,231
299,207,254,231
297,207,253,230
295,206,252,229
294,205,251,227
293,204,249,227
291,203,249,226
290,202,247,224
288,201,246,224
287,199,244,223
286,199,243,222
284,198,243,221
283,198,241,220
281,196,240,219
280,195,239,217
279,194,238,217
277,194,237,216
275,193,236,215
274,192,235,214
273,191,233,213
271,190,233,211
270,189,231,211
269,188,230,210
268,187,229,209
266,187,228,207
265,185,227,207
263,185,226,206
262,184,225,205
261,184,224,204
259,183,223,204
259,181,222,203
257,180,221,201
255,179,220,199
254,179,219,199
253,178,218,199
252,177,217,198
251,176,216,197
249,175,215,196
248,175,214,195
247,174,213,194
246,173,212,193
245,172,211,193
243,172,210,192
242,171,209,191
241,169,208,190
240,169,207,189
239,167,206,188
238,167,205,188
237,167,204,187
235,166,204,186
235,165,203,185
233,165,201,184
231,163,199,184
231,163,199,183
230,162,199,182
229,161,198,181
227,161,197,180
227,159,196,179
225,159,195,179
224,159,194,178
224,158,194,177
222,157,193,176
221,156,192,176
220,156,191,175
219,155,190,174
218,154,189,173
217,153,188,173
216,153,188,172
216,152,187,171
214,152,186,170
213,151,185,169
212,150,184,169
211,149,184,167
210,148,183,167
209,148,182,167
207,147,181,166
207,147,180,165
206,146,179,164
205,145,178,163
204,144,177,163
203,143,177,162
202,143,176,161
201,143,175,161
199,142,175,160
199,141,174,159
198,141,173,158
198,140,172,158
197,140,172,157
195,139,171,157
195,138,170,156
194,137,169,155
193,137,167,154
192,135,167,154
191,135,167,153
190,135,166,153
189,135,166,152
188,134,165,152
188,133,164,151
187,133,163,150
186,132,163,150
185,131,162,149
184,131,161,148
184,130,161,147
183,129,159,147
182,129,159,146
181,128,159,145
179,127,158,145
179,127,157,145
178,126,156,143
178,126,156,143
177,125,155,143
176,125,154,142
176,124,153,141
174,124,153,140
173,123,152,140
173,123,152,140
172,122,152,139
171,121,150,138
170,121,150,138
169,121,149,137
169,120,148,159
167,120,147,158
167,119,147,158
167,118,146,211
166,118,146,210
165,117,145,207
164,117,144,207
163,116,143,205
163,115,143,204
162,115,142,203
162,115,142,201
161,114,141,237
159,114,140,235
159,113,140,250
159,112,140,248
158,112,139,246
157,112,138,245
156,111,137,243
156,111,137,241
155,110,135,240
154,110,135,259
153,109,135,257
152,108,135,255
152,108,134,253
152,108,134,252
151,107,133,251
150,107,132,248
150,106,131,247
149,106,131,245
148,105,130,244
147,105,130,243
147,103,129,241
146,103,129,240
145,103,128,239
145,103,127,305
144,102,127,303
143,102,126,300
143,102,126,299
142,101,231,297
142,101,230,295
141,100,228,293
140,99,227,291
140,99,225,289
139,99,224,287
139,98,222,286
138,98,221,284
137,97,220,283
136,97,219,281
135,97,217,280
135,96,216,278
135,96,215,276
135,96,214,275
134,95,213,273
133,95,211,271
132,94,211,270
132,94,209,268
131,93,207,267
131,93,207,265
130,93,206,263
130,92,205,263
129,92,204,262
129,91,203,259
128,91,201,258
127,90,199,257
127,90,199,255
126,90,198,255
126,89,197,253
126,89,196,251
125,88,195,251
124,88,194,249
124,88,193,248
124,88,206,246
123,87,210,245
122,87,208,243
122,86,207,242
121,86,206,241
121,86,206,240
120,85,204,239
120,85,203,238
120,85,202,236
119,84,199,236
118,83,199,234
118,83,199,233
117,83,197,231
117,83,196,230
116,82,195,229
115,82,194,228
115,82,193,227
115,81,192,225
114,80,191,224
114,80,190,224
113,79,189,222
113,80,188,222
113,79,187,220
112,79,186,220
111,79,185,218
111,78,185,217
110,78,184,216
110,78,183,215
110,77,182,214
109,77,181,213
109,85,180,211
108,173,179,211
108,187,178,209
107,185,177,208
107,184,176,207
106,182,175,206
105,181,174,205
105,179,173,204
103,178,172,203
103,178,172,203
103,176,171,201
103,175,169,199
103,174,169,199
102,174,167,198
102,172,167,197
102,171,167,196
101,170,165,195
101,169,165,194
100,167,163,193
99,167,163,192
99,167,162,192
99,166,161,190
99,165,160,189
98,163,159,188
98,163,159,188
97,162,158,187
97,161,157,186
96,161,157,185
96,159,156,184
96,158,155,183
95,158,155,183
95,157,153,182
94,156,153,181
94,155,152,180
94,154,152,179
93,153,151,178
92,153,150,177
92,152,149,177
92,151,148,176
92,151,147,175
174,150,147,174
191,149,146,173
189,147,145,172
188,147,145,172
187,146,143,171
185,145,143,170
184,145,143,169
184,143,142,167
183,143,141,167
181,142,141,167
179,142,140,166
179,141,139,164
178,140,139,164
177,139,138,163
176,139,137,163
175,137,135,162
174,137,135,161
173,137,135,160
172,135,135,159
171,135,134,158
169,135,133,158
169,133,132,157
167,132,132,156
167,132,131,156
166,131,131,155
165,131,130,154
