49,140,0,64
49,140,0,63
49,139,0,63
49,138,0,63
49,137,0,63
51,135,0,63
50,135,0,63
50,135,0,62
50,134,0,62
50,134,0,61
50,133,0,62
49,133,0,62
49,132,0,62
49,131,0,62
48,131,0,61
48,130,0,61
48,130,0,61
48,129,0,60
52,128,0,60
53,127,0,60
53,127,0,59
52,127,0,60
51,126,0,59
51,125,0,59
51,124,0,59
51,124,0,59
51,124,0,58
51,123,0,58
50,123,0,57
50,121,0,57
50,121,0,57
56,121,0,57
57,120,0,56
57,120,0,56
57,119,0,56
56,119,0,56
56,118,0,56
56,118,0,56
56,117,0,55
56,116,0,55
55,115,0,54
54,115,0,54
54,115,0,54
54,115,0,53
54,114,0,54
55,113,0,53
55,113,0,53
54,112,0,52
54,112,0,52
54,116,0,66
54,115,0,73
53,115,0,73
53,115,0,73
52,114,0,71
52,113,0,71
52,113,0,71
51,112,0,71
51,112,0,71
52,112,0,70
51,111,0,70
51,110,0,70
51,110,0,69
51,125,0,68
51,126,0,70
51,125,0,69
50,125,0,69
49,124,0,69
49,123,0,67
49,123,0,67
49,122,0,67
50,121,0,67
52,121,0,67
52,120,0,66
51,120,0,66
51,119,0,66
51,120,0,65
51,120,0,65
50,119,0,65
50,119,0,64
50,118,0,64
50,118,0,63
49,117,0,63
49,116,0,63
49,115,0,63
50,115,0,62
50,115,0,63
50,114,0,62
49,114,0,62
49,115,0,63
49,130,0,71
48,130,0,71
48,129,0,71
48,127,0,70
48,127,0,70
48,127,0,70
47,126,0,69
47,126,0,68
49,125,0,68
49,124,0,68
49,124,0,67
49,123,0,67
49,123,0,82
48,122,0,86
48,121,0,85
48,121,0,84
48,120,0,84
47,120,0,83
47,119,0,83
47,119,0,83
47,118,0,82
50,118,0,82
49,117,0,81
49,116,0,81
49,115,0,81
49,115,0,81
48,115,0,79
48,114,0,79
48,113,0,79
48,113,0,79
47,113,0,78
47,112,0,78
47,112,0,78
47,111,0,78
55,111,0,77
55,110,0,77
55,109,0,76
54,109,0,76
54,108,0,76
53,110,0,76
53,109,0,75
53,108,0,75
52,108,0,75
52,108,0,74
52,107,0,73
51,107,0,73
51,106,0,73
56,105,0,73
56,105,0,71
56,105,0,71
55,103,0,71
55,103,0,71
55,116,0,76
54,115,0,75
54,114,0,75
54,113,0,75
53,113,0,74
53,112,0,74
53,112,0,73
52,112,0,73
54,111,0,71
53,110,0,71
53,110,0,71
53,109,0,71
52,109,0,71
52,108,0,71
52,108,0,71
52,107,0,70
51,107,0,69
51,106,0,70
51,105,0,69
51,105,0,69
51,105,0,68
53,103,0,68
53,103,0,67
52,103,0,67
52,103,0,67
52,102,0,67
51,102,0,67
51,101,0,66
51,101,0,66
51,100,0,65
50,99,0,65
51,99,0,65
50,99,0,65
50,99,0,64
55,98,0,64
56,98,0,63
56,97,0,63
56,97,0,63
55,97,0,63
55,103,0,63
54,103,0,63
54,103,0,62
54,103,0,62
54,102,0,62
53,102,0,61
53,101,0,61
53,100,0,61
52,100,0,61
56,99,0,61
56,99,0,60
56,99,0,60
55,98,0,60
55,98,0,60
55,127,0,59
54,127,0,59
54,126,0,59
54,125,0,59
53,125,0,58
53,124,0,58
53,123,0,57
53,123,0,57
54,122,0,57
54,121,0,57
53,121,0,57
53,120,0,56
52,120,0,56
53,120,0,57
52,120,0,56
52,119,0,56
51,119,0,56
51,118,0,56
51,117,0,56
51,117,0,55
50,116,0,55
51,115,0,54
51,115,0,54
51,115,0,54
51,114,0,54
51,114,0,53
51,124,0,62
50,123,0,61
50,123,0,61
50,122,0,61
50,121,0,61
49,120,0,60
49,120,0,60
49,120,0,59
49,119,0,60
48,118,0,59
48,118,0,59
48,117,0,59
48,116,0,60
48,115,0,65
47,115,0,65
47,115,0,64
47,114,0,64
47,114,0,63
46,113,0,63
46,113,0,63
46,112,0,63
53,112,0,62
53,111,0,62
52,110,0,62
52,110,0,61
52,110,0,61
52,109,0,62
51,109,0,62
51,108,0,62
51,108,0,61
51,107,0,61
51,107,0,61
50,106,0,61
50,105,0,60
50,105,0,60
50,103,0,60
50,103,0,59
50,103,0,59
49,103,0,59
49,103,0,58
48,103,0,58
48,102,0,58
48,102,0,58
48,101,0,57
48,101,0,57
47,100,0,57
47,99,0,57
50,99,0,56
53,99,0,56
54,98,0,56
53,98,0,56
53,98,0,56
52,97,0,56
52,97,0,55
51,97,0,55
51,96,0,55
51,96,0,54
51,95,0,54
51,95,0,54
51,94,0,54
50,94,0,53
53,93,0,53
54,93,0,53
54,93,0,52
53,92,0,52
53,92,0,51
53,92,0,52
52,91,0,54
52,91,0,54
51,91,0,53
51,90,0,53
51,89,0,53
51,89,0,53
51,89,0,52
51,88,0,52
56,88,0,52
56,88,0,51
56,88,0,51
56,88,0,51
55,87,0,51
55,87,0,51
55,91,0,51
54,90,0,50
54,89,0,51
54,89,0,50
53,89,0,50
53,89,0,49
53,88,0,49
53,88,0,49
54,88,0,49
54,88,0,48
54,87,0,48
53,86,0,48
53,86,0,48
53,120,0,48
53,119,0,48
52,119,0,48
52,118,0,48
51,117,0,48
51,117,0,47
51,115,0,47
51,115,0,47
52,115,0,46
52,114,0,46
52,113,0,46
51,113,0,46
51,112,0,46
51,118,0,73
51,117,0,79
51,117,0,78
50,116,0,78
50,115,0,77
50,115,0,77
49,114,0,76
49,114,0,76
53,113,0,76
53,113,0,76
53,112,0,75
52,112,0,75
52,111,0,74
52,121,0,79
51,120,0,79
51,120,0,79
51,119,0,78
51,118,0,78
51,118,0,78
51,117,0,77
50,116,0,77
51,115,0,76
51,115,0,76
51,114,0,76
51,114,0,75
50,113,0,75
50,124,0,75
50,124,0,74
49,123,0,74
49,123,0,73
49,122,0,73
49,121,0,73
49,120,0,73
48,120,0,71
51,120,0,71
51,119,0,71
51,118,0,71
50,118,0,71
50,117,0,71
50,118,0,70
50,117,0,70
49,116,0,70
49,115,0,69
49,115,0,69
49,115,0,68
48,114,0,68
48,113,0,68
52,113,0,67
59,112,0,67
58,112,0,67
58,111,0,66
57,111,0,66
57,119,0,66
57,118,0,66
57,117,0,66
56,117,0,65
56,115,0,65
56,115,0,65
56,115,0,64
55,114,0,63
56,113,0,63
56,113,0,63
56,113,0,63
56,112,0,63
56,112,0,62
56,112,0,62
55,112,0,62
54,111,0,62
54,111,0,62
54,110,0,61
54,110,0,61
53,109,0,61
53,108,0,60
55,108,0,60
58,108,0,60
57,107,0,60
57,107,0,60
57,106,0,60
56,106,0,59
56,105,0,59
56,105,0,58
56,103,0,58
56,103,0,58
56,103,0,57
55,103,0,57
54,103,0,57
55,102,0,57
56,102,0,57
56,101,0,57
55,100,0,56
55,100,0,56
55,126,0,56
54,125,0,56
54,125,0,56
54,124,0,56
53,123,0,55
53,123,0,55
53,122,0,55
52,121,0,54
53,121,0,54
56,120,0,54
56,120,0,53
55,120,0,53
55,119,0,53
54,118,0,52
54,117,0,61
54,117,0,61
54,116,0,61
53,115,0,60
53,115,0,60
53,114,0,60
52,114,0,59
52,113,0,59
53,113,0,58
53,112,0,58
52,112,0,57
52,111,0,58
52,111,0,57
51,110,0,60
51,110,0,60
51,109,0,59
51,108,0,59
50,108,0,59
50,108,0,58
50,107,0,58
50,106,0,57
60,106,0,57
60,106,0,57
59,105,0,57
59,105,0,57
59,110,0,57
58,110,0,57
58,109,0,56
58,109,0,56
57,108,0,56
57,108,0,56
57,107,0,56
56,107,0,55
56,106,0,55
58,105,0,55
58,105,0,54
58,105,0,54
57,103,0,53
57,120,0,53
57,124,0,59
57,123,0,58
56,123,0,58
56,122,0,58
56,121,0,57
56,121,0,57
55,120,0,57
55,120,0,56
56,120,0,56
55,119,0,56
54,118,0,56
55,117,0,56
54,117,0,55
54,117,0,59
54,116,0,59
53,115,0,59
53,115,0,58
53,115,0,58
52,114,0,57
52,113,0,57
52,113,0,57
53,112,0,57
52,112,0,56
52,111,0,56
52,111,0,56
51,110,0,56
51,110,0,59
51,109,0,60
51,109,0,59
51,108,0,59
50,107,0,59
50,108,0,58
50,107,0,58
49,106,0,57
54,105,0,57
54,105,0,57
53,105,0,57
53,103,0,57
53,103,0,56
52,105,0,56
52,105,0,56
52,105,0,56
51,103,0,55
51,103,0,55
51,103,0,55
51,103,0,54
51,102,0,54
52,102,0,54
51,102,0,54
51,101,0,53
51,101,0,53
51,100,0,53
51,99,0,57
50,99,0,60
50,99,0,59
49,99,0,59
50,98,0,58
49,97,0,58
49,97,0,58
49,97,0,58
49,96,0,57
50,96,0,57
49,96,0,57
49,95,0,57
49,94,0,57
48,94,0,57
48,110,0,56
48,110,0,56
48,109,0,56
48,109,0,55
47,108,0,56
47,107,0,55
47,107,0,55
47,106,0,54
53,105,0,54
52,105,0,53
52,105,0,53
52,103,0,53
51,103,0,56
51,125,0,71
51,125,0,71
51,124,0,71
51,124,0,71
50,123,0,70
50,122,0,70
49,121,0,70
49,121,0,69
52,120,0,69
52,120,0,68
52,119,0,68
51,119,0,67
51,118,0,67
51,124,0,67
50,123,0,67
50,123,0,67
50,123,0,66
50,121,0,66
50,121,0,65
49,120,0,65
49,120,0,65
50,119,0,64
50,119,0,64
50,118,0,63
49,117,0,63
49,117,0,63
49,117,0,63
48,116,0,63
48,116,0,63
48,115,0,62
48,115,0,62
48,114,0,62
47,114,0,62
47,113,0,61
47,113,0,61
48,112,0,61
47,112,0,60
47,111,0,60
46,110,0,60
46,110,0,61
46,110,0,61
46,109,0,60
46,109,0,60
45,108,0,60
45,107,0,60
45,108,0,59
45,107,0,59
52,106,0,59
54,105,0,59
54,105,0,58
53,103,0,57
53,103,0,57
53,103,0,57
52,103,0,57
52,103,0,57
52,102,0,56
51,102,0,56
51,101,0,56
51,101,0,56
51,100,0,56
51,100,0,55
51,99,0,55
51,99,0,55
51,98,0,54
51,98,0,54
51,98,0,54
51,98,0,53
50,97,0,53
50,97,0,53
50,97,0,52
50,96,0,52
49,96,0,52
49,95,0,52
49,95,0,51
51,95,0,51
51,94,0,51
51,94,0,51
50,93,0,51
50,93,0,51
50,97,0,68
49,97,0,67
49,96,0,67
49,96,0,67
49,95,0,66
48,95,0,66
48,95,0,65
48,94,0,65
48,94,0,65
54,93,0,65
53,93,0,64
53,92,0,64
52,92,0,63
53,92,0,63
52,102,0,63
51,100,0,63
51,100,0,62
51,99,0,62
51,99,0,62
50,99,0,62
51,98,0,61
50,98,0,61
50,97,0,61
50,97,0,61
50,97,0,60
50,96,0,60
49,96,0,60
49,96,0,60
49,95,0,61
49,94,0,60
48,94,0,60
48,93,0,60
48,93,0,60
48,93,0,60
48,92,0,59
48,92,0,59
55,92,0,59
56,91,0,58
56,91,0,58
56,90,0,58
56,89,0,57
56,135,0,57
56,134,0,57
55,133,0,57
54,132,0,56
55,131,0,56
54,131,0,56
54,130,0,56
53,130,0,55
55,129,0,55
56,129,0,55
56,127,0,55
56,127,0,54
56,126,0,54
55,126,0,54
55,125,0,57
55,125,0,56
55,124,0,56
54,123,0,56
54,123,0,56
53,122,0,55
53,121,0,55
53,121,0,54
54,120,0,55
53,120,0,54
53,119,0,54
53,119,0,54
52,118,0,53
52,118,0,53
51,117,0,53
51,117,0,53
51,116,0,52
51,115,0,52
51,115,0,51
50,115,0,51
50,114,0,51
50,114,0,51
50,113,0,51
49,112,0,51
49,112,0,50
49,111,0,50
48,111,0,50
48,110,0,50
48,110,0,50
48,110,0,50
48,109,0,49
48,109,0,49
48,108,0,49
47,107,0,49
52,107,0,48
52,107,0,48
51,106,0,48
51,105,0,48
51,118,0,48
51,129,0,52
51,127,0,52
51,127,0,51
50,126,0,51
50,126,0,51
49,125,0,51
49,124,0,51
49,124,0,50
59,123,0,50
59,123,0,50
58,123,0,50
58,121,0,49
57,121,0,49
57,120,0,56
57,120,0,55
57,120,0,55
57,119,0,54
56,118,0,54
56,118,0,54
56,117,0,53
56,117,0,54
56,115,0,53
56,115,0,53
56,115,0,53
56,114,0,52
56,126,0,52
55,160,0,75
55,159,0,77
55,158,0,77
54,158,0,76
54,157,0,76
54,156,0,76
53,155,0,75
53,154,0,75
54,153,0,74
54,153,0,74
53,152,0,73
53,152,0,73
53,150,0,73
52,150,0,71
53,149,0,71
51,149,0,71
52,147,0,71
51,147,0,71
51,146,0,71
51,146,0,70
51,145,0,70
51,143,0,70
51,143,0,69
51,143,0,69
50,142,0,68
50,141,0,68
50,141,0,69
50,140,0,68
50,140,0,67
49,139,0,67
49,138,0,67
49,137,0,67
49,137,0,66
48,137,0,66
52,135,0,66
51,135,0,65
51,135,0,65
51,134,0,65
51,133,0,65
50,133,0,64
51,132,0,69
50,131,0,68
50,131,0,67
50,130,0,67
49,129,0,67
49,129,0,67
48,128,0,66
55,127,0,66
55,127,0,65
54,126,0,65
54,126,0,65
54,125,0,65
53,125,0,64
53,124,0,64
53,124,0,63
53,123,0,63
52,123,0,63
52,122,0,63
51,121,0,62
51,121,0,62
53,121,0,62
54,120,0,62
53,119,0,61
53,119,0,61
52,119,0,61
53,138,0,61
52,137,0,60
51,137,0,60
51,135,0,60
51,135,0,59
51,135,0,59
51,134,0,59
50,134,0,59
50,132,0,59
50,132,0,58
50,131,0,57
50,131,0,57
49,130,0,57
49,130,0,57
49,129,0,57
49,128,0,56
48,127,0,56
48,127,0,56
48,126,0,56
48,126,0,55
48,126,0,55
50,125,0,55
51,124,0,55
51,124,0,54
51,123,0,54
51,123,0,54
51,121,0,56
50,121,0,57
50,121,0,57
50,120,0,57
50,120,0,57
50,119,0,57
49,118,0,56
49,118,0,56
55,118,0,56
56,117,0,56
55,117,0,56
55,115,0,55
54,115,0,55
54,115,0,58
54,114,0,60
53,114,0,60
53,113,0,60
53,113,0,59
53,112,0,59
52,112,0,58
51,112,0,58
51,111,0,58
51,110,0,57
51,110,0,57
51,110,0,57
51,109,0,57
50,109,0,56
50,112,0,57
50,112,0,56
50,111,0,56
50,110,0,56
49,110,0,56
49,109,0,56
49,109,0,55
49,108,0,55
51,108,0,54
51,108,0,54
50,107,0,54
50,107,0,54
50,106,0,53
49,105,0,57
49,105,0,56
49,103,0,56
48,103,0,56
48,103,0,56
48,103,0,55
48,102,0,55
50,102,0,55
56,102,0,54
56,101,0,54
56,101,0,54
55,100,0,54
55,100,0,56
54,100,0,61
55,100,0,61
54,99,0,60
54,99,0,60
53,99,0,60
53,98,0,60
53,97,0,59
53,97,0,59
53,97,0,59
53,96,0,58
53,96,0,59
52,96,0,58
53,95,0,58
52,99,0,58
51,98,0,57
51,97,0,57
51,97,0,57
51,97,0,57
51,97,0,56
50,96,0,57
50,96,0,56
50,95,0,56
56,95,0,56
56,94,0,56
56,94,0,55
56,94,0,55
55,93,0,55
54,137,0,55
54,135,0,54
54,135,0,54
54,134,0,54
53,134,0,54
53,133,0,53
53,132,0,53
53,131,0,53
57,131,0,52
57,130,0,52
57,129,0,52
57,129,0,51
57,128,0,51
57,127,0,60
57,127,0,59
56,126,0,59
56,126,0,59
56,125,0,58
56,124,0,58
55,124,0,58
55,123,0,57
56,123,0,57
56,122,0,57
56,121,0,56
55,121,0,56
55,120,0,56
55,120,0,86
55,119,0,91
54,119,0,91
54,119,0,90
53,117,0,89
53,117,0,89
53,116,0,89
53,115,0,88
55,115,0,88
71,115,1,88
70,114,1,87
69,114,1,86
69,113,1,86
69,113,0,86
68,112,1,85
68,112,1,84
67,111,1,84
67,111,0,83
67,110,0,83
66,110,1,83
66,109,0,83
66,109,1,82
76,108,0,82
76,108,0,81
76,107,0,81
75,107,0,81
75,135,0,80
75,134,0,79
74,133,0,79
73,132,0,79
73,131,1,79
73,131,0,97
73,130,0,134
71,129,1,133
127,129,0,132
128,127,0,131
127,127,0,131
127,127,0,130
126,126,0,129
125,125,2,148
124,129,2,273
124,129,2,354
123,127,2,350
122,127,2,347
122,127,14,344
121,126,14,342
120,125,14,339
120,124,14,337
119,124,14,335
118,123,14,333
118,122,14,439
117,121,13,481
116,121,35,603
116,121,75,711
115,120,73,703
114,119,73,695
114,118,71,689
113,118,71,681
113,117,71,674
112,117,71,669
112,115,70,663
111,115,70,658
110,240,70,707
110,372,69,700
109,463,69,695
109,455,69,687
108,453,68,681
111,449,67,675
227,446,67,668
286,443,66,664
283,439,67,657
281,436,66,652
280,432,66,646
277,430,65,641
275,427,65,635
273,423,64,629
271,421,64,625
270,418,63,620
268,415,63,615
267,413,63,611
265,409,63,605
263,408,62,601
263,405,62,596
261,403,62,592
259,399,95,588
258,397,133,583
256,397,131,579
255,394,130,574
253,391,130,569
252,389,128,565
368,387,127,586
411,384,127,793
407,381,176,899
403,379,175,889
399,377,174,877
397,374,172,867
395,371,171,857
391,369,170,847
389,367,169,836
386,365,167,829
384,363,167,819
381,359,166,810
379,408,165,801
376,575,165,795
374,699,163,786
371,689,162,777
368,681,161,768
366,676,160,762
364,669,159,754
362,662,159,747
359,655,158,739
357,650,157,734
355,644,156,726
353,638,155,719
351,632,154,711
348,627,153,707
347,621,152,700
344,615,152,693
343,610,151,687
340,606,150,682
338,600,149,851
335,595,148,905
334,590,147,911
408,585,147,913
403,593,146,911
401,588,145,893
398,583,144,880
395,579,143,869
391,574,143,861
390,569,142,851
387,563,141,841
384,560,141,830
381,556,140,824
379,551,139,814
377,547,139,805
375,542,137,796
371,539,137,790
369,534,135,782
368,530,135,773
364,526,134,765
362,523,134,760
359,519,133,751
358,515,133,743
356,511,132,736
353,508,131,730
352,504,130,723
350,499,130,716
348,496,129,709
345,493,128,702
344,489,127,697
340,486,127,691
339,482,127,684
337,480,126,678
335,476,125,673
333,472,124,667
331,470,124,824
329,467,123,846
327,463,122,838
325,460,122,827
323,457,121,817
321,479,121,807
319,619,120,801
317,612,119,792
316,606,119,783
314,600,119,775
312,596,117,768
310,590,117,760
309,585,116,752
307,772,115,743
305,833,115,738
304,822,114,730
301,811,114,723
300,801,113,715
298,794,113,710
297,785,112,703
295,775,112,696
293,767,111,689
291,761,111,683
291,752,110,678
287,743,109,671
287,736,109,665
285,731,123,831
284,723,123,824
283,715,121,814
281,707,121,804
280,703,120,795
278,696,120,787
275,688,119,779
274,681,118,770
273,675,118,761
271,670,117,755
270,664,115,747
269,657,115,739
267,652,115,732
265,647,114,726
263,639,113,718
263,635,113,711
262,629,112,704
260,624,111,699
259,619,111,692
257,613,110,685
255,608,110,807
254,604,109,836
253,599,108,825
252,593,108,816
251,588,108,806
249,585,107,796
248,579,107,790
246,575,105,781
246,570,105,772
243,567,105,764
243,562,103,758
241,557,103,749
240,553,103,742
239,550,103,734
238,545,102,728
236,541,102,721
235,536,102,713
234,532,101,790
231,529,101,859
231,525,100,847
231,521,99,837
229,518,99,829
228,514,99,819
227,509,98,813
226,506,97,803
225,504,97,794
224,500,96,787
223,496,96,779
222,493,96,772
221,489,95,764
220,486,95,755
218,483,94,749
217,480,93,742
216,477,93,736
216,473,93,728
215,471,92,721
214,468,92,716
212,465,91,709
211,462,91,703
210,459,91,696
209,455,90,691
207,454,90,684
207,451,89,679
206,448,89,673
205,445,88,668
204,443,88,662
204,440,88,657
203,437,87,651
201,434,87,646
199,432,86,639
199,429,86,636
199,427,85,631
198,423,85,625
197,421,84,621
195,419,84,615
195,415,83,611
194,414,83,607
193,411,83,603
192,409,83,598
192,407,82,593
191,404,82,590
189,402,81,585
189,399,81,581
188,397,80,577
187,395,80,572
186,393,79,569
185,390,79,564
184,388,79,561
184,386,79,556
183,384,78,551
182,382,78,549
181,380,78,545
179,377,77,542
179,376,77,537
178,373,76,535
177,371,76,531
177,369,76,527
176,367,75,524
175,365,75,519
174,363,75,517
174,361,74,513
173,359,74,509
172,357,73,507
171,355,73,503
170,353,73,500
169,352,72,497
169,349,71,493
167,348,71,491
167,346,71,487
166,344,71,484
166,342,70,481
165,340,70,479
164,339,70,476
163,336,69,472
163,335,69,470
162,355,68,467
161,432,68,464
160,428,68,461
159,423,67,458
159,422,120,455
158,418,119,453
158,415,117,450
157,412,117,447
156,409,115,445
156,406,115,441
155,403,114,439
154,400,114,436
153,398,172,434
152,395,170,432
161,391,185,429
287,390,187,425
339,387,185,423
335,384,184,421
333,382,183,419
331,379,182,415
328,377,181,414
327,375,179,411
324,371,190,409
323,369,230,406
319,367,273,404
374,365,271,402
509,362,269,399
674,432,267,397
664,428,265,395
658,425,263,393
651,422,262,391
645,419,260,388
639,415,259,385
633,412,257,384
627,409,255,382
623,407,254,379
617,403,252,377
611,401,251,376
607,398,249,374
701,395,248,371
693,391,247,369
686,390,245,367
679,387,243,365
704,384,243,363
701,382,241,361
695,380,266,359
688,377,287,358
681,409,286,355
675,472,284,353
669,467,281,352
663,463,280,350
656,460,278,348
651,455,276,346
645,454,275,344
639,450,313,343
634,446,335,341
629,443,333,339
623,440,331,337
619,437,327,335
613,433,326,333
608,431,324,332
735,428,322,330
727,423,319,327
719,422,318,327
712,419,339,325
705,415,419,323
756,413,415,322
896,409,412,319
909,408,409,318
914,403,407,316
917,402,403,316
919,399,400,313
918,396,398,312
909,393,396,311
889,391,406,309
878,388,402,307
867,385,399,305
858,384,397,304
849,381,409,303
840,379,555,301
830,376,547,300
822,373,543,298
813,371,539,297
805,369,534,295
797,366,529,294
789,364,566,435
781,362,639,531
829,359,632,668
904,358,625,862
911,355,621,905
911,353,615,911
896,351,609,915
883,349,604,917
873,347,600,919
863,344,595,917
854,343,590,909
844,340,585,888
835,338,581,876
825,335,575,865
817,335,572,857
808,332,567,847
799,331,563,837
792,329,559,828
784,327,555,820
776,325,550,811
768,323,547,802
761,321,542,793
753,319,539,787
747,318,534,778
739,316,530,770
733,315,527,762
726,313,524,754
719,312,519,749
713,310,515,740
707,307,512,733
700,306,508,726
694,305,504,720
688,303,501,713
683,301,498,707
676,300,495,700
670,299,491,695
665,297,487,688
659,295,485,682
654,294,482,675
649,292,478,671
643,291,475,665
638,289,473,659
633,287,469,653
627,286,467,648
623,285,463,643
617,283,461,637
613,281,457,632
608,280,455,627
604,279,451,622
600,277,449,617
595,275,446,611
590,275,443,607
585,273,440,603
581,271,438,598
577,270,435,593
573,269,432,588
568,268,430,584
564,266,427,579
560,265,425,575
556,263,423,571
552,263,419,568
548,261,417,563
544,259,415,558
540,259,412,554
536,257,410,551
533,255,408,547
529,254,405,542
526,253,403,539
523,252,399,536
519,251,398,531
515,249,396,527
511,248,393,524
508,247,391,521
504,246,389,517
501,244,387,513
498,243,384,509
495,242,382,507
491,241,380,503
487,240,377,499
485,238,376,496
482,237,374,492
479,236,371,489
476,235,369,486
473,233,368,483
470,233,365,480
467,231,363,477
463,230,361,473
461,229,359,471
457,228,357,467
455,227,355,465
452,226,353,462
449,225,352,459
447,224,350,455
444,223,348,453
441,222,345,450
439,220,344,448
435,220,342,444
433,218,340,442
431,217,338,440
428,216,336,436
425,216,335,433
423,214,333,432
420,213,331,429
417,212,330,425
415,211,327,423
413,210,326,421
411,209,324,419
408,207,322,415
406,207,321,414
403,206,319,411
401,205,318,409
399,204,316,406
397,203,315,403
394,203,313,401
391,201,312,399
390,199,309,397
387,199,307,395
385,199,306,391
383,198,304,391
380,197,303,387
379,195,301,385
376,195,300,384
374,194,298,382
372,193,297,380
371,192,295,377
368,191,294,375
366,190,293,373
364,189,291,371
362,188,290,369
359,188,287,367
359,187,287,365
356,186,285,363
354,185,284,359
352,184,283,359
350,184,281,357
349,183,280,355
347,182,278,353
345,181,277,351
344,179,275,349
341,179,274,348
339,178,272,345
337,177,271,344
335,176,269,342
334,176,268,340
332,175,267,338
330,174,266,336
329,174,263,335
327,172,263,333
325,172,262,331
323,171,260,329
322,169,259,327
319,169,258,326
319,167,257,324
317,167,255,323
315,167,254,321
313,166,253,319
312,165,252,318
310,165,250,316
308,163,249,315
307,163,248,313
305,162,247,312
304,162,246,310
303,161,244,307
301,160,243,307
299,159,242,305
298,159,241,304
295,158,240,302
295,157,239,300
294,156,238,299
291,156,236,297
291,155,236,295
289,155,234,295
287,154,233,293
286,153,231,291
285,152,231,290
283,152,230,288
281,151,228,287
280,150,227,286
279,150,227,285
277,149,226,283
276,148,224,281
274,147,224,280
273,147,222,279
271,146,221,277
270,146,220,276
269,145,219,275
268,144,219,273
266,143,217,271
265,143,216,271
263,143,216,270
262,142,214,268
261,141,213,267
260,140,212,266
259,140,211,263
257,139,210,263
255,138,209,262
255,138,207,261
254,137,207,259
252,137,206,258
251,135,205,257
250,135,204,255
249,135,203,254
248,134,203,253
246,134,201,252
245,133,201,251
243,132,199,249
243,131,199,249
241,131,198,248
240,131,197,246
239,130,196,245
238,129,195,243
237,129,194,242
236,128,193,241
235,127,192,240
233,127,192,239
231,127,191,238
231,126,190,237
230,126,189,236
229,125,188,235
227,124,187,233
227,124,186,231
226,123,185,231
224,123,184,231
224,122,184,229
223,121,184,227
222,121,182,227
220,120,181,226
219,120,180,225
218,120,179,224
217,119,179,223
216,118,178,222
216,118,177,221
215,117,177,220
213,116,176,219
212,116,175,218
211,115,174,217
210,115,174,216
209,114,173,216
207,114,172,214
207,113,171,213
207,113,170,212
205,112,169,211
204,112,169,211
204,112,167,209
202,111,167,209
201,111,167,207
199,110,166,207
199,110,165,206
199,109,164,205
198,108,163,204
196,108,162,203
195,108,162,202
195,107,161,201
194,106,161,199
193,106,159,199
192,105,159,199
192,105,158,198
191,105,158,197
190,103,157,195
188,103,156,195
188,103,156,194
187,103,155,193
186,102,154,192
185,102,153,192
184,102,152,190
184,100,152,190
183,100,152,189
182,100,150,188
181,99,150,187
180,99,149,187
179,99,148,185
178,98,148,185
178,98,147,184
177,97,147,184
176,97,146,183
175,96,145,182
175,96,145,181
174,96,144,180
173,95,143,179
173,95,143,179
172,95,142,178
171,94,142,177
171,94,141,177
169,93,141,176
169,93,140,175
167,93,139,174
167,92,139,173
167,92,138,173
166,91,137,172
165,91,137,172
164,91,137,171
163,90,135,169
163,89,135,169
165,89,135,167
267,89,134,167
286,99,134,167
284,112,133,167
281,111,132,166
280,110,131,165
278,109,131,164
275,109,131,163
274,108,130,163
272,108,130,162
270,107,129,161
269,106,128,161
268,105,127,159
265,105,127,159
263,103,126,159
263,103,126,158
260,103,125,158
259,103,125,156
257,102,124,156
255,101,124,155
254,101,123,155
253,100,123,154
252,99,122,153
250,99,121,152
248,98,121,152
248,98,121,152
246,97,120,151
245,96,120,151
243,96,119,150
242,96,119,149
241,96,118,148
239,95,118,147
238,94,117,147
237,94,117,147
236,93,115,146
235,93,115,145
233,92,115,145
231,92,115,144
231,92,114,143
229,91,114,143
228,90,113,142
227,89,112,142
226,89,112,141
224,89,112,141
223,89,111,140
222,89,110,139
221,88,110,139
220,88,110,138
219,87,109,138
217,87,109,137
216,87,108,135
216,86,108,135
215,85,107,135
213,85,107,135
212,85,106,134
211,85,106,134
210,83,105,133
209,83,105,133
207,83,103,132
207,83,103,131
206,83,103,131
204,82,103,131
204,82,103,130
203,81,103,129
201,81,102,129
199,81,102,129
199,80,101,127
198,80,100,127
197,79,100,127
196,79,99,126
195,79,99,125
195,79,99,125
194,78,99,125
193,78,98,124
192,78,98,124
191,77,97,123
190,77,97,123
189,77,97,123
188,77,96,122
188,76,96,121
187,76,96,121
185,75,95,120
185,75,95,120
184,75,94,120
183,74,94,119
182,74,94,119
181,73,93,118
180,73,93,118
179,73,92,117
179,73,92,117
178,71,92,116
177,71,91,115
176,71,91,115
176,71,91,115
175,71,90,115
174,71,89,114
173,71,89,114
172,71,89,113
172,70,89,113
171,70,89,112
169,70,88,112
169,69,88,111
169,69,87,111
167,70,87,110
167,91,87,110
166,90,86,110
166,90,86,109
164,89,86,109
164,89,85,109
163,88,85,108
163,88,85,108
162,87,84,107
161,87,83,107
160,86,83,106
159,86,83,177
159,114,82,307
159,113,82,353
158,112,82,349
157,111,81,349
156,111,81,347
156,110,81,344
155,109,80,342
154,109,80,339
153,108,79,337
153,108,79,335
152,107,79,333
152,106,79,332
151,106,78,329
151,105,78,327
150,103,78,325
149,103,77,323
148,103,77,321
147,103,77,319
147,102,76,318
147,102,76,316
146,101,76,314
145,101,75,312
144,99,75,311
143,99,75,309
143,99,75,307
143,98,74,305
142,98,74,304
142,97,74,302
141,97,73,301
141,96,73,299
140,96,73,297
140,95,71,295
139,94,71,294
139,94,71,293
138,94,71,291
137,94,71,289
137,93,71,289
135,93,71,287
135,92,71,285
135,92,70,284
135,91,70,283
134,91,69,281
133,90,69,280
132,90,68,279
132,89,68,277
131,89,68,275
131,88,67,274
131,88,67,272
130,88,67,271
129,88,67,269
129,87,67,268
128,86,66,267
128,86,66,266
127,85,66,265
127,85,66,263
126,84,65,262
126,84,65,260
125,83,64,259
125,83,64,258
124,83,64,257
124,83,64,255
124,82,63,254
123,81,63,253
122,81,63,251
122,81,63,251
121,80,62,249
121,79,63,248
120,79,62,247
120,79,62,246
120,79,62,244
119,79,61,243
119,78,61,242
118,78,61,241
