113,112,0,46
113,111,0,47
112,110,0,46
112,110,0,46
111,109,0,46
110,109,0,46
110,108,0,46
109,108,0,45
115,107,0,45
115,107,0,45
114,106,0,44
114,105,0,44
113,113,0,44
113,121,0,44
112,121,0,44
112,120,0,43
111,120,0,43
110,119,0,43
110,118,0,43
109,118,0,43
115,117,0,42
115,117,0,42
115,115,0,42
115,115,0,42
114,114,0,41
113,115,0,41
112,114,0,41
112,113,0,41
111,113,0,39
111,112,0,39
110,112,0,39
110,111,0,39
110,111,0,39
116,110,0,39
115,109,0,39
114,109,0,39
114,108,0,39
113,108,0,39
113,107,0,38
112,107,0,38
112,107,0,38
111,106,0,38
110,105,0,38
110,105,0,37
109,103,0,37
121,103,0,37
120,103,0,37
119,103,0,37
118,102,0,36
118,102,0,36
117,102,0,38
116,102,0,37
115,101,0,37
115,101,0,37
115,100,0,37
114,99,0,36
113,99,0,36
114,99,0,36
115,99,0,36
115,98,0,35
114,97,0,35
114,97,0,35
113,97,0,45
113,97,0,47
112,96,0,46
112,96,0,46
111,95,0,45
110,95,0,46
110,94,0,45
109,94,0,45
110,93,0,45
113,93,0,44
112,93,0,44
112,92,0,44
111,92,0,44
111,102,0,44
110,102,0,44
109,102,0,44
109,101,0,43
108,101,0,43
108,99,0,43
107,99,0,43
107,99,0,42
110,98,0,42
112,98,0,42
111,97,0,42
111,97,0,41
110,96,0,41
109,99,0,44
109,98,0,45
108,97,0,44
108,97,0,44
107,97,0,44
107,96,0,44
106,96,0,44
105,96,0,44
112,95,0,43
113,94,0,43
112,94,0,43
112,94,0,42
112,93,0,42
111,95,0,53
110,95,0,55
110,94,0,55
109,94,0,55
109,93,0,54
108,92,0,54
108,92,0,54
107,92,0,53
112,91,0,53
113,91,0,53
112,90,0,52
112,90,0,52
111,89,0,52
111,92,0,51
110,92,0,51
109,92,0,51
109,91,0,51
108,91,0,51
108,90,0,50
107,90,0,50
107,89,0,50
108,89,0,49
109,88,0,49
108,88,0,49
108,88,0,49
107,87,0,49
107,103,0,48
106,103,0,48
105,102,0,48
105,102,0,48
103,101,0,48
103,101,0,48
103,100,0,47
103,99,0,47
107,99,0,47
107,99,0,46
105,98,0,46
105,97,0,46
104,97,0,46
103,97,0,46
103,97,0,45
103,96,0,46
103,96,0,45
102,96,0,45
102,95,0,45
101,95,0,45
101,94,0,44
108,94,0,44
108,93,0,44
107,93,0,44
107,92,0,43
106,92,0,43
105,96,0,43
105,95,0,43
105,95,0,43
103,94,0,43
103,93,0,42
103,93,0,42
103,93,0,41
102,92,0,42
103,92,0,41
103,91,0,41
103,91,0,41
103,90,0,41
103,90,0,41
103,90,0,39
102,89,0,42
101,89,0,41
101,88,0,41
100,88,0,41
100,88,0,41
99,88,0,41
99,87,0,39
109,87,0,40
112,86,0,39
111,86,0,39
110,85,0,39
110,84,0,39
109,88,0,39
109,88,0,41
108,88,0,41
108,87,0,41
107,87,0,39
107,86,0,39
106,86,0,39
105,85,0,39
105,85,0,39
111,84,0,39
110,84,0,39
109,83,0,39
109,83,0,39
108,88,0,39
108,88,0,38
107,87,0,38
107,87,0,38
106,86,0,37
105,86,0,37
105,85,0,37
105,85,0,37
105,84,0,37
111,84,0,36
110,83,0,37
110,83,0,37
109,83,0,36
108,83,0,35
108,82,0,37
108,82,0,36
107,82,0,36
106,81,0,36
106,81,0,35
105,81,0,36
105,81,0,35
105,80,0,35
115,79,0,35
114,79,0,35
113,79,0,35
113,79,0,35
112,86,0,35
112,85,0,42
111,85,0,41
111,84,0,41
110,83,0,41
110,83,0,41
109,83,0,41
109,83,0,41
108,82,0,39
110,82,0,39
110,82,0,39
109,81,0,39
109,81,0,39
109,91,0,39
108,91,0,39
107,90,0,39
107,90,0,39
106,89,0,39
106,89,0,39
105,89,0,38
105,88,0,38
103,88,0,38
110,87,0,38
109,87,0,38
109,87,0,37
108,86,0,37
108,112,0,38
107,117,0,38
106,115,0,37
106,115,0,37
105,114,0,37
105,114,0,37
103,113,0,36
103,113,0,36
109,112,0,36
113,111,0,36
113,111,0,35
112,110,0,35
111,110,0,35
111,111,0,36
111,111,0,36
110,110,0,35
109,109,0,35
109,108,0,35
108,108,0,35
107,108,0,35
108,107,0,35
113,107,0,35
112,106,0,34
112,106,0,34
111,105,0,34
110,105,0,34
110,103,0,34
110,103,0,34
109,103,0,34
108,103,0,33
108,102,0,33
107,102,0,33
106,101,0,33
110,101,0,33
109,100,0,32
109,99,0,32
108,99,0,32
108,99,0,32
107,129,0,34
107,127,0,34
106,127,0,34
106,126,0,34
105,126,0,33
103,125,0,33
103,124,0,33
103,124,0,33
114,123,0,33
114,122,0,32
113,121,0,32
112,121,0,32
112,120,0,35
111,120,0,41
111,120,0,41
110,119,0,41
109,118,0,40
109,118,0,39
108,117,0,39
108,116,0,39
115,115,0,39
114,115,0,39
113,115,0,39
113,114,0,39
112,113,0,39
112,113,0,39
111,112,0,38
111,112,0,38
110,111,0,38
109,111,0,38
109,110,0,37
108,109,0,37
112,109,0,37
112,109,0,37
111,108,0,37
111,107,0,37
110,107,0,36
110,106,0,38
109,105,0,38
108,105,0,38
108,105,0,38
108,104,0,37
107,103,0,37
106,103,0,37
105,103,0,37
110,103,0,37
110,102,0,36
109,101,0,36
109,101,0,35
108,101,0,44
108,100,0,49
107,99,0,48
107,99,0,48
106,99,0,48
105,98,0,47
105,98,0,47
103,98,0,47
107,97,0,46
111,97,0,46
110,96,0,46
110,96,0,46
109,96,0,46
108,103,0,49
108,103,0,50
108,102,0,50
107,101,0,50
106,101,0,50
105,100,0,49
105,99,0,49
103,99,0,48
115,99,0,48
115,99,0,48
115,97,0,48
114,97,0,48
113,97,0,47
113,97,0,48
112,96,0,52
112,96,0,52
111,95,0,51
111,94,0,51
110,94,0,51
109,94,0,50
109,93,0,50
118,93,0,50
117,93,0,50
117,92,0,50
116,92,0,49
115,91,0,49
115,107,0,49
114,106,0,49
114,105,0,48
113,105,0,48
113,103,0,48
112,103,0,48
112,103,0,47
111,103,0,47
120,102,0,47
120,101,0,46
120,101,0,46
118,101,0,46
118,100,0,46
117,100,0,48
117,99,0,48
116,99,0,47
115,98,0,47
115,98,0,47
114,97,0,47
113,97,0,46
114,97,0,46
115,96,0,46
115,96,0,46
114,95,0,45
113,95,0,45
113,94,0,45
113,94,0,45
112,93,0,45
111,93,0,44
111,92,0,44
110,92,0,44
110,92,0,44
109,91,0,44
109,91,0,44
113,90,0,43
113,89,0,43
112,89,0,43
112,89,0,43
111,91,0,43
111,91,0,42
110,90,0,42
110,89,0,41
109,89,0,41
108,89,0,41
108,88,0,41
107,88,0,41
107,88,0,41
115,88,0,39
114,87,0,39
113,86,0,39
113,86,0,39
112,107,0,39
112,118,0,40
111,117,0,41
111,116,0,39
110,115,0,39
110,115,0,39
109,115,0,39
108,114,0,39
115,113,0,39
115,113,0,39
114,112,0,39
114,112,0,39
113,111,0,38
112,120,0,39
112,120,0,39
111,118,0,38
111,118,0,38
110,117,0,38
109,117,0,38
109,115,0,37
108,115,0,37
111,115,0,37
110,114,0,37
110,113,0,37
109,113,0,36
108,125,0,43
108,124,0,43
107,123,0,43
107,123,0,43
106,122,0,42
105,121,0,42
105,120,0,42
105,120,0,41
110,119,0,41
109,119,0,41
108,118,0,41
108,117,0,41
108,117,0,39
107,117,0,41
106,115,0,39
106,115,0,39
105,115,0,39
105,115,0,39
103,114,0,39
103,113,0,39
117,112,0,39
121,112,0,39
121,112,0,39
120,111,0,38
119,110,0,38
119,111,0,42
118,110,0,43
118,110,0,42
117,109,0,42
116,109,0,42
115,108,0,42
115,108,0,41
115,107,0,41
115,107,0,41
115,105,0,41
115,105,0,41
114,105,0,39
113,105,0,42
113,103,0,48
112,103,0,48
112,103,0,48
111,103,0,48
111,103,0,47
110,102,0,47
109,101,0,47
113,101,0,46
113,100,0,46
113,99,0,46
112,99,0,46
112,99,0,46
111,135,0,45
110,135,0,45
110,134,0,45
110,132,0,45
109,132,0,45
108,131,0,44
108,131,0,44
108,130,0,44
113,129,0,44
113,128,0,44
112,127,0,43
111,127,0,43
111,126,0,43
110,126,0,45
110,125,0,44
109,124,0,44
108,124,0,44
108,124,0,44
107,123,1,43
107,122,0,43
115,121,1,43
114,121,0,43
114,120,0,42
113,120,0,43
112,119,0,42
112,118,0,42
111,118,0,42
111,117,0,41
110,117,0,41
109,116,1,41
109,115,0,41
108,115,0,41
110,114,0,39
110,114,0,39
109,113,0,39
108,112,0,39
108,112,0,39
107,156,0,43
107,155,0,43
106,153,0,42
105,153,0,42
105,152,0,42
103,151,0,42
103,150,0,42
103,149,0,41
109,148,0,41
108,148,0,41
108,147,0,41
107,146,0,40
107,145,0,46
106,145,0,51
105,143,0,51
105,143,0,51
103,142,0,51
103,142,0,50
103,141,0,50
103,140,0,49
107,140,0,49
110,139,0,49
110,138,0,49
109,137,0,49
108,137,1,48
108,135,0,48
107,135,0,48
107,135,0,48
106,134,0,47
105,133,0,47
105,133,0,47
105,132,1,47
107,131,0,46
115,131,0,46
115,130,0,46
114,129,0,46
113,129,0,45
113,128,0,46
112,127,0,46
111,127,0,46
111,126,0,45
110,126,0,45
110,125,0,45
109,124,0,44
109,124,0,44
115,124,0,44
115,123,0,44
114,123,0,44
113,122,0,43
113,130,0,43
112,135,0,46
111,135,0,46
111,135,0,45
110,134,0,45
110,133,0,45
109,132,0,44
109,131,0,44
111,131,0,44
111,131,0,44
111,130,0,44
110,129,0,43
109,128,0,43
109,152,0,43
108,151,0,43
108,150,0,43
107,149,0,42
107,148,0,42
106,147,0,42
105,147,0,41
105,146,0,41
113,145,0,41
112,145,0,41
112,143,0,41
111,143,0,39
110,143,0,40
110,142,0,39
109,141,0,39
108,140,0,39
108,140,0,39
107,139,0,39
107,138,0,39
106,137,0,39
107,137,0,39
106,135,0,38
106,135,0,38
105,135,0,38
103,134,0,38
103,134,0,39
103,133,0,39
103,132,0,38
102,131,0,38
102,131,0,38
102,130,0,38
101,130,0,38
110,129,0,37
112,128,0,37
112,127,0,37
111,127,0,37
110,126,0,36
110,126,0,38
109,125,0,39
109,125,0,39
108,124,0,39
107,123,0,39
107,123,0,39
106,122,0,39
106,121,0,39
119,121,0,39
118,120,0,39
117,120,0,38
116,120,0,38
116,137,0,38
115,146,0,38
115,145,0,38
114,144,0,38
113,143,0,37
113,143,0,37
112,142,0,37
112,142,0,37
115,141,0,36
115,140,0,36
115,139,0,36
114,139,0,36
114,138,0,35
113,137,0,38
113,137,0,38
112,135,0,38
111,135,0,38
111,135,0,38
110,134,0,37
110,133,0,37
111,133,0,37
117,131,0,37
117,131,0,36
116,131,0,36
115,130,0,36
115,129,0,35
114,129,0,35
114,127,0,35
113,127,0,35
112,127,0,35
112,126,0,35
112,125,0,34
111,125,0,35
120,124,0,34
118,124,0,34
118,123,0,34
117,123,0,33
117,121,0,33
116,121,0,39
115,121,0,39
115,120,0,39
114,120,0,39
114,119,0,38
113,118,0,38
112,118,0,38
115,118,0,38
115,116,0,38
115,116,0,37
114,115,0,37
114,115,0,37
113,115,0,37
112,115,0,38
112,114,0,38
111,114,0,38
111,113,0,38
110,112,0,38
110,112,0,37
111,111,0,37
115,111,0,37
114,111,0,37
114,110,0,37
113,109,0,36
112,115,0,38
112,114,0,53
112,114,0,52
111,113,0,52
110,113,0,51
110,112,0,51
109,112,0,51
109,111,0,51
114,110,0,50
114,110,0,50
113,109,0,50
112,109,0,49
112,116,0,50
111,117,0,49
111,115,0,49
110,115,0,49
110,115,0,48
109,114,0,48
109,113,0,48
108,113,0,48
109,112,0,48
109,112,0,47
109,111,0,47
108,111,0,47
108,110,0,47
108,127,0,46
107,126,0,46
106,125,0,46
105,124,0,46
105,124,0,45
105,123,0,45
103,123,0,45
103,122,0,45
111,121,0,44
110,121,0,44
109,120,0,44
109,120,0,44
108,119,0,44
108,118,0,47
107,118,0,46
106,117,0,46
105,117,0,46
105,116,0,45
105,115,0,45
103,115,0,45
114,114,0,45
113,113,0,44
112,113,0,44
112,113,0,44
112,112,0,44
111,112,0,46
110,111,0,45
110,110,0,45
109,110,0,45
108,109,0,45
108,109,0,44
108,109,0,44
112,108,0,44
113,108,0,44
112,107,0,44
111,107,0,43
110,105,0,43
110,126,0,43
110,125,0,43
109,124,0,43
108,124,0,43
108,123,0,42
107,123,0,42
107,121,0,41
106,121,0,41
112,120,0,41
112,120,0,41
111,120,0,41
110,119,0,41
109,118,0,39
109,118,0,41
108,117,0,41
108,116,0,41
107,115,0,41
107,115,0,39
106,115,0,39
105,114,0,39
118,113,0,39
117,113,0,39
116,112,0,39
115,112,0,39
115,111,0,39
115,110,0,49
114,110,0,49
113,110,0,48
113,109,0,48
112,109,0,48
112,108,0,48
111,108,0,47
111,107,0,47
115,107,0,46
115,106,0,46
115,105,0,46
114,105,0,46
113,125,0,46
112,124,0,46
112,123,0,46
112,123,0,46
111,122,0,46
110,121,0,45
110,120,0,45
109,120,0,45
110,120,0,45
110,119,0,44
109,118,0,44
108,118,0,44
108,117,0,44
107,117,0,44
107,115,0,44
106,115,0,43
105,115,0,43
105,114,0,42
105,114,0,43
103,113,0,42
104,112,0,42
105,112,0,41
105,111,0,41
103,111,0,41
103,110,0,41
103,110,0,43
103,109,0,43
102,109,0,42
102,108,0,43
101,108,0,43
101,107,0,42
100,106,0,42
100,106,0,41
111,105,0,41
110,105,0,41
109,103,0,41
109,103,0,40
108,103,0,41
108,103,0,41
107,103,0,41
107,102,0,41
106,102,0,40
105,101,0,39
105,100,0,39
103,100,0,39
113,99,0,39
112,99,0,39
112,99,0,39
111,98,0,39
110,98,0,39
110,97,0,42
109,97,0,46
109,97,0,45
108,96,0,45
108,96,0,45
107,96,0,44
107,95,0,44
106,95,0,44
107,94,0,44
107,94,0,44
106,93,0,44
105,93,0,44
105,92,0,43
103,120,0,50
103,119,0,51
103,118,0,50
103,118,0,50
102,117,0,50
102,116,0,50
101,115,0,49
101,115,0,49
114,114,0,49
113,113,0,49
112,113,0,48
112,113,0,48
111,153,0,48
110,187,0,48
110,185,0,47
109,184,0,47
109,183,0,47
108,182,0,47
108,180,0,46
107,179,0,46
107,179,0,46
107,177,0,46
106,176,0,45
105,176,0,45
105,175,0,45
103,174,0,45
103,173,0,44
103,172,0,44
103,171,0,44
103,170,0,44
102,169,0,44
102,169,0,43
101,167,0,43
100,167,0,43
100,166,0,43
99,166,0,42
99,165,0,42
99,164,0,102
98,163,0,140
97,162,0,139
97,162,0,137
96,161,0,135
96,159,0,135
96,159,36,135
95,158,36,134
94,158,35,134
94,242,35,132
94,340,35,132
93,420,35,131
93,442,35,130
92,438,34,130
92,433,34,129
92,431,34,127
91,427,34,127
91,423,33,127
90,421,33,140
89,419,33,265
91,415,33,353
90,413,33,348
89,411,32,345
89,408,32,342
89,405,31,340
88,403,31,338
88,399,31,335
88,398,31,334
88,426,31,407
86,549,31,403
86,600,31,400
185,595,31,397
230,588,30,393
227,583,30,391
227,579,30,388
225,574,30,389
224,569,30,427
222,563,29,441
221,560,29,559
219,555,30,620
218,551,30,614
217,547,30,608
216,542,30,601
214,538,29,597
213,534,29,591
211,531,29,588
211,609,98,583
209,807,141,577
208,829,140,573
207,818,138,568
206,809,137,564
205,798,149,560
295,792,147,556
295,782,147,551
292,774,199,547
290,764,207,542
288,758,205,539
287,749,204,535
285,742,203,636
283,733,201,663
281,728,199,655
280,719,198,650
278,711,197,643
276,705,196,638
379,700,195,632
380,693,193,627
376,686,193,621
374,679,192,615
371,675,190,610
368,668,189,606
366,662,188,600
363,655,187,595
361,649,186,590
358,644,185,587
356,639,184,602
408,633,183,683
497,627,182,675
492,623,181,670
487,617,179,664
484,611,179,657
480,607,178,651
478,603,177,647
474,598,176,639
470,593,175,634
467,587,174,628
463,583,173,624
460,579,172,619
457,574,172,613
454,569,171,608
451,566,170,743
448,561,167,877
445,556,167,884
441,551,167,871
438,548,166,861
435,543,165,853
432,540,164,842
430,536,163,831
427,532,163,822
423,527,162,815
421,524,161,887
419,519,159,907
415,516,159,913
413,513,158,915
410,509,157,918
408,542,157,920
405,537,156,919
402,534,155,915
399,529,154,894
397,524,153,880
395,519,153,870
391,516,152,861
390,512,151,851
387,508,150,841
385,504,149,831
382,501,149,823
380,497,147,815
377,493,147,806
376,489,146,797
373,487,146,789
371,483,145,783
369,480,143,774
367,476,143,766
364,474,142,758
362,501,142,752
359,600,141,827
358,603,140,817
355,598,140,807
354,591,139,799
352,587,138,791
350,581,137,782
348,575,137,847
345,572,135,902
344,567,135,910
342,561,135,914
339,556,134,917
337,553,134,918
335,547,132,916
334,543,132,902
332,539,131,883
329,536,131,875
327,531,130,864
327,527,129,854
325,522,129,844
323,519,127,835
321,515,127,827
319,510,127,818
318,506,126,809
316,503,125,799
314,499,125,793
312,495,124,784
311,491,123,775
308,487,123,768
307,484,122,761
305,481,122,753
304,477,121,745
302,473,120,738
300,471,120,733
299,467,119,726
297,463,119,718
295,461,118,711
294,459,118,707
292,455,120,856
291,451,131,844
289,449,131,833
287,447,135,825
286,462,172,816
285,457,174,807
283,454,173,798
281,451,172,791
280,448,171,782
279,444,170,773
277,441,169,764
275,439,167,756
274,435,167,750
273,432,166,742
271,430,165,735
270,428,164,727
268,423,163,721
267,422,162,714
265,419,161,707
263,417,161,700
263,414,159,696
262,411,159,689
260,408,158,682
259,406,157,675
257,403,156,671
255,401,155,665
255,399,155,659
253,396,153,654
252,395,153,649
251,391,152,643
249,389,152,637
248,387,150,632
248,385,149,627
246,383,148,623
244,380,148,617
243,377,147,612
242,376,146,608
241,374,145,603
240,371,144,599
238,369,143,593
237,367,143,588
236,365,142,584
235,363,141,580
233,359,141,575
231,359,140,571
231,357,139,568
230,355,138,563
228,352,137,559
227,351,137,554
226,349,135,551
225,347,135,547
225,345,135,543
223,343,134,539
222,341,133,536
221,339,133,531
220,337,131,527
219,335,131,524
217,333,131,521
217,332,130,517
216,329,129,514
215,327,128,510
214,327,127,507
213,324,127,504
211,323,126,499
211,321,126,496
209,319,125,494
207,318,124,490
207,316,124,487
207,313,123,483
206,312,123,480
204,312,121,477
203,309,121,475
203,307,120,472
201,306,120,467
199,304,119,465
199,302,119,462
199,300,118,459
198,300,117,455
196,304,117,454
195,304,115,451
195,302,115,448
193,300,115,445
193,299,114,443
192,297,114,440
191,295,113,437
190,294,112,435
189,292,112,432
188,290,112,430
187,289,111,427
187,287,110,423
185,286,110,422
184,284,109,419
184,283,109,417
183,281,108,414
182,280,108,412
181,279,107,409
180,277,107,408
179,275,107,405
179,274,105,402
178,278,105,400
177,438,103,398
176,614,103,396
175,671,103,393
175,664,103,391
173,655,103,389
173,649,102,387
172,644,101,384
171,638,101,383
170,632,100,381
169,625,100,378
167,620,99,376
167,615,99,375
167,609,98,371
166,605,110,370
166,600,109,368
165,593,109,366
163,639,108,364
163,765,108,363
163,755,107,359
162,746,106,359
161,738,105,356
159,732,105,355
159,723,103,352
158,716,103,351
158,708,103,348
157,703,103,347
157,696,187,345
156,688,301,344
155,681,297,341
154,676,295,339
154,670,293,338
153,664,291,335
152,657,289,334
235,652,287,332
318,646,285,331
315,639,283,329
313,633,281,327
311,629,280,326
308,624,278,324
307,618,276,388
304,612,275,385
303,607,273,382
301,603,271,380
299,598,270,377
297,592,268,374
295,587,267,371
293,583,265,369
291,579,358,367
363,574,371,364
359,568,368,362
356,565,365,359
354,560,362,358
352,556,359,355
349,551,357,353
347,547,355,350
345,543,352,349
343,539,350,347
375,536,348,344
371,531,346,342
369,527,344,340
367,523,341,338
364,519,339,335
361,516,337,334
359,512,335,332
357,508,333,330
355,504,332,327
352,500,329,326
350,497,327,325
348,614,325,323
345,608,323,321
344,601,322,319
342,597,319,318
339,591,326,316
337,586,339,315
335,580,337,313
333,576,335,312
332,571,333,310
348,567,331,307
489,561,329,306
651,558,327,305
652,553,432,304
646,548,529,302
639,543,539,300
633,540,711,299
646,536,707,297
831,531,699,326
904,527,694,323
911,524,687,414
915,519,679,440
919,515,673,463
921,511,669,639
922,507,662,837
923,504,655,900
922,499,649,910
915,572,646,913
891,734,639,911
879,728,633,902
870,719,628,884
860,711,624,873
851,704,619,862
841,698,613,854
831,691,608,844
823,684,604,834
815,676,600,824
807,671,594,817
798,665,589,807
790,658,585,799
783,652,581,791
775,647,575,783
767,641,572,775
760,635,568,767
752,629,563,759
745,624,560,751
738,619,555,745
731,613,551,737
724,608,548,731
718,604,543,723
711,599,540,718
705,593,536,711
700,588,533,704
693,583,528,697
687,579,525,692
681,574,521,686
675,569,518,679
670,564,515,673
664,561,510,669
658,556,507,663
653,551,504,656
647,547,500,651
643,543,496,646
637,540,493,639
632,536,491,635
627,531,487,629
622,527,483,625
617,524,480,620
611,519,478,615
608,515,475,609
603,512,472,606
598,508,468,600
593,504,465,595
589,499,463,591
583,497,460,586
580,493,457,583
575,489,454,578
572,486,451,573
568,483,449,569
563,480,446,566
559,476,443,561
556,473,440,557
551,471,438,551
547,467,435,549
543,463,432,545
540,461,430,541
536,457,428,537
532,455,423,534
528,451,423,530
525,448,419,526
521,445,417,522
517,443,415,519
514,440,412,515
510,437,411,511
507,434,408,508
504,432,405,505
499,429,403,501
497,426,401,497
494,423,398,494
490,421,396,492
487,418,393,487
483,415,391,484
480,412,390,481
478,411,387,478
475,408,385,476
472,405,382,472
469,403,381,469
466,400,379,466
463,398,376,463
459,395,374,460
457,393,372,457
454,391,370,454
451,388,368,451
448,386,366,449
446,384,364,446
443,381,362,443
440,379,359,441
437,377,358,438
435,375,356,435
432,371,354,432
429,370,352,430
427,368,350,427
423,366,349,425
422,364,347,422
419,362,345,419
416,359,343,417
414,358,342,415
412,355,339,412
409,354,337,411
408,352,335,408
405,349,334,405
402,347,332,402
399,345,331,399
398,344,329,398
396,342,327,396
393,339,326,393
391,338,323,391
388,335,322,389
386,334,319,387
384,332,319,384
382,331,317,382
380,327,315,380
377,327,313,378
376,325,312,376
373,323,311,374
371,321,309,371
375,319,307,370
533,318,306,368
713,316,304,365
883,315,303,364
908,312,301,361
913,311,300,359
917,309,298,358
919,307,295,355
921,306,295,354
921,304,294,352
924,302,292,350
924,301,291,348
925,300,289,347
926,298,287,344
927,295,286,343
927,295,285,341
929,293,284,339
929,291,281,337
927,290,281,335
920,289,280,334
891,287,278,332
881,286,276,330
871,284,275,327
861,283,274,327
851,281,271,325
843,280,271,323
834,278,270,322
825,277,268,319
816,275,267,318
807,274,265,317
799,272,265,315
792,271,263,313
783,270,262,312
775,268,261,311
768,267,259,309
761,265,258,307
753,263,257,306
746,263,255,304
739,262,254,302
732,260,253,301
726,259,252,299
719,257,250,298
713,255,249,295
706,255,248,295
700,254,247,294
694,252,246,292
688,251,244,291
681,249,243,289
676,249,243,287
670,248,241,286
665,246,240,285
659,245,239,283
653,243,238,282
647,243,237,280
643,241,236,280
638,240,235,278
632,239,233,276
627,238,231,275
622,237,231,274
617,236,230,272
612,235,229,271
608,233,227,270
603,231,227,269
598,231,226,268
594,230,225,266
590,229,224,265
585,227,223,263
580,227,221,262
575,226,221,261
572,225,220,259
568,224,219,259
563,222,217,257
560,221,217,255
556,220,216,254
551,219,215,253
547,218,213,252
543,217,213,251
540,216,211,249
536,216,210,249
532,214,209,248
528,213,208,246
525,211,207,245
521,211,207,244
518,210,206,243
514,209,205,242
510,207,204,240
507,207,203,240
504,206,202,238
499,205,201,237
497,204,199,236
493,204,199,235
490,202,198,234
487,201,198,233
483,199,196,231
480,199,195,231
477,199,195,230
475,197,194,229
472,196,193,227
468,195,192,227
465,195,191,226
463,194,190,224
460,193,190,224
455,192,189,223
454,192,188,222
451,190,187,221
448,189,186,219
445,188,185,219
443,188,184,217
440,187,184,217
438,186,183,216
435,185,182,214
432,184,181,214
429,184,179,213
427,183,179,211
423,181,179,211
422,181,178,210
419,179,177,209
415,179,176,207
414,178,175,207
412,177,175,206
409,177,174,205
407,176,173,204
404,175,172,203
402,174,172,203
399,173,171,201
397,172,169,199
395,172,169,199
393,171,168,199
391,170,167,198
388,169,167,197
386,168,166,196
384,167,166,195
382,167,165,194
380,166,163,193
377,165,163,192
376,165,162,192
373,164,161,191
371,163,161,190
369,163,161,189
367,162,159,188
365,161,159,188
363,160,158,187
361,159,157,185
359,159,157,185
357,158,156,184
355,158,155,184
353,157,155,183
352,156,154,259
349,156,153,255
348,155,152,254
345,153,152,252
344,153,152,251
342,153,151,249
339,152,150,248
338,152,149,246
336,151,149,245
335,150,148,243
333,149,147,242
332,148,147,240
329,147,146,239
327,147,145,237
326,146,144,236
324,146,143,235
323,145,143,233
321,144,143,231
319,143,142,231
317,143,141,230
316,142,141,228
314,142,140,227
312,141,140,226
311,140,139,224
309,140,138,223
307,139,137,222
306,139,137,221
304,138,137,220
303,137,135,219
302,137,135,217
300,135,135,216
298,135,134,216
297,135,134,214
295,134,133,213
294,134,132,211
292,133,131,210
291,132,131,209
289,132,131,207
287,131,130,207
287,131,129,206
285,130,129,205
284,129,128,204
282,129,127,203
281,129,127,201
280,127,126,199
278,127,126,199
276,127,125,198
275,126,125,197
273,126,124,196
271,125,124,195
271,124,123,194
270,124,122,193
268,123,122,192
267,123,121,191
265,122,121,190
263,121,120,189
263,121,120,188
262,120,120,188
260,120,119,186
259,120,119,185
258,119,118,184
256,119,117,184
255,118,117,183
254,117,116,182
253,117,115,181
252,116,115,180
250,115,115,179
249,115,114,179
248,115,114,178
247,114,113,177
246,114,113,176
244,113,112,176
243,113,111,175
241,112,111,174
241,112,111,173
240,112,110,172
238,110,110,172
237,110,109,171
236,109,109,170
235,109,108,169
234,109,108,167
233,108,107,167
231,108,107,167
231,107,106,167
230,107,106,166
228,106,105,165
227,106,105,164
226,105,104,163
225,105,103,163
224,103,103,162
223,103,103,161
222,103,103,161
221,103,102,159
220,103,102,159
219,102,101,158
218,102,101,158
217,101,100,157
216,101,99,156
215,100,99,156
214,99,99,155
213,99,99,155
212,99,98,154
211,99,97,153
210,98,98,153
209,98,97,152
209,97,96,152
207,97,96,152
207,97,96,151
206,96,96,167
205,96,95,178
204,96,95,176
203,96,94,176
203,94,94,174
201,94,94,174
201,94,93,173
199,94,93,172
199,93,92,171
198,93,92,170
198,92,92,169
197,92,91,167
196,92,91,167
195,91,91,167
194,91,90,166
193,91,110,165
192,90,174,164
192,89,172,163
191,89,171,162
190,88,170,161
189,89,169,161
188,88,167,159
187,88,167,159
187,88,166,158
186,87,165,157
185,87,164,157
184,86,163,156
184,86,163,155
183,85,162,154
182,85,161,153
181,85,159,153
180,84,159,152
179,84,158,152
179,83,157,150
177,83,156,150
177,83,156,149
176,82,155,148
176,83,154,147
175,82,153,147
174,82,152,146
173,81,152,146
172,81,151,145
172,80,150,144
171,80,149,144
170,79,148,143
169,79,147,143
167,79,147,142
167,79,146,142
167,79,145,141
167,78,144,141
166,78,143,140
165,77,143,140
164,77,142,139
163,77,142,138
163,77,141,137
163,76,140,137
161,76,140,136
161,76,139,135
160,75,137,135
159,75,137,135
159,75,135,134
158,74,135,134
157,74,135,133
157,73,135,132
156,73,134,131
156,73,133,131
155,71,132,131
155,71,131,130
153,71,131,130
153,71,130,129
152,71,130,129
152,71,129,127
151,70,129,127
151,71,127,127
150,70,127,126
149,70,126,126
148,69,126,125
147,69,125,125
147,69,125,124
146,69,124,124
146,69,123,123
145,67,123,123
145,68,122,122
143,67,121,122
143,67,121,121
143,67,121,121
142,66,120,120
142,66,120,120
141,66,119,120
140,65,118,119
140,65,117,118
139,65,117,118
139,65,116,117
138,64,115,117
137,64,115,116
135,63,114,115
135,63,114,115
135,63,113,115
135,63,113,115
135,63,112,114
134,62,112,114
134,62,111,113
133,62,111,113
132,61,110,112
131,62,110,112
131,65,109,111
131,64,109,111
130,64,108,110
129,63,107,110
128,63,107,110
128,63,107,109
127,63,106,109
127,63,105,108
127,62,107,108
126,62,231,107
126,69,231,107
125,75,229,107
