37,167,0,35
37,166,0,35
36,166,0,35
36,165,0,35
36,163,0,35
36,163,0,35
35,162,0,34
35,161,0,34
35,161,0,34
35,161,0,36
35,161,0,36
35,159,0,35
35,159,0,36
35,159,0,35
35,158,0,35
35,157,0,35
35,156,0,35
35,156,0,35
34,155,0,35
34,154,0,35
34,153,0,34
34,153,0,34
33,154,0,34
35,155,0,34
34,153,0,33
34,153,0,33
34,152,0,33
34,152,0,33
34,151,0,33
33,151,0,33
33,150,0,33
33,149,0,32
33,148,0,32
33,147,0,32
33,147,0,32
33,146,0,32
39,145,0,31
39,145,0,32
39,144,0,31
38,143,0,31
38,143,0,31
38,142,0,31
38,142,0,31
38,141,0,31
37,141,0,31
37,140,0,31
36,139,0,31
37,138,0,30
37,140,0,30
37,145,0,30
37,145,0,30
37,143,0,30
37,143,0,30
36,143,0,29
36,142,0,30
36,141,0,29
36,140,0,29
35,140,0,29
35,139,0,29
35,139,0,29
35,137,0,28
35,148,0,29
35,150,0,29
35,149,0,28
35,148,0,28
35,147,0,28
35,147,0,28
35,146,0,28
34,146,0,28
34,145,0,28
34,143,0,27
34,143,0,27
34,143,0,27
34,142,0,27
33,149,0,27
34,149,0,27
33,149,0,26
33,147,0,26
33,147,0,26
33,146,0,26
33,145,0,26
33,145,0,25
32,143,0,26
32,143,0,25
32,143,0,25
31,142,0,25
31,141,0,25
31,142,0,25
32,142,0,25
33,141,0,25
33,141,0,25
32,140,0,24
32,139,0,24
32,139,0,24
31,138,0,24
31,137,0,24
31,135,0,24
31,135,0,24
31,135,0,24
31,135,0,24
31,135,0,25
32,143,0,30
34,142,0,30
34,142,0,29
34,141,0,29
34,140,0,29
34,139,0,29
33,139,0,29
33,138,0,29
33,137,0,28
33,137,0,28
32,135,0,28
32,135,0,28
31,138,0,28
32,149,0,28
33,148,0,28
32,147,0,28
32,147,0,27
32,146,0,27
32,145,0,27
31,144,0,27
31,143,0,27
31,143,0,27
31,143,0,26
31,142,0,26
31,141,0,26
31,142,0,26
31,150,0,25
31,148,0,26
30,147,0,25
30,147,0,25
30,146,0,25
30,146,0,25
30,145,0,25
30,144,0,25
29,143,0,25
29,143,0,25
29,142,0,25
29,141,0,25
29,140,0,24
29,146,0,26
29,145,0,26
29,145,0,26
28,143,0,25
28,143,0,25
28,143,0,25
28,142,0,25
28,141,0,25
28,140,0,25
28,140,0,25
27,139,0,25
27,139,0,24
27,137,0,24
28,149,0,24
29,148,0,24
29,147,0,24
28,147,0,24
28,146,0,24
28,145,0,24
28,144,0,24
28,143,0,24
28,143,0,23
28,142,0,24
28,142,0,23
27,141,0,23
27,140,0,23
27,149,0,23
34,148,0,23
33,147,0,23
33,146,0,22
33,146,0,22
33,145,0,22
33,143,0,22
32,143,0,22
33,143,0,22
32,142,0,22
31,141,0,21
31,140,0,21
31,140,0,22
31,152,0,22
31,152,0,22
31,151,0,22
31,150,0,22
31,149,0,22
31,148,0,22
31,147,0,22
30,147,0,22
30,146,0,21
30,145,0,21
30,144,0,21
29,143,0,21
29,143,0,21
29,147,0,21
31,150,0,21
31,150,0,21
31,148,0,21
31,148,0,21
31,147,0,21
30,147,0,21
30,145,0,21
30,145,0,21
30,144,0,20
30,143,0,20
30,143,0,20
30,142,0,20
30,147,0,21
31,150,0,22
31,150,0,21
30,149,0,21
30,148,0,21
30,147,0,21
30,147,0,21
30,146,0,20
30,145,0,20
29,144,0,20
29,143,0,20
29,143,0,20
29,143,0,21
29,143,0,21
37,145,0,21
37,143,0,21
36,143,0,21
36,142,0,21
36,142,0,20
35,141,0,20
35,140,0,20
35,140,0,20
35,139,0,20
35,139,0,20
34,137,0,20
34,137,0,21
34,140,0,31
35,149,0,30
35,148,0,30
35,147,0,31
35,147,0,30
35,146,0,30
35,145,0,30
34,144,0,30
34,143,0,29
34,143,0,29
34,142,0,29
34,142,0,29
34,141,0,29
33,141,0,29
34,152,0,28
34,151,0,28
34,150,0,28
34,149,0,28
33,148,0,28
33,147,0,28
33,147,0,27
33,146,0,27
33,145,0,27
33,145,0,27
33,143,0,27
32,143,0,27
32,147,0,27
32,153,0,26
31,152,0,27
32,152,0,26
31,151,0,26
31,150,0,26
31,149,0,26
31,148,0,25
31,147,0,25
31,147,0,25
31,147,0,25
30,145,0,25
30,145,0,25
30,144,0,25
31,149,0,25
31,147,0,25
31,147,0,24
31,146,0,24
31,146,0,24
31,145,0,24
31,143,0,24
31,143,0,24
31,143,0,24
30,142,0,24
30,141,0,24
30,141,0,24
30,140,0,32
30,153,0,33
31,152,0,33
31,151,0,32
30,150,0,32
30,149,0,32
30,149,0,32
30,147,0,31
30,147,0,31
30,147,0,31
30,146,0,31
29,145,0,31
29,144,0,31
29,143,0,31
31,152,0,31
31,152,0,31
31,150,0,30
31,149,0,30
31,148,0,30
31,147,0,30
31,147,0,30
30,147,0,30
30,146,0,30
30,145,0,29
30,144,0,29
30,143,0,29
30,143,0,29
34,146,0,29
34,145,0,29
34,143,0,29
34,143,0,28
34,143,0,28
33,142,0,28
33,141,0,28
33,140,0,28
33,140,0,28
32,139,0,28
32,139,0,27
32,138,0,27
31,137,0,27
33,138,0,27
35,138,0,27
34,137,0,26
34,135,0,27
34,135,0,27
33,135,0,26
33,134,0,26
33,134,0,26
33,133,0,25
33,133,0,25
33,131,0,25
33,131,0,25
32,131,0,25
33,143,0,25
35,142,0,25
35,141,0,25
35,141,0,25
35,140,0,25
34,139,0,24
34,139,0,24
34,138,0,24
33,137,0,24
33,135,0,24
33,135,0,24
33,135,0,24
33,135,0,24
33,145,0,24
33,145,0,24
33,144,0,24
33,143,0,23
33,143,0,23
33,142,0,22
33,141,0,22
32,141,0,22
31,140,0,22
31,139,0,22
31,138,0,22
31,138,0,22
31,137,0,22
31,147,0,22
34,147,0,22
34,147,0,22
33,146,0,22
33,145,0,22
33,143,0,21
33,143,0,21
33,143,0,21
33,142,0,21
33,141,0,21
32,141,0,21
31,140,0,22
31,140,0,23
31,149,0,23
32,150,0,22
31,149,0,23
31,148,0,22
31,147,0,22
31,147,0,22
31,146,0,22
31,145,0,22
31,144,0,22
31,143,0,21
31,143,0,21
30,143,0,21
30,142,0,21
30,145,0,23
31,145,0,22
31,144,0,22
31,143,0,22
31,143,0,22
31,142,0,21
30,141,0,21
30,141,0,21
30,140,0,21
30,140,0,21
30,139,0,21
29,138,0,21
30,137,0,21
30,145,0,25
33,155,0,25
34,154,0,25
33,153,0,25
33,152,0,24
33,152,0,24
33,151,0,24
33,150,0,24
32,149,0,24
31,148,0,24
31,147,0,23
31,147,0,24
31,146,0,27
31,146,0,46
32,148,0,45
32,147,0,45
31,147,0,45
31,146,0,44
31,145,0,44
31,144,0,44
31,143,0,44
31,143,0,43
31,142,0,43
31,142,0,42
30,141,0,42
30,140,0,42
30,152,0,43
33,153,0,42
33,152,0,41
33,152,0,41
33,150,0,41
33,149,0,41
32,149,0,41
31,147,0,40
31,147,0,41
31,147,0,41
31,146,0,39
31,145,0,39
31,144,0,39
31,145,0,39
33,147,0,39
32,147,0,39
32,146,0,39
31,145,0,39
32,145,0,39
31,143,0,38
31,143,0,38
31,143,0,38
31,142,0,38
31,141,0,38
31,140,0,37
30,140,0,37
31,143,0,46
31,147,0,46
31,147,0,45
31,146,0,45
30,145,0,45
30,143,0,44
30,143,0,44
30,143,0,44
30,142,0,44
30,141,0,44
30,140,0,43
29,140,0,43
29,139,0,43
29,139,0,44
29,144,0,44
30,143,0,43
30,143,0,43
30,142,0,43
30,141,0,43
29,140,0,42
29,140,0,42
29,140,0,42
29,139,0,41
28,138,0,41
28,137,0,41
28,136,0,41
28,143,0,41
32,156,0,41
31,155,0,40
31,154,0,39
31,153,0,39
31,152,0,39
31,152,0,39
31,151,0,39
31,150,0,39
31,149,0,39
31,148,0,39
30,147,0,38
30,147,0,39
30,146,0,38
31,150,0,38
31,149,0,38
31,147,0,38
31,147,0,38
31,147,0,37
30,145,0,37
30,145,0,37
30,144,0,37
30,143,0,36
30,143,0,36
30,142,0,36
29,141,0,36
29,141,0,37
30,157,0,37
30,156,0,37
30,155,0,36
29,154,0,36
29,153,0,36
29,152,0,35
29,152,0,35
29,151,0,35
29,150,0,35
28,149,0,35
28,149,0,35
28,148,0,35
28,147,0,35
28,152,3,34
32,151,6,34
32,151,6,34
32,149,5,34
31,149,5,34
31,148,5,33
31,147,5,33
31,146,5,33
31,145,5,33
31,145,5,33
31,144,5,33
31,143,5,32
31,143,5,33
31,151,5,33
31,150,5,33
31,149,5,33
31,148,5,33
30,147,5,32
30,146,5,32
30,146,5,31
30,145,5,31
30,144,4,31
30,143,4,31
30,143,5,31
29,142,4,31
29,141,4,44
30,145,4,67
31,144,4,66
30,143,4,65
30,143,4,65
30,142,4,65
30,141,4,64
30,141,4,64
29,140,4,63
29,140,4,63
29,139,4,63
29,137,4,63
29,137,4,62
29,135,4,62
29,152,3,62
35,151,3,61
35,150,3,61
35,149,3,60
35,149,3,61
34,147,3,60
34,147,3,60
34,146,3,60
34,145,3,60
34,145,3,60
33,143,3,59
33,143,3,59
33,142,3,59
33,156,3,58
33,156,3,58
33,155,3,57
33,154,3,57
33,153,3,57
32,152,3,57
32,152,3,56
31,151,3,56
31,150,3,56
31,149,3,56
31,149,3,55
31,147,3,55
31,147,3,55
31,152,3,55
31,152,3,54
31,151,3,54
31,150,3,54
31,150,3,54
30,149,3,53
30,147,3,53
31,147,2,53
30,146,2,52
30,145,3,52
30,145,3,52
30,144,3,51
30,143,3,51
29,147,2,51
30,150,2,51
30,148,2,51
30,147,3,51
30,147,3,50
29,147,2,50
29,145,2,50
29,145,2,50
29,143,2,50
29,143,3,49
29,143,2,49
28,142,2,49
28,141,2,49
28,143,2,48
30,148,2,48
30,147,2,48
30,147,2,48
30,146,2,47
30,145,2,47
29,143,2,47
29,143,2,47
28,143,2,47
28,142,2,46
28,141,2,46
28,140,2,46
28,140,2,46
28,145,2,45
28,154,2,45
28,153,2,45
28,153,2,45
28,152,2,45
28,151,2,44
28,151,2,44
28,149,2,44
28,149,2,44
27,148,2,44
27,147,2,43
27,146,2,43
27,146,1,43
27,147,2,43
29,157,2,43
28,156,2,42
28,155,2,42
28,155,2,42
28,154,2,42
28,153,2,41
27,152,2,41
28,151,2,41
27,151,2,41
27,150,2,40
27,149,2,41
27,148,2,39
27,148,2,39
29,148,2,39
29,147,2,39
29,147,2,39
29,146,2,39
29,145,1,39
29,145,1,39
28,143,2,39
28,143,1,39
28,142,2,39
28,142,1,39
28,141,2,38
28,140,2,38
28,145,1,38
28,154,2,38
29,153,1,38
29,153,2,38
28,152,1,37
28,151,1,37
28,150,1,37
28,150,1,37
28,148,1,36
27,147,1,36
27,147,1,36
27,146,1,36
27,146,1,35
27,145,1,35
29,149,1,35
29,149,1,35
29,148,1,35
28,147,1,35
28,147,1,35
28,146,1,35
28,145,1,34
28,143,1,35
28,143,1,34
28,143,1,34
28,142,1,34
27,141,1,33
27,142,1,34
30,147,1,33
34,147,1,34
33,146,1,33
33,145,1,33
33,144,1,33
33,143,1,33
32,143,1,33
32,142,1,32
33,142,1,32
32,141,1,31
32,140,1,31
31,140,1,31
31,140,1,31
31,153,1,31
32,152,1,31
31,152,1,31
31,150,1,31
31,150,1,31
31,149,0,31
31,148,1,31
31,147,1,30
31,147,1,31
31,146,1,30
30,145,1,30
30,144,1,30
31,143,1,31
34,147,1,32
34,146,1,31
34,145,1,31
33,145,1,31
33,143,0,31
33,143,1,31
33,143,1,31
33,142,0,31
33,141,0,30
33,141,1,30
32,140,0,30
32,139,0,30
31,139,1,30
31,145,1,30
32,145,0,30
31,143,1,30
31,143,0,30
31,142,0,29
31,142,1,30
31,141,1,29
31,140,1,29
31,139,1,29
31,139,1,29
30,138,0,29
30,137,1,28
30,137,1,29
30,152,0,30
30,150,0,30
30,150,0,30
30,149,0,30
30,148,0,29
30,147,0,29
30,147,0,29
29,146,0,29
29,145,1,29
29,143,0,29
29,143,0,28
29,143,0,28
29,142,0,28
30,149,0,28
31,149,0,28
31,147,1,28
30,147,1,28
30,146,1,28
30,145,0,27
30,145,0,27
30,143,0,27
30,143,1,27
30,142,0,27
29,142,0,28
29,141,0,27
29,140,0,27
29,152,0,27
31,151,0,26
30,150,1,26
30,150,0,26
30,149,0,26
30,148,0,26
30,147,0,26
29,146,0,25
29,146,0,26
29,145,0,25
29,143,0,25
29,143,0,25
29,143,0,37
28,145,0,38
39,144,0,39
39,143,0,38
39,143,0,38
38,142,0,38
39,141,0,38
38,141,0,38
38,140,1,37
38,139,0,36
37,139,1,37
37,137,0,36
37,137,0,36
37,135,0,36
37,145,0,36
37,146,0,35
37,145,0,35
37,143,0,35
36,143,0,35
36,143,0,35
36,142,0,35
35,142,0,35
35,141,0,34
35,140,0,34
35,139,0,34
35,139,0,34
35,138,0,34
35,152,0,33
35,157,0,33
35,157,0,33
35,156,0,33
34,155,0,33
34,154,0,33
34,153,0,32
34,152,0,31
34,152,0,32
34,151,0,31
33,150,0,31
33,149,0,31
33,148,0,31
33,150,0,35
39,150,0,35
39,149,0,35
39,148,1,35
39,147,0,35
39,147,1,35
39,146,0,35
38,145,0,35
39,145,1,35
38,143,0,34
38,143,0,34
38,142,1,34
38,142,1,34
38,149,0,34
38,151,0,33
38,150,0,34
38,149,0,33
38,148,0,33
37,147,0,33
37,147,0,33
37,146,0,32
36,145,1,33
36,143,0,31
36,143,0,31
36,143,0,31
35,142,0,31
36,146,1,31
37,156,0,31
37,156,0,31
37,155,0,31
37,154,0,31
36,153,0,31
37,152,0,30
36,152,0,30
36,151,0,30
36,150,0,30
35,149,0,30
35,148,0,30
35,147,0,30
35,156,0,30
35,159,0,29
35,158,0,29
35,157,0,29
35,156,0,29
34,155,0,29
34,155,0,28
34,154,0,29
34,153,0,28
33,152,0,28
33,152,0,28
33,151,0,28
33,150,0,28
32,159,0,34
39,162,0,33
44,161,0,33
44,159,0,33
45,159,0,33
44,158,0,32
44,158,0,32
43,157,0,32
43,156,0,32
43,155,0,31
43,155,0,31
42,153,0,31
42,152,0,31
41,152,0,31
41,153,0,31
41,153,0,31
41,152,0,31
41,151,0,31
41,151,0,31
41,149,0,31
40,148,0,30
39,148,0,30
39,147,0,30
39,147,0,29
39,146,0,29
39,145,0,29
39,146,0,29
39,152,0,30
39,151,0,29
39,150,0,29
39,149,0,29
38,148,0,29
38,147,0,28
38,147,0,28
38,146,0,28
37,145,0,28
37,145,0,28
37,143,0,28
36,143,0,28
36,143,0,28
37,145,0,28
37,144,0,27
36,143,0,27
36,143,0,27
36,142,0,27
36,142,0,27
35,141,0,26
35,140,0,26
35,140,0,26
35,139,0,26
35,139,0,26
34,138,0,26
34,147,0,26
39,190,0,28
39,188,0,28
39,187,0,28
39,186,0,27
39,185,0,27
39,184,0,27
39,184,0,27
38,182,0,27
38,181,0,27
38,180,0,27
38,179,0,26
37,178,0,26
37,177,0,26
37,184,0,26
37,182,0,26
37,182,0,26
37,180,0,26
36,179,0,25
36,179,0,25
36,178,0,25
35,177,0,25
35,176,0,25
35,175,0,25
35,174,0,24
35,173,0,24
35,173,0,24
35,172,0,24
34,171,0,24
34,170,0,24
34,169,0,24
34,167,0,24
34,167,0,24
33,167,0,24
33,166,0,24
33,165,0,24
33,165,0,23
33,164,0,23
32,163,0,23
33,162,0,23
96,179,0,24
135,178,0,23
134,177,0,23
133,176,0,23
132,175,0,22
131,174,0,22
130,173,0,22
130,172,0,22
129,171,0,22
128,170,0,22
127,169,0,22
127,167,0,22
126,197,0,22
126,301,0,22
199,312,0,22
198,311,0,21
196,307,0,21
195,306,0,21
193,304,0,21
192,303,0,21
192,300,0,21
190,299,0,21
189,297,0,20
188,295,0,21
187,294,0,32
186,292,0,36
185,290,0,35
184,289,0,35
184,287,0,35
183,286,0,34
182,284,0,35
180,283,0,34
179,281,0,34
179,280,0,34
178,278,0,34
177,276,0,34
176,275,0,33
176,273,0,34
175,271,0,34
174,271,1,33
173,269,1,33
172,268,1,33
171,266,1,33
170,265,1,33
169,263,1,33
167,262,1,32
167,261,1,32
167,259,1,31
166,258,1,31
166,256,1,31
165,255,1,31
163,254,1,31
163,253,1,31
162,251,1,31
161,345,1,31
161,343,1,31
159,340,1,30
159,337,1,31
159,335,1,30
158,334,1,30
157,332,1,30
156,329,1,30
156,327,1,41
155,326,1,39
155,324,1,39
153,322,1,39
153,319,1,39
152,318,1,39
152,317,1,39
151,315,1,39
150,313,1,38
149,312,0,38
149,310,1,38
148,307,1,38
147,306,1,37
147,304,1,37
146,303,1,37
145,301,1,37
145,341,1,37
144,446,1,36
143,442,1,36
142,438,1,36
142,435,1,35
142,432,0,35
141,429,1,35
140,426,1,35
140,423,0,35
139,421,1,35
138,419,1,35
137,415,1,35
137,413,1,34
135,411,1,34
135,408,1,34
135,405,1,34
135,403,1,34
134,400,1,33
133,398,2,33
133,396,1,33
132,536,1,33
131,589,1,34
159,583,1,33
227,579,1,33
226,574,1,33
224,569,1,33
223,566,1,33
222,561,1,33
220,556,1,32
219,552,1,32
218,549,1,31
217,545,1,31
216,540,1,34
215,537,1,83
214,534,1,81
212,530,1,81
211,579,1,80
211,575,1,80
209,571,1,79
207,567,1,79
207,562,1,78
206,558,1,78
205,554,1,77
204,551,1,77
203,545,1,77
202,542,1,76
201,538,1,76
199,535,1,76
199,530,1,75
198,527,1,75
198,628,1,74
196,623,1,74
195,615,1,73
194,611,1,73
193,607,1,73
192,603,1,71
192,597,1,72
191,592,1,71
190,588,0,71
191,584,1,71
189,579,1,71
188,575,1,70
188,571,1,70
187,568,1,70
185,563,1,70
185,559,1,69
184,555,1,69
184,551,1,68
182,547,0,68
181,543,1,68
180,540,1,67
179,537,1,67
179,532,1,66
178,529,1,66
177,525,1,66
177,523,1,66
176,518,1,65
175,515,1,65
174,512,1,65
173,508,1,65
172,504,1,64
172,531,1,64
171,639,1,63
170,635,1,63
169,627,1,63
167,623,1,63
167,619,1,62
167,614,1,62
166,609,1,62
165,604,1,61
164,600,1,61
163,595,1,61
163,591,1,61
162,585,1,60
161,582,1,60
161,577,1,60
159,574,1,60
159,569,1,59
158,565,1,59
158,561,1,59
157,558,1,59
157,553,1,58
156,549,1,58
156,546,1,57
154,542,1,57
154,537,1,57
153,551,1,57
153,594,1,57
152,589,1,56
152,583,1,56
150,579,2,56
150,575,2,56
149,572,2,55
148,566,2,55
147,562,2,55
147,558,2,54
146,555,2,54
146,550,2,54
145,546,2,54
144,543,2,53
143,611,2,53
143,664,3,53
142,659,5,53
142,654,7,52
141,648,7,52
141,642,7,51
140,637,7,51
140,632,7,51
139,627,7,51
139,622,7,51
137,617,7,51
174,613,7,50
281,608,7,50
314,603,7,50
312,598,7,50
309,594,7,49
307,590,7,49
305,585,7,49
304,581,7,49
302,577,7,48
300,573,7,48
299,568,7,48
297,565,7,48
312,561,7,48
425,558,7,48
547,553,7,48
653,549,7,47
646,545,7,47
639,542,7,46
635,537,7,46
630,534,7,46
624,531,7,46
620,527,7,46
615,525,7,45
610,519,7,45
606,517,7,45
601,514,7,45
597,511,7,45
593,507,7,44
588,504,7,44
583,501,7,44
580,497,7,44
576,494,7,44
573,491,7,43
569,487,7,43
565,486,7,43
561,482,7,43
557,479,7,43
554,476,7,42
550,474,7,42
546,470,7,42
543,467,7,42
540,465,7,42
536,463,7,41
532,460,7,41
529,455,7,41
526,454,7,41
523,451,7,41
519,448,6,41
516,446,6,41
513,444,7,39
510,441,7,39
507,465,6,39
504,530,6,39
500,526,6,39
497,523,7,39
495,518,6,39
492,515,6,39
489,511,6,39
486,507,6,39
483,503,6,38
480,499,6,38
478,497,6,38
476,494,6,38
473,489,6,41
470,487,7,41
486,483,7,41
507,481,7,41
504,477,7,41
500,473,7,39
497,471,7,39
494,468,7,39
491,464,7,39
487,462,7,39
484,459,7,39
481,455,7,39
478,455,7,39
475,451,7,39
472,449,7,39
469,447,8,39
467,444,7,38
463,441,8,38
461,439,7,38
459,435,7,38
455,433,8,37
453,431,7,37
451,428,7,37
448,426,7,37
446,423,7,37
444,421,7,36
441,419,7,36
439,416,7,36
436,415,7,36
434,412,7,35
432,409,7,35
429,408,7,35
427,406,7,35
425,403,7,35
423,401,7,35
420,399,7,34
418,397,7,35
415,394,7,36
414,391,7,35
412,390,7,35
409,388,7,35
408,386,7,35
405,384,7,35
403,382,7,35
401,380,6,35
399,377,7,35
397,376,7,34
395,374,6,34
393,372,6,34
391,370,6,34
389,368,6,36
387,366,6,35
385,365,6,35
383,362,6,35
381,359,6,35
379,359,6,35
377,357,6,35
376,355,6,35
376,353,6,34
377,352,5,34
375,350,6,34
372,348,6,34
371,346,5,34
369,345,5,34
367,344,5,33
365,341,5,33
363,339,5,33
362,338,5,33
359,335,5,33
358,334,5,32
356,333,5,31
355,331,5,31
353,329,5,31
352,327,5,31
350,326,5,31
443,325,5,31
454,323,5,31
451,321,5,31
448,319,4,31
444,318,4,31
441,317,5,31
439,315,4,31
436,313,4,30
433,312,4,30
451,311,4,31
525,309,4,30
521,307,4,30
517,306,4,30
513,305,4,30
575,303,4,29
636,302,4,29
630,301,4,29
624,299,4,29
620,298,4,29
615,295,3,29
610,295,4,29
606,294,3,28
601,292,3,28
597,291,3,28
593,289,3,41
588,287,3,41
583,287,3,41
580,285,3,41
575,284,3,41
572,283,3,41
568,281,3,41
565,280,3,39
561,279,3,39
557,277,3,39
553,276,3,39
550,275,3,39
615,273,3,48
627,272,3,48
622,271,3,47
617,270,3,47
613,269,3,46
609,268,3,46
604,266,3,46
600,265,3,45
595,263,3,45
591,263,3,45
587,262,3,45
583,260,3,44
578,259,3,44
575,257,3,44
571,257,3,44
567,255,3,44
562,254,3,43
559,253,2,43
556,252,3,43
551,251,2,42
548,249,3,42
543,248,2,42
541,248,3,42
537,246,2,42
534,245,2,41
531,243,3,41
527,243,3,41
524,242,3,41
521,240,3,41
518,240,2,41
515,239,2,39
511,238,2,39
508,237,2,39
505,236,2,39
502,235,2,39
499,233,2,39
496,231,2,39
492,231,2,39
489,231,2,41
487,229,2,39
484,228,2,39
481,227,2,39
478,227,2,39
476,225,2,39
473,224,2,39
471,224,2,39
467,222,2,39
465,222,2,39
462,220,2,38
460,220,2,39
457,219,2,39
455,218,2,39
451,217,2,39
449,216,2,38
447,216,2,38
444,214,1,38
442,213,2,38
440,212,2,37
437,211,2,37
435,211,2,37
433,209,2,37
430,208,1,37
428,207,2,43
425,207,1,43
423,206,1,42
421,205,1,42
419,204,1,42
416,203,1,42
414,202,1,41
412,201,1,41
410,199,1,41
408,199,1,41
406,199,1,39
403,198,1,39
402,197,1,39
399,196,1,39
398,195,1,39
396,195,1,39
393,194,1,39
391,193,1,39
389,192,1,39
387,192,1,39
385,190,1,39
384,190,1,38
382,189,1,38
380,188,1,38
378,188,1,38
376,187,1,76
374,185,1,76
372,185,1,74
371,184,1,74
369,184,1,73
367,183,1,73
365,182,1,71
363,181,1,71
361,180,1,71
359,179,1,71
358,179,1,71
356,178,0,71
355,177,1,70
353,176,1,70
352,176,1,70
349,175,1,69
348,175,1,69
346,174,1,69
344,173,1,68
344,172,1,68
341,172,1,68
339,171,1,67
338,170,1,67
336,169,1,67
335,169,1,66
334,167,0,66
332,167,1,65
331,167,1,65
329,166,0,65
327,166,0,65
326,164,1,64
324,163,1,63
323,163,1,63
321,163,0,63
319,162,1,63
318,161,1,63
317,160,1,62
316,159,1,62
314,159,1,62
313,158,0,62
312,158,0,61
310,157,1,61
308,156,1,60
307,156,0,61
305,155,0,60
304,155,1,60
303,154,1,60
302,153,1,59
300,153,0,59
299,152,0,59
297,152,0,59
295,151,0,58
295,150,0,58
294,150,0,57
292,149,0,57
291,148,0,57
290,148,1,57
288,147,0,57
287,147,0,56
286,146,0,56
285,145,0,56
284,145,0,56
282,144,0,56
281,143,0,56
280,143,0,55
279,143,0,55
277,142,0,54
276,141,0,54
275,141,1,54
273,140,0,54
272,140,0,53
271,139,0,53
270,138,0,53
269,138,0,52
268,137,0,52
267,136,0,52
265,135,0,51
263,135,0,51
263,135,0,51
262,135,0,51
261,134,0,51
260,134,0,51
259,133,0,50
258,132,0,50
255,132,0,50
255,131,0,49
254,131,0,49
253,130,0,49
252,130,0,49
251,129,0,48
250,128,0,48
249,128,0,48
248,127,0,48
247,127,0,48
246,127,0,48
245,126,0,47
243,126,0,47
243,125,0,46
242,124,0,46
240,124,0,46
240,124,0,46
239,123,0,46
238,123,0,46
237,122,0,45
236,121,0,45
235,121,0,45
234,121,0,45
231,120,0,44
231,120,0,44
231,119,0,44
230,119,0,44
229,118,0,44
227,117,0,44
227,117,0,43
226,116,0,43
225,115,0,43
224,115,0,42
224,115,0,42
222,115,0,42
222,114,0,42
221,114,0,41
220,113,0,41
219,113,0,41
218,112,0,41
217,112,0,41
216,111,0,41
216,111,0,41
215,111,0,41
214,110,0,39
213,110,0,39
212,109,0,39
211,109,0,39
210,108,0,39
209,108,0,39
209,108,0,39
207,107,0,39
207,106,0,39
206,106,0,39
205,106,0,39
204,105,0,39
204,105,0,39
203,105,0,39
202,103,0,38
201,103,0,38
199,103,0,38
199,103,0,38
199,103,0,38
198,102,0,38
197,128,0,37
196,174,0,37
195,173,0,37
195,171,0,37
194,170,0,36
193,169,0,36
192,167,0,36
192,167,0,36
191,166,0,35
190,165,0,35
190,164,0,35
189,163,0,35
188,163,0,35
187,185,0,39
186,209,0,39
185,207,0,39
185,206,0,39
184,205,0,38
184,204,0,38
182,203,0,38
182,201,0,38
181,199,0,37
181,199,0,37
179,199,0,37
179,197,0,37
178,251,0,37
178,343,0,36
177,339,0,36
176,335,0,36
176,334,0,35
175,332,0,35
174,330,0,35
173,327,0,35
173,326,0,35
172,324,0,35
172,323,0,35
171,319,0,35
170,318,0,34
169,317,0,34
169,315,0,34
167,313,0,34
167,312,0,33
167,310,0,33
166,308,0,33
166,306,0,33
165,304,0,33
164,303,0,33
163,301,0,32
163,299,0,32
162,297,0,32
162,297,0,32
161,316,0,31
161,313,0,31
159,312,0,31
159,310,0,31
159,308,0,31
158,306,0,31
157,304,0,31
157,303,0,31
156,301,0,30
156,299,0,30
155,297,0,30
155,295,0,31
154,295,0,30
153,294,0,30
153,292,0,30
152,291,0,30
152,289,0,30
151,287,0,30
150,286,0,30
150,285,0,29
149,284,0,29
148,281,0,29
147,280,0,29
147,279,0,29
147,278,0,29
146,276,0,29
146,274,0,28
145,273,0,29
145,271,0,28
143,271,0,28
143,269,0,28
143,268,0,27
142,266,0,28
142,265,0,28
141,263,0,27
141,262,0,27
140,261,0,27
140,259,0,27
139,258,0,27
139,257,0,26
138,255,0,26
137,254,0,26
137,253,0,26
135,252,0,27
135,251,0,26
135,249,0,25
135,248,0,26
134,247,0,25
134,246,0,25
133,248,0,25
133,247,0,25
132,245,0,25
131,244,0,25
131,243,0,24
131,241,0,25
130,240,0,24
130,239,0,24
129,238,0,24
128,237,0,24
127,236,0,24
127,235,0,24
127,233,0,24
126,231,0,24
126,231,0,24
126,230,0,24
125,229,0,24
125,227,0,24
124,227,0,24
123,226,0,23
123,225,0,24
123,224,0,23
122,223,0,23
122,222,0,22
121,221,0,23
121,219,0,23
120,219,0,23
120,217,0,22
120,216,0,22
119,216,0,22
119,214,0,22
118,214,0,22
117,212,0,22
117,211,0,22
117,211,0,22
116,209,0,22
115,208,0,24
115,207,0,33
115,207,0,33
114,206,0,32
114,205,0,31
114,204,0,31
113,203,0,31
113,202,0,31
112,201,0,31
112,199,0,31
111,199,0,31
111,198,0,30
110,197,0,31
110,196,0,31
110,195,0,31
109,194,0,31
109,194,0,31
108,193,0,31
108,192,0,31
108,191,0,30
107,190,0,30
107,189,0,30
107,188,0,30
105,188,0,30
105,187,0,30
105,186,0,30
105,185,0,29
103,184,0,29
103,184,0,29
103,183,0,29
103,182,0,28
103,181,0,28
103,180,0,28
102,179,0,28
101,179,0,28
101,178,0,28
101,177,0,28
100,176,0,28
100,175,0,28
99,175,0,28
99,174,0,27
99,173,0,27
98,172,0,27
98,172,0,27
98,171,0,27
97,171,0,26
97,169,0,26
97,169,0,26
96,167,0,26
96,167,0,26
99,167,0,26
98,166,0,25
98,165,0,25
97,165,0,26
97,164,0,25
97,163,0,25
96,163,0,25
96,162,0,25
95,161,0,25
95,161,0,24
95,159,0,25
94,159,0,24
94,158,0,24
94,158,0,24
93,157,0,24
93,156,0,24
92,156,0,24
92,155,0,24
92,155,0,24
92,154,0,24
91,153,0,24
91,153,0,23
90,152,0,23
90,152,0,22
89,151,0,23
89,150,0,22
89,150,0,23
89,149,0,22
88,148,0,22
88,147,0,22
88,147,0,22
88,146,0,22
87,146,0,22
87,145,0,22
86,145,0,22
86,144,0,21
86,143,0,21
85,143,0,21
85,142,0,21
85,142,0,21
84,141,0,21
84,141,0,21
84,140,0,21
83,140,0,21
83,139,0,20
83,139,0,21
83,137,0,21
83,137,0,21
82,137,0,20
82,135,0,20
81,135,0,19
81,135,0,20
81,135,0,19
81,134,0,19
80,133,0,19
79,132,0,19
79,132,0,19
79,131,0,19
79,131,0,19
79,131,0,19
78,130,0,19
78,130,0,19
78,129,0,19
78,128,0,19
77,127,0,18
77,127,0,18
77,127,0,19
76,126,0,19
76,126,0,19
76,125,0,18
76,125,0,18
75,124,0,18
75,124,0,18
75,124,0,18
75,123,0,18
75,122,0,18
74,121,0,18
73,121,0,18
73,121,0,17
73,120,0,17
73,120,0,17
73,120,0,17
71,119,0,17
71,119,0,17
71,118,0,17
71,118,0,17
71,117,0,17
71,117,0,16
71,116,0,17
71,115,0,17
70,115,0,16
70,115,0,16
70,114,0,17
69,113,0,21
69,113,0,21
69,113,0,21
69,112,0,21
68,112,0,21
68,112,0,20
67,111,0,20
67,111,0,20
67,110,0,20
67,110,0,20
67,109,0,19
67,109,0,19
67,108,0,20
66,108,0,20
66,108,0,20
65,107,0,20
65,107,0,19
65,107,0,19
65,106,0,19
64,105,0,19
64,105,0,19
64,103,0,19
63,103,0,19
63,103,0,19
63,103,0,19
63,103,0,19
63,103,0,20
63,102,0,20
62,102,0,19
62,101,0,19
62,101,0,19
62,101,0,19
61,100,0,19
61,99,0,19
61,99,0,19
61,99,0,19
61,99,0,18
60,98,0,18
60,98,0,19
60,98,0,19
60,97,0,19
60,97,0,19
59,96,0,19
59,96,0,19
59,96,0,19
59,96,0,19
58,95,0,19
58,94,0,18
58,94,0,18
58,94,0,18
57,94,0,18
57,94,0,18
57,93,0,18
57,93,0,20
56,92,0,20
57,92,0,20
56,92,0,19
