34,119,2,32
34,118,2,32
34,117,2,31
33,117,2,31
34,115,1,31
33,115,2,31
33,115,2,31
32,114,1,31
33,113,2,32
34,113,2,32
34,113,1,31
33,112,2,31
33,112,1,31
33,111,2,31
33,111,2,31
33,110,2,31
32,110,2,30
32,109,2,30
32,109,2,31
31,108,2,30
31,108,1,31
31,107,2,31
31,107,2,31
31,106,2,31
31,105,2,31
31,105,2,31
31,103,2,30
31,103,1,30
31,103,2,30
31,103,1,30
30,103,2,30
31,102,1,30
30,102,1,30
30,101,2,30
30,101,2,29
30,102,1,29
30,102,1,30
30,101,1,29
30,101,1,29
30,100,1,29
29,100,2,29
30,99,1,29
29,99,2,28
29,98,2,28
29,98,1,28
29,97,1,28
28,97,2,28
28,96,2,28
29,96,1,28
30,96,2,28
30,96,1,27
30,95,1,27
30,95,1,27
30,94,1,27
30,94,1,27
29,93,1,27
29,93,2,27
29,93,1,27
29,92,1,27
29,92,1,26
29,92,1,26
29,91,1,26
29,90,1,27
30,90,1,26
30,90,1,25
29,89,1,25
29,89,1,25
29,89,1,25
29,88,2,25
29,88,2,25
28,88,2,25
29,87,2,25
28,87,1,25
28,86,1,24
28,86,1,24
28,86,1,25
29,107,1,24
29,105,2,24
29,105,1,24
29,103,2,24
29,103,2,24
28,103,2,24
28,103,1,24
28,102,2,23
28,102,1,24
28,102,1,23
28,101,2,23
27,100,1,23
27,100,1,23
27,120,2,23
28,119,1,23
28,118,2,23
28,117,1,22
27,117,1,22
28,116,1,22
27,115,1,22
27,115,2,22
27,115,2,22
27,114,2,22
26,113,2,22
26,113,2,22
26,112,2,21
26,112,2,21
26,111,2,21
26,111,2,21
26,110,2,21
25,110,2,21
26,109,1,21
25,108,2,21
25,108,2,21
25,108,2,21
25,107,2,20
24,106,2,20
24,105,2,20
24,105,2,20
25,118,2,20
28,118,2,20
28,118,2,20
27,117,2,20
27,116,2,20
27,115,2,20
27,115,2,19
27,114,2,19
27,114,2,19
27,113,2,19
26,113,2,19
26,112,2,19
26,112,2,19
25,111,2,22
27,110,2,22
27,110,2,21
27,110,2,22
27,109,2,21
26,108,2,21
26,108,2,21
26,108,2,21
26,107,3,21
26,107,2,20
26,106,2,21
25,105,2,20
25,105,2,21
31,105,2,20
38,105,2,20
39,105,2,20
39,103,2,20
39,103,2,19
39,103,2,19
39,103,2,19
39,102,2,19
39,102,2,19
38,101,2,19
38,101,3,19
38,99,3,19
38,99,3,19
38,99,3,19
39,99,2,19
38,98,2,19
38,98,2,19
38,97,2,19
37,97,3,19
37,96,2,19
37,96,5,18
37,96,5,18
37,95,5,18
37,95,5,18
36,94,5,18
36,94,4,18
36,94,5,19
36,93,5,44
35,93,5,44
35,92,5,44
35,92,5,43
35,91,5,42
35,91,4,42
35,91,4,42
35,90,5,42
34,90,5,41
34,89,5,41
34,89,5,41
34,89,5,41
34,170,5,41
56,269,5,40
146,373,5,40
207,399,4,39
206,395,5,39
204,391,4,39
203,390,4,39
202,387,4,39
199,384,4,39
199,382,5,39
199,379,4,39
197,377,4,39
196,374,4,39
195,399,4,38
194,463,4,38
193,459,4,38
192,455,4,37
191,451,4,37
190,449,3,37
189,446,3,37
188,442,4,37
187,440,4,36
187,436,3,36
185,434,4,36
184,431,3,35
184,428,4,35
183,426,4,35
182,423,3,35
181,419,3,35
180,418,4,35
179,415,3,35
178,413,3,35
177,410,3,34
177,408,3,34
176,405,3,34
175,403,3,34
174,399,4,33
173,398,3,33
173,396,3,33
171,393,3,33
171,391,3,33
171,389,3,33
169,412,3,33
169,409,3,32
167,407,3,32
167,403,3,31
167,401,3,31
166,399,3,31
165,397,3,31
164,393,3,31
163,391,3,31
162,389,3,33
162,387,3,32
161,395,3,32
179,393,3,32
179,391,3,31
177,388,3,31
176,385,3,31
176,383,3,31
175,381,3,31
174,379,3,31
173,376,4,31
172,374,3,31
171,373,3,31
170,370,3,31
169,368,3,31
167,366,3,30
167,364,3,30
167,362,3,30
166,359,3,30
165,358,3,30
164,356,3,30
163,355,3,29
163,352,3,29
162,350,3,29
161,348,3,29
160,347,3,39
192,345,3,39
190,344,3,39
189,341,2,39
188,339,3,39
187,337,3,39
186,335,3,39
185,334,3,38
184,333,3,39
184,478,3,38
182,494,3,38
182,490,3,38
180,487,3,38
179,483,2,37
179,480,3,37
179,476,2,37
177,473,2,36
177,615,2,36
176,609,3,36
176,604,3,36
174,600,2,35
173,593,3,35
172,589,2,35
172,585,2,35
171,581,2,35
170,702,2,35
169,853,2,35
167,902,2,34
167,906,2,35
166,893,2,34
166,882,3,34
165,873,2,34
164,864,3,33
163,856,3,33
163,845,3,33
162,837,2,33
161,829,2,33
172,822,2,33
201,812,3,33
199,805,3,33
198,798,2,33
197,792,2,32
196,782,3,32
195,775,2,31
194,769,2,31
193,762,2,31
192,753,2,31
191,748,2,31
190,742,2,31
189,736,2,31
188,728,2,31
187,845,2,31
187,836,2,31
185,828,2,30
184,818,2,30
184,811,3,30
183,803,3,30
182,796,2,30
181,787,3,30
180,779,3,30
179,773,2,29
178,824,2,29
177,813,2,29
176,806,2,29
176,798,2,29
175,792,2,29
174,781,2,29
173,775,3,29
172,768,3,28
172,761,3,28
171,752,3,28
170,747,3,28
169,740,3,28
169,734,3,28
167,727,3,45
188,721,3,44
187,734,3,44
185,728,3,44
185,719,3,44
184,713,3,43
184,708,7,43
182,702,7,42
181,696,7,43
180,690,7,42
179,685,7,42
178,679,7,42
177,673,7,41
177,668,7,41
176,664,7,41
175,659,7,41
174,653,7,41
173,647,7,39
173,643,7,39
171,639,9,40
170,633,9,39
169,629,9,39
169,624,9,39
167,620,9,39
245,615,9,39
250,611,9,39
248,607,9,40
246,603,9,39
245,599,8,39
243,593,9,39
242,590,9,39
240,586,11,39
239,581,11,39
238,577,10,39
237,574,11,38
235,569,11,38
234,620,11,38
233,843,10,38
231,850,10,38
230,839,10,38
229,830,10,37
227,823,10,37
227,812,10,37
225,805,12,36
224,796,12,36
224,788,12,36
222,781,12,35
220,772,12,35
220,765,12,35
219,757,12,35
217,751,11,35
216,743,11,35
216,736,11,35
214,730,11,34
213,723,11,35
211,717,12,34
211,709,12,34
210,704,12,34
209,697,12,34
207,691,12,33
207,686,12,33
206,679,12,34
205,674,11,34
204,668,11,33
203,663,11,33
202,658,11,34
201,652,11,33
199,647,11,33
199,639,12,33
198,636,11,32
197,632,11,32
195,626,11,31
195,622,11,32
193,617,11,31
193,613,11,31
259,607,11,31
304,603,10,31
301,600,11,31
299,594,14,31
297,590,15,30
295,585,15,30
294,581,14,30
291,577,14,30
290,572,14,30
289,569,14,30
287,563,14,30
285,560,14,30
284,556,14,30
282,551,14,29
280,549,14,29
279,544,14,29
278,541,14,29
275,537,14,29
274,534,13,28
273,529,13,28
271,527,13,28
270,524,13,30
268,519,13,30
268,516,13,30
265,512,13,30
263,509,13,30
263,506,13,29
262,503,13,29
260,499,13,29
259,496,13,29
258,493,12,29
255,489,12,29
255,487,12,28
254,484,13,28
252,480,12,29
251,478,12,29
249,475,12,28
248,472,12,28
247,469,12,28
246,466,12,28
245,463,12,27
243,460,12,27
242,458,12,27
241,489,12,28
240,642,12,30
239,806,11,35
237,839,11,35
236,831,11,35
235,821,11,35
233,813,11,35
231,805,11,34
231,796,11,34
230,789,10,34
229,779,10,34
228,773,10,34
227,764,10,33
226,757,10,37
224,751,10,36
224,743,10,36
223,736,10,36
222,729,10,36
221,723,10,35
220,717,10,35
218,710,10,35
222,704,9,35
220,697,9,35
219,691,9,35
219,686,9,35
217,681,9,49
216,675,9,51
216,669,9,51
214,664,9,51
213,659,9,51
212,655,9,50
286,649,9,50
401,644,9,49
489,639,9,49
485,635,9,49
481,629,9,49
478,625,9,48
475,621,9,48
472,770,8,48
468,760,9,48
465,753,8,48
463,745,9,48
460,739,7,48
583,731,8,47
600,725,8,47
664,719,9,46
737,713,7,46
730,705,9,46
723,700,7,46
748,695,7,46
807,689,7,46
799,681,7,46
792,676,7,45
783,671,7,45
776,667,7,45
770,659,7,45
763,655,7,44
755,650,7,44
749,645,7,44
743,639,7,44
736,634,7,44
731,630,7,43
723,625,7,43
719,620,7,43
711,615,7,43
707,611,7,43
702,608,7,42
696,601,7,42
691,598,7,42
685,594,7,41
734,590,7,41
886,585,7,41
881,581,7,41
871,577,7,41
863,574,7,39
855,568,7,41
846,565,7,41
838,561,7,41
830,558,7,39
822,553,7,39
814,550,7,39
807,547,9,39
799,543,9,39
793,539,9,39
785,536,9,39
779,532,9,39
803,529,9,39
795,525,9,39
787,521,9,39
780,519,7,39
773,515,9,39
768,511,9,39
760,508,8,39
754,505,12,38
747,503,12,38
740,499,12,38
734,496,12,38
728,492,12,38
722,489,12,37
716,486,12,39
710,483,11,38
704,480,11,38
699,477,12,38
693,475,11,38
688,471,11,37
682,469,11,37
676,466,11,37
671,463,11,37
666,460,11,37
661,457,11,37
655,455,11,36
651,451,10,36
647,449,10,36
642,447,10,35
637,444,10,35
632,441,11,35
627,438,11,35
623,435,12,35
618,433,12,34
614,431,12,34
609,429,11,34
605,425,11,37
601,423,11,54
597,421,11,60
592,419,11,60
589,415,11,60
584,414,11,59
580,412,11,59
577,409,23,58
573,407,32,58
569,405,31,57
565,402,31,57
561,399,31,57
558,398,31,57
554,396,31,57
551,393,31,56
547,391,30,56
543,390,30,56
540,387,30,56
536,385,30,55
533,382,30,55
529,380,30,54
526,379,30,54
523,376,30,54
519,375,29,54
517,372,29,53
513,371,29,53
510,368,29,53
507,367,28,52
504,365,28,52
500,363,28,52
497,361,28,51
495,359,28,51
492,357,28,51
489,355,27,51
486,353,28,50
483,352,27,50
480,350,28,50
478,348,27,51
475,346,27,50
472,344,26,50
469,343,27,50
467,341,26,49
463,339,26,49
462,337,26,49
459,335,26,49
455,334,25,49
454,332,25,48
451,331,25,48
448,329,25,48
446,327,25,48
444,325,25,47
441,323,24,47
439,322,24,47
436,321,24,47
434,319,24,46
432,318,24,46
429,316,24,46
427,315,24,46
423,313,24,45
423,312,24,45
419,310,24,45
417,308,23,45
415,307,24,44
413,305,23,44
411,304,23,44
409,302,23,44
407,301,23,44
404,299,23,43
403,298,23,43
400,297,22,43
398,295,23,42
396,294,22,42
394,292,22,42
391,291,22,42
390,289,22,41
388,287,22,42
386,287,21,41
384,285,21,41
382,284,21,41
380,282,21,41
378,281,21,41
376,280,21,39
374,278,20,39
372,277,20,39
371,275,20,39
369,274,20,39
367,273,20,39
365,271,19,39
363,271,19,39
361,269,19,39
359,268,19,38
358,267,19,38
356,265,19,38
354,263,19,38
353,263,19,37
351,262,19,38
349,260,19,37
348,259,19,37
345,258,19,37
344,257,18,36
343,255,18,36
341,254,18,36
339,254,18,36
338,252,18,36
335,251,18,35
334,250,17,35
333,248,17,35
331,248,17,35
329,246,17,39
327,245,17,39
327,243,17,38
325,243,17,38
323,242,17,38
322,241,17,38
319,240,16,38
319,239,16,37
318,238,16,37
316,236,16,37
314,235,16,36
313,234,16,37
312,233,16,39
310,231,15,38
309,231,15,38
307,230,15,38
306,229,15,38
304,227,15,38
303,227,15,37
302,226,15,37
300,225,15,36
299,224,15,36
297,223,15,36
295,222,15,36
295,221,15,35
293,220,14,36
291,219,14,35
291,218,15,35
289,217,14,35
287,216,14,35
287,216,14,35
286,214,14,35
284,213,14,34
283,212,14,34
281,211,14,34
280,211,13,35
279,209,13,35
278,208,13,35
276,207,13,35
275,207,13,34
274,206,13,34
273,205,13,34
271,204,13,34
270,203,13,33
269,202,13,33
268,201,13,33
267,199,13,33
265,199,13,33
263,199,12,32
263,198,12,32
262,197,12,32
261,196,12,31
260,195,12,31
259,194,12,31
257,193,12,31
255,192,12,31
255,192,12,31
254,191,12,31
253,190,12,31
252,189,11,31
251,188,11,30
249,188,11,31
249,187,11,31
248,186,11,30
246,185,11,30
245,184,11,30
244,184,11,29
243,183,11,29
243,182,11,30
241,181,10,29
240,180,11,30
239,179,10,30
238,179,10,30
237,178,11,30
236,177,10,30
235,177,10,29
234,176,10,29
233,175,10,29
231,174,10,29
231,174,10,28
230,173,9,28
229,172,9,28
228,297,9,28
227,367,9,28
226,364,9,28
225,361,9,28
224,358,9,28
224,356,9,27
223,354,9,27
222,352,9,27
221,350,9,27
220,347,9,27
219,345,9,27
218,344,9,27
217,341,9,26
217,339,9,27
216,337,9,26
215,335,7,26
214,334,9,26
213,332,9,26
212,330,7,25
211,327,9,25
211,326,7,25
209,324,8,25
209,323,8,25
207,321,7,25
207,319,7,25
207,317,7,25
206,316,7,25
205,315,7,25
204,313,7,25
203,312,7,24
202,310,7,24
201,308,7,24
201,307,7,24
199,304,7,24
199,303,7,24
198,302,7,24
198,300,7,24
197,298,7,24
196,297,7,23
195,295,7,24
195,294,7,23
193,291,7,23
193,290,7,23
192,289,7,23
192,287,7,22
191,286,7,23
190,284,7,22
189,283,7,22
188,282,7,22
188,280,7,22
187,332,7,25
186,335,7,25
185,332,7,24
185,330,7,25
184,327,6,24
184,326,6,25
182,324,6,24
182,322,6,24
181,319,6,24
180,318,6,24
179,316,6,24
179,315,6,24
178,313,6,25
177,312,6,25
177,309,6,25
176,307,6,24
176,306,6,24
175,304,6,24
174,303,6,24
174,300,6,24
173,299,6,24
172,297,5,24
171,295,5,24
171,294,5,24
170,293,5,24
169,291,6,24
169,290,5,23
167,287,5,23
167,287,5,23
167,285,5,22
166,284,5,22
166,282,5,22
165,281,5,22
164,280,5,22
163,278,5,22
163,275,5,22
162,275,5,24
162,273,5,24
161,271,5,24
161,271,5,24
159,269,4,24
159,268,4,24
159,267,4,24
158,265,4,24
158,263,4,23
157,263,5,23
156,261,4,23
156,260,4,23
155,259,4,23
155,257,5,22
154,255,4,23
153,255,4,23
153,254,4,22
152,252,4,22
152,251,4,22
152,250,4,22
150,248,4,22
150,248,4,22
149,246,3,21
149,245,3,21
148,243,4,21
147,243,4,21
147,241,3,21
147,240,4,21
146,239,3,21
145,238,4,20
145,237,3,20
143,236,3,20
143,235,3,20
143,233,3,20
143,231,3,20
142,231,3,19
142,231,3,20
141,229,3,19
141,228,3,19
140,227,3,19
139,226,3,19
139,225,3,19
138,224,3,19
137,223,3,19
137,222,3,19
135,221,3,19
135,220,3,19
135,219,3,19
135,218,3,18
135,216,3,18
135,268,3,19
134,384,3,19
133,413,3,19
132,411,3,19
132,408,3,19
131,405,2,19
131,402,3,19
131,399,2,19
130,397,3,18
130,395,2,19
129,391,3,18
128,390,3,18
128,387,3,18
127,385,3,19
127,382,3,18
126,380,3,18
126,378,2,18
126,376,2,17
125,373,3,18
125,371,2,17
124,369,3,17
124,367,3,17
123,365,3,17
123,363,2,17
123,359,2,17
122,359,3,17
121,357,2,17
121,355,2,17
121,353,3,17
120,351,2,17
120,349,2,17
119,347,3,17
119,345,3,17
119,344,3,16
118,341,3,17
117,339,3,17
117,337,3,16
117,335,3,16
116,334,3,16
115,332,3,15
115,330,3,16
115,327,2,15
114,327,3,15
114,325,3,15
113,323,3,15
113,321,3,15
113,319,2,15
112,318,3,15
111,316,3,15
111,315,3,15
111,313,3,15
132,312,3,15
131,310,3,15
130,308,2,15
130,307,3,15
129,305,2,15
128,304,3,15
127,302,3,14
127,300,2,14
126,299,3,14
126,297,2,14
125,295,2,14
125,295,3,14
127,292,3,14
127,291,2,14
126,290,2,14
125,288,2,13
125,287,2,13
124,285,2,13
124,284,2,13
123,283,2,13
122,281,2,13
121,280,2,13
121,279,2,13
121,277,2,13
140,275,2,14
140,274,2,13
140,273,2,13
139,271,2,14
139,270,2,13
137,269,2,13
137,268,2,13
135,266,2,13
135,265,2,13
135,263,2,13
134,263,2,13
134,261,2,13
132,260,2,12
131,258,2,13
131,257,2,12
130,255,2,12
130,255,2,12
129,253,2,12
129,252,2,12
127,251,2,12
127,250,2,12
127,249,2,12
126,248,2,12
126,247,2,12
125,245,2,12
124,243,2,12
124,243,2,12
123,242,2,12
122,241,2,11
122,239,2,11
121,239,2,11
121,237,2,11
120,236,2,11
120,235,2,11
120,234,2,11
119,233,2,11
118,231,1,11
118,231,2,13
118,230,1,13
117,229,2,13
117,227,2,13
115,226,1,13
115,225,2,13
115,224,2,13
114,224,2,13
114,222,2,13
113,221,2,12
113,220,2,12
113,219,1,13
112,218,2,13
111,217,2,13
111,216,1,13
110,216,2,13
110,214,1,12
110,213,2,12
109,212,2,12
109,211,2,12
108,210,1,12
108,209,2,12
108,208,1,12
107,207,1,12
107,207,1,12
147,206,2,16
147,205,1,16
146,204,1,15
145,203,1,15
144,202,1,15
143,201,1,15
143,199,1,15
142,199,2,15
141,199,1,15
141,198,1,15
140,197,1,15
139,195,1,15
139,195,2,15
137,194,1,15
137,193,1,15
136,193,1,14
135,192,1,14
135,191,1,14
135,190,1,14
134,189,1,14
133,188,1,14
132,187,1,14
131,187,1,14
131,186,1,14
131,185,1,14
130,184,1,15
129,184,1,15
129,183,1,15
127,182,1,15
127,181,1,15
127,180,1,14
126,179,1,14
126,178,1,14
125,178,1,14
124,177,1,14
124,176,1,14
123,176,1,14
123,175,1,14
122,174,1,14
121,173,1,14
121,172,1,14
120,172,1,13
120,172,1,13
119,171,1,13
118,170,1,13
118,169,1,13
118,167,1,13
117,167,1,13
116,167,1,13
115,167,1,14
115,166,1,14
115,165,0,13
114,164,1,14
114,163,1,14
113,163,1,14
112,162,1,14
112,161,1,13
111,161,1,13
111,160,1,13
111,159,1,13
110,159,1,13
109,158,1,13
109,158,1,13
115,157,1,12
115,156,0,13
115,156,1,13
114,155,1,12
113,155,1,12
113,154,0,12
112,153,0,12
112,153,1,12
111,152,0,12
111,152,0,12
110,151,1,12
110,150,0,12
110,150,0,12
109,149,1,12
109,148,1,12
108,147,1,12
108,147,1,11
107,146,1,11
107,146,1,11
106,145,0,11
106,144,1,11
105,144,0,11
105,143,0,11
105,143,1,11
103,142,0,11
103,142,1,11
103,141,0,11
103,141,1,11
102,140,0,11
102,140,0,11
102,139,0,11
101,138,0,11
101,137,0,10
100,137,0,11
100,137,1,10
99,137,0,10
99,135,1,11
99,135,0,11
98,135,0,11
98,134,0,10
97,134,0,10
97,133,0,11
97,133,1,10
97,132,0,10
96,131,0,10
96,131,0,10
96,131,0,10
96,130,0,10
95,130,0,10
94,129,0,14
94,129,0,14
94,128,0,13
94,127,0,13
93,127,0,13
93,127,0,13
92,126,0,14
92,126,0,13
92,125,0,13
91,125,0,13
92,124,0,13
91,124,0,13
91,123,0,13
90,123,0,12
90,123,0,12
89,122,0,12
89,121,0,12
89,121,0,13
89,121,0,12
88,120,0,12
88,120,0,12
88,119,0,12
87,119,0,12
87,118,1,12
87,118,0,12
87,117,1,12
86,117,0,16
86,116,0,16
86,116,0,16
85,115,1,15
85,115,1,16
84,115,1,16
84,114,0,15
83,114,0,15
83,113,0,15
83,113,0,15
83,113,0,15
82,112,0,15
82,112,0,15
82,111,0,15
82,111,0,15
82,111,0,15
81,110,0,15
81,110,0,15
80,109,0,15
79,109,0,15
79,109,0,14
79,108,0,14
79,108,0,14
79,107,0,14
79,107,0,14
78,107,0,14
78,106,0,14
78,106,0,14
78,105,0,14
77,105,0,14
77,105,0,14
77,103,0,14
76,103,0,14
76,103,0,14
76,103,0,14
76,103,0,13
76,102,0,13
75,101,0,13
75,102,0,13
75,101,0,13
75,101,0,13
74,100,0,13
73,100,0,13
73,99,0,13
73,99,0,13
73,99,0,12
73,98,0,13
71,98,0,12
71,97,0,13
71,97,0,12
71,97,0,13
71,97,0,12
71,96,0,12
71,96,0,12
71,96,0,12
71,96,0,12
71,95,0,12
71,94,0,12
71,94,0,12
70,94,0,12
70,94,0,12
70,94,0,12
70,93,0,12
70,92,0,12
69,92,0,12
69,92,0,12
68,92,0,11
69,91,0,12
69,91,0,12
68,91,0,12
68,91,0,12
68,90,0,12
67,89,0,11
67,89,0,11
67,89,0,11
67,89,0,11
67,89,0,11
67,88,0,11
66,88,0,11
66,88,0,11
66,88,0,11
66,87,0,12
65,87,0,12
65,87,0,12
65,86,0,12
64,86,0,12
64,85,0,12
63,85,0,12
63,85,0,12
63,84,0,12
63,84,0,12
63,84,0,12
63,83,0,12
63,83,0,12
62,83,0,11
71,83,0,12
71,83,0,12
71,82,0,12
71,82,0,12
71,81,0,12
70,81,0,12
70,81,0,11
70,81,0,12
69,80,0,11
69,80,0,11
69,79,0,12
69,79,0,11
68,79,0,11
67,79,0,11
68,79,0,11
68,78,0,11
67,78,0,11
67,78,0,11
67,78,0,11
67,77,0,11
66,77,0,10
66,77,0,11
66,76,0,10
66,76,0,10
65,76,0,10
65,76,0,10
65,76,0,10
64,75,0,11
69,75,0,12
68,75,0,11
67,74,0,11
67,74,0,11
67,74,0,11
67,73,0,11
67,73,0,11
66,73,0,11
66,73,0,11
66,72,0,11
65,71,0,10
65,71,0,11
65,71,0,10
65,71,0,29
66,71,0,29
66,71,0,28
65,71,0,28
65,70,0,28
65,70,0,28
65,70,0,28
65,70,0,28
64,69,0,27
63,69,0,27
63,69,0,27
63,69,0,27
63,68,0,27
63,68,0,26
65,68,0,26
69,68,0,26
68,67,0,26
68,67,0,26
67,67,0,26
67,67,0,25
67,67,0,25
67,66,0,25
66,66,0,25
66,66,0,25
66,65,0,25
65,65,0,25
65,65,0,25
65,65,0,24
71,65,0,25
73,64,0,25
71,64,0,25
71,63,0,25
71,63,0,24
71,63,0,24
71,63,0,24
70,63,0,24
70,63,0,24
69,62,0,24
69,62,0,24
69,62,0,24
69,62,0,24
68,62,0,23
69,61,0,24
69,61,0,24
67,61,0,24
68,60,0,24
67,61,0,23
67,60,0,24
67,60,0,23
67,60,0,23
66,60,0,23
66,59,0,23
66,59,0,23
65,59,0,22
65,59,0,22
65,59,0,22
64,59,0,23
64,58,0,22
64,57,0,22
63,57,0,22
63,57,0,22
63,58,0,22
63,57,0,22
63,57,0,21
62,57,0,22
62,57,0,21
62,56,0,21
61,56,0,21
61,56,0,21
61,56,0,23
75,56,0,23
75,56,0,23
74,55,0,23
74,55,0,23
73,55,0,22
73,55,0,22
73,54,0,22
73,54,0,22
71,54,0,22
71,54,0,21
71,54,0,22
71,53,0,21
71,53,0,21
70,53,0,21
71,53,0,21
70,52,0,21
70,52,0,21
70,52,0,21
69,52,0,20
69,51,0,20
69,51,0,20
68,51,0,21
68,51,0,20
67,51,0,20
67,51,0,20
67,51,0,19
67,50,0,19
67,50,0,20
67,50,0,20
66,50,0,19
66,49,0,19
66,50,0,19
65,49,0,19
65,49,0,19
65,49,0,19
65,49,0,19
64,48,0,19
64,48,0,18
63,48,0,19
63,48,0,18
63,48,0,18
63,48,0,19
63,48,0,18
62,47,0,18
62,47,0,18
62,47,0,18
62,47,0,18
61,47,0,18
61,46,0,18
61,46,0,18
60,46,0,17
60,46,0,17
60,46,0,17
60,46,0,17
60,45,0,21
70,45,0,28
71,45,0,27
70,45,0,27
70,45,0,27
69,45,0,27
69,44,0,27
69,44,0,26
68,44,0,27
68,44,0,27
67,44,0,26
67,44,0,26
67,44,0,26
67,44,0,25
66,43,0,25
67,43,0,25
67,43,0,25
66,43,0,25
66,43,0,25
65,42,0,25
65,43,0,25
65,42,1,24
65,42,1,25
64,41,0,24
64,41,0,24
63,41,0,24
63,41,1,24
63,41,0,26
63,41,1,35
63,41,1,35
63,40,0,35
63,40,1,35
63,39,1,35
62,39,0,34
62,39,0,34
62,39,0,34
61,39,0,34
61,39,0,33
61,39,0,33
61,39,0,33
60,39,0,33
60,39,0,33
62,39,1,33
71,38,0,33
71,39,0,33
71,38,0,33
71,38,0,33
70,38,0,32
70,38,0,32
70,38,0,31
70,38,1,31
69,38,0,31
69,37,0,31
69,37,0,31
68,37,0,31
68,37,0,31
67,37,0,31
69,36,0,31
68,37,0,31
68,36,0,31
67,36,0,31
67,35,0,31
67,36,1,30
67,36,0,30
67,35,0,30
66,35,0,30
66,35,1,30
66,35,1,30
65,35,1,30
65,35,0,30
64,35,0,29
66,35,0,29
66,34,0,29
65,34,0,29
65,34,0,29
64,34,1,28
64,34,1,28
64,34,1,28
63,34,0,28
63,33,1,28
63,34,0,28
63,33,1,28
63,33,0,28
62,33,0,28
63,33,0,27
63,33,0,28
63,33,0,27
63,32,0,27
63,32,0,27
62,32,0,27
62,32,0,27
62,31,1,27
62,31,1,26
61,31,1,26
61,31,1,26
61,31,0,26
61,31,1,25
60,31,1,26
88,31,1,26
95,31,1,26
94,31,1,26
94,31,0,25
93,30,0,25
93,31,1,25
92,30,0,25
92,30,1,25
92,30,0,25
91,30,0,25
91,30,0,25
90,30,0,25
89,30,0,24
89,30,1,24
89,29,0,24
88,29,0,24
88,29,0,24
88,29,0,24
87,29,0,24
87,29,0,24
87,29,1,24
86,29,1,24
86,29,1,24
85,29,0,23
85,28,0,24
84,28,0,24
84,28,0,23
83,28,1,22
83,28,0,24
83,28,0,22
83,28,1,23
82,28,0,22
82,28,0,22
81,28,0,22
81,27,2,22
81,27,2,22
80,27,3,22
80,27,2,22
79,27,2,21
79,27,2,21
79,27,2,21
79,27,2,29
78,27,2,29
78,26,2,29
77,26,2,28
77,26,2,28
77,26,2,28
76,26,2,28
76,26,2,28
76,25,2,27
76,25,2,27
75,25,2,27
76,25,2,27
75,25,2,27
74,25,1,27
74,25,2,27
73,25,2,27
73,25,1,27
73,25,1,27
73,24,1,26
71,24,1,26
71,24,1,26
71,24,2,26
71,24,2,26
71,24,2,26
71,24,1,25
71,24,1,25
70,24,1,25
70,24,1,26
70,24,2,38
69,24,1,38
69,24,1,38
69,24,1,38
68,24,1,38
68,23,1,38
67,23,1,38
67,23,1,37
67,23,1,37
67,23,1,37
67,23,1,36
66,23,1,36
66,23,1,36
66,22,1,36
65,22,1,36
65,22,1,35
65,22,1,35
65,22,1,35
65,22,1,35
63,22,1,35
63,22,1,35
63,22,1,35
63,22,1,34
63,21,1,34
63,21,1,34
62,21,1,34
62,21,1,34
62,21,1,34
63,21,1,34
63,21,1,33
62,21,1,33
62,21,1,33
61,21,1,33
61,21,1,32
61,20,1,32
61,20,1,32
61,20,1,31
61,20,1,31
60,19,1,31
60,20,1,31
60,19,1,31
60,20,1,31
70,19,1,31
69,19,1,31
69,19,1,31
68,19,1,31
68,19,0,30
67,19,1,30
67,19,1,30
67,19,1,30
67,19,1,30
67,19,1,30
66,19,0,30
66,19,1,29
65,19,1,29
65,19,1,30
65,19,0,29
65,18,0,29
64,18,1,29
63,18,0,29
63,18,0,29
63,18,0,29
63,18,1,29
62,18,1,28
63,18,1,28
62,18,0,28
62,18,1,28
62,18,1,28
62,17,1,28
61,17,1,28
61,17,1,28
61,18,0,28
61,17,1,27
60,17,1,27
60,17,1,27
60,17,1,27
60,17,1,27
59,17,1,27
59,17,0,27
59,17,0,27
58,16,0,26
58,17,0,26
58,17,1,26
63,17,1,26
70,16,1,26
69,16,0,26
69,16,1,25
69,16,0,25
68,16,1,25
68,16,0,25
67,15,1,25
67,15,0,25
67,16,0,25
67,16,0,24
66,15,0,25
66,15,0,25
66,15,0,24
91,15,0,24
91,15,0,24
90,15,0,24
90,15,0,24
89,15,0,24
89,15,0,24
89,15,0,24
88,15,0,24
88,14,0,23
87,15,0,23
87,15,0,23
87,15,0,23
86,15,0,23
85,14,0,22
92,14,0,23
92,14,0,22
92,14,0,22
91,14,0,22
91,14,0,22
90,14,0,22
90,14,0,22
89,14,0,22
89,14,0,22
88,14,0,22
88,14,0,21
88,14,0,21
88,14,0,22
88,13,0,21
93,14,0,22
93,13,0,21
93,13,0,22
92,13,1,21
92,13,0,21
91,13,0,21
91,13,0,21
90,13,0,21
90,13,0,21
90,13,0,21
89,13,0,20
89,13,0,20
88,13,0,20
88,13,0,22
88,12,0,21
88,12,0,21
87,12,0,21
86,12,0,21
86,13,0,21
86,12,0,21
86,12,0,21
85,12,0,20
85,12,0,20
83,12,0,20
84,12,0,20
83,12,0,20
83,12,0,20
83,12,0,23
84,12,0,22
84,12,0,22
83,12,0,23
83,12,0,22
82,12,0,22
83,12,0,22
82,12,0,22
81,11,1,22
81,11,0,22
81,12,0,21
80,12,0,21
79,12,0,21
79,11,0,21
79,12,0,24
79,12,0,24
79,12,0,24
78,12,0,24
78,12,0,24
78,12,1,24
78,12,0,24
77,12,1,24
77,12,0,24
77,12,1,23
76,12,0,23
76,12,1,23
76,11,1,23
76,12,1,22
76,12,1,23
75,12,1,22
75,12,1,23
75,12,1,22
75,12,1,22
74,12,1,22
74,11,1,22
73,11,1,22
73,12,0,21
73,12,1,21
71,11,1,21
71,11,1,21
71,11,1,21
71,11,1,22
93,11,1,21
94,11,0,20
93,11,1,20
92,11,1,21
92,11,0,21
91,11,1,20
91,11,1,20
91,11,1,20
90,11,1,20
90,11,1,20
89,11,1,20
89,10,1,20
88,10,1,19
88,10,1,20
90,12,1,21
89,12,1,20
89,12,1,20
89,12,1,20
88,12,1,20
88,12,1,20
88,12,1,19
87,12,1,19
86,12,1,19
86,12,1,19
86,12,1,19
85,12,1,19
85,12,1,19
85,12,1,21
85,29,1,21
85,29,1,20
84,28,1,21
83,28,1,21
83,28,1,20
83,28,1,20
83,28,2,20
82,28,1,20
82,27,1,20
81,27,1,19
81,27,1,19
81,27,1,19
81,27,2,19
80,29,1,19
79,29,1,19
79,29,2,19
79,29,1,19
79,29,1,19
79,29,1,20
78,28,2,19
78,28,2,19
77,28,2,19
77,28,2,19
77,28,2,19
76,28,2,19
76,28,2,19
76,27,2,19
76,28,2,18
76,28,2,18
76,27,2,18
76,27,2,18
76,27,2,18
75,27,2,18
75,27,2,18
74,26,2,18
74,26,3,17
74,26,2,17
73,26,2,18
73,26,2,17
73,26,2,17
72,25,3,17
71,25,2,17
71,28,2,17
71,28,2,17
71,28,2,17
71,28,2,17
71,27,2,16
71,27,2,17
70,27,2,17
70,27,2,16
70,27,2,17
69,27,2,16
68,27,2,16
69,27,2,16
68,26,2,36
69,30,2,39
68,30,2,39
68,30,2,39
68,29,2,39
67,29,2,39
67,29,2,38
67,29,2,38
67,29,2,38
66,29,2,38
66,28,2,38
66,28,2,37
65,28,2,37
65,28,2,37
65,28,2,37
66,29,2,37
65,28,2,36
65,28,2,36
65,28,2,36
64,28,2,36
64,28,2,36
63,27,2,35
63,27,2,35
63,27,2,35
63,27,2,35
62,27,2,35
62,27,2,35
62,26,2,35
62,27,2,35
76,30,2,34
75,30,2,34
75,30,2,34
74,30,2,34
74,29,2,33
74,29,2,33
73,29,2,33
73,29,2,33
73,28,2,33
71,28,2,33
71,28,2,33
71,28,2,32
71,28,2,32
71,35,2,31
76,35,2,31
75,35,2,31
75,35,2,31
74,35,2,31
74,34,1,31
73,34,2,31
73,34,2,31
73,34,2,31
72,33,2,30
71,33,2,30
71,33,2,31
71,33,2,30
71,33,2,30
71,37,2,30
74,38,2,30
