64,83,5,3
63,82,4,2
63,82,5,3
63,82,5,3
63,81,5,3
63,81,4,2
62,82,4,3
70,87,4,3
71,87,5,3
70,86,4,3
70,85,4,2
69,85,4,2
69,85,4,3
69,85,5,3
68,83,6,3
68,83,6,3
68,83,6,3
67,83,6,3
67,82,6,3
67,82,5,3
67,81,5,3
66,85,5,3
68,88,5,3
67,88,5,3
67,87,5,3
67,87,5,3
67,86,5,2
66,86,5,3
66,86,5,3
66,85,5,2
66,85,5,2
65,84,5,2
65,84,5,2
64,83,5,3
64,83,5,2
63,83,5,2
65,85,5,2
67,85,5,3
67,84,5,2
67,84,4,2
67,83,5,2
66,83,4,3
66,83,4,2
66,82,6,2
65,82,5,2
65,82,5,2
65,81,6,2
65,81,5,2
64,80,5,2
63,80,5,2
63,79,5,2
68,83,5,2
71,83,5,2
71,82,5,2
71,82,5,2
71,81,5,2
71,81,5,2
70,81,9,2
70,80,15,2
69,80,17,2
69,79,17,2
68,79,17,2
68,79,17,2
68,79,17,2
68,78,16,2
68,81,16,2
70,81,16,2
69,81,16,2
69,80,16,2
69,79,16,2
68,79,16,2
68,79,15,2
67,79,15,2
67,78,15,3
67,78,15,2
67,78,15,2
67,78,15,3
66,77,15,3
66,77,15,2
68,88,15,2
69,87,15,2
68,87,15,2
67,86,15,2
67,86,15,2
67,85,14,2
67,85,14,3
67,84,15,3
66,84,14,2
66,83,14,2
65,83,14,2
65,83,14,2
65,83,14,2
65,83,14,2
73,92,14,2
73,91,14,2
71,91,14,2
71,91,14,2
71,89,13,2
71,89,14,2
71,89,14,2
70,88,14,3
70,88,13,2
70,88,13,2
69,87,13,2
69,87,13,2
69,86,13,2
68,89,13,2
71,103,13,2
71,103,13,2
71,103,13,2
71,102,13,2
71,101,13,2
70,101,13,2
70,100,13,2
70,100,13,2
69,99,12,2
69,98,12,2
69,98,12,2
68,98,12,2
68,97,12,2
73,100,12,2
71,100,12,2
71,99,12,2
71,99,12,2
71,98,12,2
71,98,12,2
71,98,12,3
70,97,12,2
70,97,12,2
70,97,11,2
69,96,12,3
69,96,11,2
68,95,11,2
68,95,11,2
70,98,11,2
70,97,11,2
70,96,11,2
69,96,11,2
69,96,10,2
68,96,11,3
68,94,12,3
68,94,12,3
67,94,12,3
67,93,12,4
67,93,11,3
67,92,11,3
66,92,11,3
66,137,11,3
69,236,11,3
69,270,11,3
68,268,11,3
68,266,11,3
67,263,11,3
67,262,11,3
67,261,11,4
67,259,11,3
66,258,10,3
66,257,11,3
66,255,10,3
65,254,11,3
65,253,10,3
65,252,10,3
65,250,10,3
65,249,10,3
64,248,10,3
63,246,10,3
63,245,10,3
63,243,10,3
63,242,10,3
62,241,10,3
62,240,10,3
62,239,9,3
62,238,10,3
96,237,9,3
175,236,9,3
175,234,10,3
173,233,9,3
172,231,9,3
172,231,9,3
171,230,9,3
169,228,9,3
169,227,9,3
167,227,9,3
167,225,9,3
166,224,9,3
166,223,9,3
165,222,9,3
164,221,9,3
163,220,9,3
162,219,9,3
162,218,9,3
161,217,9,3
159,216,9,3
159,215,9,3
158,214,9,3
158,213,9,3
157,212,9,3
156,211,7,3
156,210,9,3
155,209,8,3
175,292,7,3
197,301,7,3
195,299,7,3
194,297,7,3
193,295,7,3
192,294,7,3
191,291,13,4
190,289,13,4
189,287,13,4
188,286,13,4
187,285,13,4
186,283,13,3
185,281,13,4
201,280,12,3
199,279,13,3
198,384,12,3
197,403,13,3
196,399,12,3
195,398,12,4
194,394,12,3
193,391,12,3
192,390,12,4
192,387,12,4
190,384,12,3
240,382,12,4
319,380,12,4
317,378,12,3
315,375,12,3
313,399,11,3
311,522,11,4
309,544,11,3
307,659,11,4
305,678,11,3
304,671,11,3
302,665,11,3
300,659,11,3
299,654,11,3
297,648,11,3
295,643,11,3
294,637,11,3
293,632,11,3
291,627,10,3
290,623,11,3
287,617,10,3
287,612,10,4
285,608,10,3
284,604,10,3
282,599,11,3
281,594,10,3
280,590,10,3
279,586,10,3
277,581,10,4
275,577,10,3
274,573,10,3
272,569,9,3
271,566,9,4
270,562,10,4
268,557,10,5
267,553,10,4
266,550,10,4
263,547,9,4
263,542,9,4
262,539,9,5
261,536,9,4
259,532,9,4
258,529,9,4
257,526,9,3
255,523,9,6
255,519,9,6
254,517,10,6
252,513,10,6
251,509,9,6
250,506,9,5
249,503,9,5
248,500,9,5
247,537,9,6
246,696,9,5
245,751,9,5
243,823,9,5
243,899,9,5
241,908,9,5
240,911,9,6
239,911,9,6
238,900,9,6
237,886,9,6
236,877,9,6
235,868,9,6
234,860,9,6
233,852,9,5
231,844,9,6
231,836,9,6
230,828,9,6
229,821,9,5
227,814,9,6
227,807,11,7
226,797,11,7
225,791,11,6
224,783,11,7
223,777,10,7
222,768,11,7
221,762,10,6
220,755,11,6
219,749,10,7
217,884,10,6
217,905,10,6
216,910,10,6
215,914,10,6
214,917,10,6
213,919,10,6
212,920,9,6
211,921,10,6
210,922,9,6
209,921,9,6
259,910,9,6
256,889,9,6
255,880,9,5
254,871,9,7
252,863,9,6
251,856,9,7
249,847,9,8
249,839,9,7
248,831,9,7
247,824,9,7
245,817,9,8
243,810,9,7
242,803,9,7
243,795,9,7
284,787,9,7
294,781,9,7
292,774,9,7
290,768,9,7
289,761,9,7
287,755,10,9
286,749,10,10
284,741,10,9
283,735,10,9
281,729,10,9
280,723,10,9
278,716,9,10
276,711,9,9
275,705,9,9
274,700,9,9
273,696,9,9
271,690,9,9
270,685,9,9
269,679,10,10
268,673,10,10
265,668,10,10
263,662,10,9
263,658,9,10
262,653,9,10
261,648,9,10
259,643,9,9
258,638,9,9
256,633,9,9
255,629,9,9
254,625,9,9
253,621,9,10
252,617,10,11
250,611,10,12
249,607,9,11
248,603,9,11
247,600,9,11
245,594,9,10
244,590,9,10
243,587,9,10
242,583,9,10
241,578,9,10
240,574,9,10
238,571,9,10
237,568,9,11
236,563,9,12
235,559,9,11
234,556,9,11
233,551,9,11
231,547,9,11
231,544,9,11
230,541,9,11
228,538,7,11
227,534,8,10
226,531,7,12
225,527,7,13
224,524,9,17
223,521,10,19
222,518,10,18
221,513,9,19
220,510,10,18
219,508,9,18
217,505,10,18
217,501,9,18
216,498,9,18
215,496,9,18
214,492,9,18
213,489,9,28
212,486,11,39
211,483,13,39
210,480,12,39
209,478,13,39
207,473,13,38
207,472,12,38
206,468,12,38
305,466,12,38
397,463,12,37
391,460,12,37
389,457,12,37
387,455,12,36
384,452,16,37
381,449,16,37
379,447,15,36
376,444,15,36
375,441,15,36
372,439,15,35
370,435,15,35
368,434,15,35
365,432,15,35
363,428,15,35
361,427,15,35
359,423,15,35
357,421,15,36
355,419,14,36
353,417,14,36
351,415,14,36
349,412,14,35
347,409,14,35
345,467,14,35
344,465,14,35
341,462,14,35
339,457,14,35
337,455,14,35
335,451,14,34
334,448,13,34
332,446,13,34
331,442,13,33
327,440,13,34
327,436,13,33
325,433,13,33
323,509,13,33
321,505,12,33
319,501,12,33
318,497,12,32
316,493,13,32
315,489,12,31
313,486,13,31
312,483,12,31
310,479,12,31
309,476,12,31
307,472,12,31
305,503,12,31
304,706,12,30
302,729,12,31
300,721,11,30
299,713,11,30
297,707,11,30
295,699,11,30
295,694,11,30
293,687,12,30
291,681,12,29
291,676,11,29
289,669,12,29
287,664,11,29
286,657,11,29
284,652,11,29
283,647,11,28
281,641,11,28
280,636,11,28
279,631,11,28
277,626,11,28
275,620,11,28
274,615,10,27
273,611,10,27
271,606,10,27
271,601,10,27
269,596,10,27
268,591,10,27
267,588,10,26
265,583,10,26
263,579,9,26
263,574,10,26
262,570,10,25
260,567,10,26
259,562,10,26
258,558,10,25
255,553,10,25
255,550,9,25
254,546,9,25
253,542,9,25
252,539,9,24
251,536,9,25
249,531,9,24
248,529,9,24
248,524,9,24
246,521,9,24
245,518,9,24
243,515,9,24
243,511,9,24
241,635,9,23
241,799,9,24
239,860,9,23
238,849,8,23
237,840,7,24
298,831,9,23
425,825,12,23
455,814,13,23
451,807,13,23
448,797,13,22
445,790,12,22
442,781,12,22
440,774,12,22
435,768,12,22
433,759,12,21
431,752,12,21
428,743,12,21
425,738,12,21
423,732,16,21
540,724,18,21
551,719,18,21
546,711,18,20
542,705,18,20
538,699,17,20
534,693,17,20
530,688,17,20
526,681,17,20
523,675,17,20
519,669,17,19
515,665,17,19
511,659,17,19
508,653,17,19
504,649,17,19
501,643,16,19
498,638,16,19
495,632,16,19
491,627,16,19
487,624,15,19
485,618,16,18
482,614,16,19
479,608,16,28
476,604,15,51
473,600,15,60
470,595,15,64
547,591,15,65
542,587,15,63
537,583,15,63
534,578,15,63
529,574,15,62
526,570,15,63
522,566,15,62
519,562,15,62
515,557,14,61
511,554,15,61
507,551,16,60
504,546,15,60
501,543,15,60
497,538,15,59
494,536,15,59
491,531,15,59
487,527,15,59
484,524,15,58
481,519,15,57
478,517,15,57
475,513,14,57
472,510,17,57
469,507,17,56
466,503,17,56
463,500,17,56
461,496,17,56
457,494,17,56
455,490,17,55
452,487,17,55
449,484,16,55
447,481,16,55
444,478,16,54
441,475,17,54
440,472,17,54
436,470,18,53
434,466,17,53
431,463,17,53
429,460,17,52
427,458,17,52
423,455,16,51
422,452,16,51
419,450,16,55
417,447,16,58
415,444,16,60
412,441,16,62
409,440,16,61
408,437,16,61
405,434,16,61
403,432,16,60
401,428,16,60
399,427,15,60
396,423,15,59
394,422,15,59
391,419,15,59
390,415,15,58
387,414,15,58
385,412,16,57
384,409,17,57
381,408,17,57
379,405,17,57
377,403,17,57
376,399,17,56
373,399,17,56
371,396,16,56
369,393,16,56
368,391,16,55
365,389,16,55
364,387,16,55
361,385,16,54
359,383,16,54
358,381,16,54
356,379,16,53
354,377,16,53
353,375,15,52
351,373,15,52
349,371,15,51
347,369,15,51
345,367,15,51
344,365,15,51
342,363,15,51
340,361,15,51
339,359,15,50
336,358,15,50
335,355,15,50
333,354,15,50
332,352,14,49
330,350,14,49
327,348,14,49
327,347,14,49
325,345,14,48
323,344,14,48
322,341,18,48
319,339,22,48
319,338,21,47
317,336,21,47
316,334,21,47
315,333,21,47
313,331,20,47
311,329,20,46
310,327,20,46
308,326,19,46
307,325,20,46
305,323,19,45
304,321,20,45
302,319,23,44
301,318,23,45
300,316,23,44
297,315,22,44
295,313,22,44
295,312,22,44
294,311,22,44
292,309,22,44
291,307,22,43
289,306,22,43
287,304,22,43
287,303,22,42
285,301,21,42
284,300,21,42
283,298,21,41
281,296,21,41
280,295,20,41
278,294,21,41
277,293,21,41
276,291,20,41
275,290,20,40
273,288,20,39
271,287,20,39
271,286,23,39
270,284,23,39
269,283,23,39
267,281,23,39
266,280,22,39
265,280,22,39
263,277,22,39
262,276,22,38
261,275,22,38
260,273,21,38
259,272,21,38
257,271,21,37
255,270,21,37
255,268,21,37
254,267,21,37
252,265,21,37
252,265,21,37
251,263,21,36
249,262,21,36
248,261,21,35
248,259,20,35
246,259,20,35
245,257,20,35
243,255,21,35
243,255,20,35
241,253,20,35
240,253,20,35
239,252,20,35
238,251,19,34
237,249,19,34
236,248,19,34
235,247,19,34
234,245,19,34
233,245,19,33
231,243,19,33
231,243,19,33
230,241,19,33
229,240,19,33
228,239,19,33
227,238,18,32
226,237,19,32
225,236,18,31
224,235,18,31
223,233,18,31
222,231,18,31
221,231,18,31
220,231,18,31
219,230,18,31
219,229,18,31
217,227,18,31
216,227,17,30
216,225,17,30
214,224,17,30
213,224,17,30
213,222,17,30
211,222,17,30
211,220,17,29
210,220,17,29
209,219,16,29
207,218,16,29
207,217,16,29
206,216,16,29
205,215,16,29
205,214,16,28
204,213,16,28
203,212,15,28
202,211,16,28
201,210,15,28
199,209,15,27
199,208,15,28
217,207,15,27
217,206,15,27
216,206,15,27
215,204,15,27
213,204,15,27
212,203,15,27
211,202,15,27
210,201,14,26
208,199,15,26
207,199,14,26
206,198,14,25
205,198,14,25
204,197,14,25
203,195,14,25
202,195,14,25
201,194,15,25
199,193,14,25
199,192,14,25
199,192,14,24
197,191,14,24
196,190,14,24
195,189,14,24
195,188,14,24
194,188,13,24
193,187,13,24
192,186,13,24
192,185,13,24
191,184,13,24
190,184,13,23
189,183,13,23
188,182,13,23
187,181,13,24
187,180,12,22
185,179,12,23
185,179,12,22
184,178,12,22
184,177,13,22
183,176,12,22
182,176,12,22
181,175,12,22
180,174,12,22
179,174,12,22
179,187,12,21
178,186,12,21
177,185,12,21
176,184,12,21
176,182,12,21
175,182,11,21
174,180,12,21
174,179,11,20
172,179,11,20
172,177,11,20
172,177,11,20
171,177,11,19
169,182,11,20
169,181,11,20
167,179,11,19
167,178,10,19
167,177,11,19
166,176,10,19
166,176,11,19
165,175,10,19
164,174,10,19
163,173,10,19
163,172,10,19
162,171,10,18
162,171,10,19
161,170,9,19
159,169,9,18
159,167,9,18
159,167,10,18
158,167,9,18
158,166,9,18
157,166,9,18
156,165,9,18
156,164,9,17
155,163,9,17
155,163,9,17
153,163,9,17
153,161,9,17
153,161,9,17
152,160,9,17
152,159,8,17
151,159,9,17
150,158,9,17
150,158,8,17
149,157,9,16
149,157,8,16
148,156,7,16
147,155,7,16
147,155,7,16
146,154,7,16
146,153,7,16
145,153,7,15
144,152,7,15
143,152,7,15
143,151,7,15
143,150,7,15
142,150,7,15
142,149,7,15
141,148,7,15
140,148,7,15
140,230,7,15
140,269,7,15
139,266,7,15
139,265,7,15
137,263,7,15
137,262,7,14
137,260,7,15
135,259,7,14
135,257,7,14
135,255,7,14
135,254,7,14
134,253,7,14
134,252,7,14
133,251,7,14
132,249,7,14
131,248,7,14
131,246,7,13
131,245,7,14
130,243,18,13
130,242,18,14
129,241,18,13
129,240,18,13
128,238,17,13
127,237,17,13
127,236,17,13
126,234,17,13
126,233,17,13
125,231,17,13
125,230,16,12
124,230,16,12
124,228,16,12
124,227,16,12
123,226,16,12
122,224,16,12
122,223,16,12
121,222,15,12
121,221,16,12
120,220,15,12
120,219,15,12
120,217,15,12
119,216,15,11
118,216,15,12
118,214,15,12
118,213,15,11
117,212,15,11
117,211,15,11
115,209,15,11
115,208,15,11
115,289,14,11
115,289,14,11
114,287,14,11
113,285,14,11
113,283,14,11
113,281,14,11
112,280,14,11
112,278,14,11
111,277,14,11
111,275,13,10
110,273,13,10
110,271,13,10
110,270,13,10
109,268,13,10
109,267,13,10
108,265,13,10
108,263,13,10
107,263,13,10
107,261,12,10
107,259,12,9
106,258,12,9
105,257,12,9
105,255,12,9
105,254,12,9
103,253,12,9
103,251,12,9
103,250,12,9
103,249,12,9
103,248,12,9
102,246,12,9
174,245,12,9
234,243,11,9
231,243,12,9
231,241,12,9
230,240,12,8
228,239,11,9
227,237,11,8
225,237,11,7
224,235,11,8
223,234,11,9
222,233,11,8
221,231,11,7
220,230,11,7
219,229,11,7
217,228,11,7
216,227,10,7
216,226,10,7
214,225,10,7
213,224,10,7
212,222,10,7
211,221,10,7
210,220,10,7
209,220,9,7
207,218,10,7
207,217,10,7
206,216,10,7
205,216,10,7
204,214,9,7
203,213,9,7
202,212,9,7
201,211,9,7
199,210,9,7
199,209,9,7
198,207,9,7
198,207,9,7
196,206,9,7
195,205,9,7
195,204,9,7
194,204,9,7
193,203,9,7
192,202,8,6
191,201,9,7
190,199,9,7
190,199,9,7
189,198,9,7
188,197,7,6
187,196,7,6
186,195,7,6
185,195,7,7
184,194,7,7
184,193,7,6
183,192,7,6
182,192,7,6
181,191,7,6
180,190,7,6
179,189,7,6
179,188,7,6
178,187,7,6
177,186,7,6
176,185,7,6
176,184,7,6
175,184,7,6
174,184,7,6
173,182,7,6
173,181,7,6
172,180,7,6
172,179,7,6
170,179,7,5
170,178,7,5
169,177,7,5
167,177,7,5
167,176,7,5
167,175,7,5
166,174,7,5
166,174,7,5
165,173,7,5
164,172,15,5
163,171,15,5
163,171,15,5
162,170,15,5
161,169,15,5
160,167,15,5
159,167,15,5
170,167,15,5
170,166,14,5
169,165,15,5
167,164,14,5
167,163,14,5
167,163,14,4
166,163,14,5
165,162,14,4
163,161,14,4
163,159,14,4
162,159,14,4
161,159,14,5
161,158,13,4
159,158,13,4
159,157,13,4
158,156,13,4
158,155,13,4
157,155,13,4
156,154,13,4
156,153,13,4
155,153,13,5
154,152,13,3
153,152,12,3
153,151,12,4
152,150,12,4
152,150,12,4
151,149,12,4
150,148,12,3
150,147,12,3
149,147,12,4
148,146,12,3
147,146,12,3
147,145,12,3
146,144,12,3
145,144,11,3
145,143,12,3
144,143,11,3
143,142,11,3
143,142,11,3
142,141,11,3
142,140,11,3
141,140,11,4
140,140,11,3
140,139,11,3
139,139,11,3
139,137,10,3
138,137,10,3
137,137,10,3
137,135,11,3
135,135,10,3
135,135,10,3
135,135,10,3
134,134,10,3
134,133,10,3
133,133,10,3
133,132,10,3
132,131,9,3
131,131,9,3
131,131,9,2
131,130,9,3
130,130,9,3
129,129,9,3
129,128,9,2
128,128,9,3
127,127,9,3
127,127,9,2
127,127,9,3
126,126,9,3
126,126,9,3
125,125,9,2
125,125,9,3
124,124,9,2
123,124,9,2
123,123,9,2
123,123,9,3
122,123,7,2
121,122,7,2
121,121,7,2
121,121,7,2
120,121,7,2
120,120,7,2
120,120,7,2
119,120,7,2
119,119,7,2
118,118,7,2
117,118,7,2
117,118,7,2
116,117,7,2
115,117,7,2
115,116,7,2
115,115,7,2
114,115,7,2
114,115,7,2
113,115,7,2
113,114,7,2
113,114,7,2
112,113,7,2
112,113,7,2
111,112,7,2
111,112,7,2
110,112,7,2
110,111,7,2
110,111,7,2
109,110,7,2
108,110,6,2
108,109,6,2
108,109,7,2
107,108,6,2
107,108,7,2
106,108,7,2
106,107,7,2
105,107,7,1
105,106,7,2
105,106,7,1
104,105,7,2
116,105,7,1
115,105,7,1
115,105,7,2
114,103,7,2
114,103,7,2
113,103,7,2
113,103,7,1
112,103,7,1
111,102,7,1
111,102,6,1
110,101,6,1
110,101,6,2
110,101,6,2
139,100,6,1
138,100,6,1
137,99,6,1
137,99,6,1
135,99,6,1
135,99,6,1
135,98,6,1
134,97,6,1
134,97,6,1
133,97,6,1
132,97,6,1
131,97,6,1
131,96,6,1
142,96,6,1
159,96,6,1
159,95,6,1
158,94,6,1
157,94,6,1
156,94,5,1
156,94,6,1
155,93,5,1
155,93,5,1
153,93,5,1
153,92,5,1
152,92,5,2
152,92,5,1
151,91,5,1
150,91,5,1
150,91,5,1
149,91,5,1
148,90,5,1
147,90,5,1
147,89,5,1
146,89,5,2
145,89,5,2
145,88,5,2
145,88,5,3
143,88,5,2
143,88,5,2
143,88,5,2
142,87,4,2
145,87,4,2
144,86,5,2
143,86,4,2
143,86,5,2
142,86,4,2
142,85,5,2
141,85,4,3
140,84,5,2
140,84,5,3
140,84,4,2
139,83,4,3
138,83,4,2
137,83,4,3
137,83,4,2
137,83,4,2
135,82,4,3
135,82,4,2
135,81,4,2
135,81,4,2
134,81,4,2
133,81,3,2
133,80,3,2
132,79,4,2
131,79,3,2
131,79,3,2
130,79,3,2
130,79,3,2
129,94,3,2
129,94,4,2
129,94,3,2
127,93,3,3
127,93,3,2
127,92,3,2
126,92,3,2
126,92,3,2
125,91,3,2
125,91,3,2
124,90,3,2
124,90,3,2
123,89,3,1
123,89,3,1
122,89,3,2
121,88,3,2
121,88,3,2
121,88,3,2
120,88,3,2
120,87,3,2
120,86,3,1
119,86,3,2
118,86,3,2
118,85,3,2
117,85,3,2
117,84,3,2
116,84,3,1
115,83,3,1
115,83,3,2
115,83,3,1
114,83,3,2
114,82,3,1
113,82,3,1
113,81,3,1
113,81,3,1
112,81,5,1
112,80,5,1
111,79,5,1
110,79,5,2
110,79,5,2
110,79,5,1
109,79,5,1
109,78,5,1
108,78,4,1
108,78,5,1
108,78,5,1
108,77,5,1
107,77,5,1
106,77,5,1
106,77,5,1
105,76,5,1
105,76,5,1
103,76,5,1
103,75,4,1
103,75,5,1
103,75,5,1
103,75,5,1
103,74,5,1
102,74,4,1
102,73,5,1
102,73,4,1
101,73,4,1
101,73,4,1
100,71,6,1
99,71,5,1
99,71,5,1
99,71,5,1
99,71,5,1
99,71,5,1
98,71,5,1
98,71,5,1
97,71,5,1
97,71,5,1
97,71,5,1
96,70,5,2
96,70,5,1
96,70,5,1
96,69,5,1
95,69,5,1
95,69,5,1
94,69,5,1
94,68,5,0
94,68,5,1
94,67,5,0
93,67,5,0
93,67,5,1
93,67,5,0
92,67,5,1
92,67,5,1
92,67,5,1
92,66,5,1
91,66,5,0
91,66,5,1
91,65,5,1
90,65,5,1
90,65,4,0
89,65,5,0
89,64,5,0
89,64,5,0
89,64,5,0
88,63,5,1
88,63,4,0
88,63,5,0
88,63,4,0
88,63,4,1
87,63,4,0
87,63,4,0
87,63,4,1
86,62,5,1
86,62,4,0
86,62,4,1
86,62,4,1
85,62,5,1
85,61,4,0
85,61,4,1
84,61,4,0
84,61,4,1
83,60,4,1
83,60,4,0
83,60,4,0
83,60,4,1
83,60,4,0
82,59,4,0
82,59,4,0
81,59,4,0
81,59,4,0
81,58,4,1
81,58,4,0
81,58,3,0
80,58,4,0
80,58,4,0
79,57,3,0
79,57,3,1
79,57,3,0
79,57,4,0
79,57,3,0
78,57,3,1
78,56,3,1
78,56,3,0
78,56,3,0
77,56,3,0
77,56,3,0
77,56,3,0
93,55,3,0
126,56,3,0
124,55,3,0
124,55,3,0
123,54,3,0
123,54,3,1
122,54,3,0
121,54,9,0
121,54,9,0
120,53,9,0
120,53,9,0
120,53,9,1
119,53,9,0
118,53,8,0
118,52,9,0
117,52,9,0
117,52,7,0
116,51,9,1
115,51,9,0
115,51,7,0
114,51,7,0
114,51,7,0
113,51,7,0
113,51,7,0
112,50,7,0
112,50,7,0
112,50,7,0
111,50,7,0
110,50,7,0
110,50,7,0
109,49,7,0
109,49,7,0
109,49,7,0
108,49,7,0
108,48,7,0
107,48,7,0
107,48,7,0
106,48,7,0
106,48,7,0
105,48,7,0
105,48,7,0
103,47,7,0
103,47,7,0
103,47,7,0
103,47,7,0
103,47,7,0
102,46,7,0
101,46,7,0
101,46,7,0
101,46,7,0
100,46,7,0
100,46,7,0
99,46,7,1
99,45,7,0
99,45,7,0
99,45,6,0
98,45,6,0
97,45,7,0
97,45,6,0
97,44,6,0
96,44,6,0
96,44,7,0
96,44,6,0
95,44,6,0
95,44,6,0
94,44,6,0
94,43,6,0
94,43,6,0
94,43,6,0
93,43,6,0
93,43,6,0
93,43,6,0
92,42,6,0
92,42,6,0
91,42,6,0
91,42,6,0
91,42,6,0
90,41,6,1
89,41,6,0
89,41,6,0
89,41,6,0
89,41,6,0
89,41,5,0
88,41,6,0
88,40,5,0
88,40,5,0
87,41,5,0
87,39,5,0
87,39,5,0
86,39,5,0
86,39,5,0
85,39,5,0
85,39,5,0
85,39,6,0
84,39,6,0
84,39,6,0
83,39,6,0
83,39,5,0
83,39,5,0
82,39,6,0
82,38,5,0
82,39,5,0
82,39,5,0
81,38,5,0
81,38,5,0
81,38,5,0
80,38,5,0
80,37,5,0
79,37,5,0
79,37,5,0
79,37,5,0
79,37,5,0
78,37,5,0
78,37,5,0
78,36,5,0
78,36,5,0
78,36,5,0
77,36,5,0
77,35,5,0
77,36,5,0
76,35,5,0
76,35,5,0
76,35,5,0
76,35,5,0
75,35,5,0
75,35,4,0
75,35,5,0
75,35,4,0
74,35,5,0
74,35,4,0
73,34,4,0
73,34,4,0
73,34,4,0
73,34,4,0
73,34,4,0
72,34,4,0
71,33,4,0
71,33,4,0
71,33,4,0
71,33,4,1
71,33,4,0
71,33,4,0
71,33,4,0
71,33,4,0
70,32,4,0
70,32,4,0
70,32,3,0
70,32,4,0
69,31,4,0
69,32,3,0
69,32,4,0
69,31,3,0
68,31,4,0
68,31,3,0
67,31,3,0
67,31,4,0
67,31,3,0
67,31,3,0
67,31,3,0
67,31,3,0
67,31,3,0
66,30,3,0
66,30,3,0
66,31,3,0
66,30,3,1
65,30,3,0
65,30,3,0
65,30,3,0
65,30,3,0
64,30,3,0
64,30,3,0
64,30,3,0
63,30,3,0
63,29,3,0
63,29,3,0
63,29,3,0
63,29,3,0
63,28,3,0
63,29,3,0
62,29,3,0
62,28,3,0
62,28,3,0
62,28,3,0
62,28,3,0
61,28,3,0
61,28,3,0
61,28,3,0
61,28,3,0
60,28,3,0
60,27,3,1
60,28,3,0
60,27,3,0
60,27,3,0
60,27,3,0
60,27,3,0
59,27,3,0
59,27,3,0
59,27,3,0
58,27,3,0
58,27,3,0
58,26,3,0
58,26,3,0
57,27,3,0
57,26,3,0
57,26,3,0
57,26,3,0
57,26,3,0
56,26,3,0
56,25,3,0
56,25,3,0
56,25,3,0
56,25,3,0
56,25,3,0
56,25,3,0
56,25,3,0
55,25,3,0
55,25,3,0
55,25,3,0
55,25,3,0
55,24,3,0
54,24,3,0
54,25,3,0
54,24,3,0
54,24,3,0
54,24,3,0
53,24,4,0
53,24,4,1
53,24,4,0
53,24,3,0
53,24,3,0
53,24,4,0
52,24,4,0
52,23,3,0
53,24,3,0
52,24,3,0
52,24,3,0
52,24,3,0
52,23,3,0
51,23,3,0
51,23,3,0
51,23,3,0
51,22,3,0
51,22,3,0
51,22,3,0
50,22,3,0
50,22,3,0
50,23,3,0
50,22,3,0
50,22,3,0
50,22,3,0
50,22,3,0
49,22,3,1
49,22,3,0
49,21,3,0
49,21,3,0
48,21,3,0
48,21,3,0
48,21,3,0
48,21,3,0
48,21,3,0
48,21,3,0
48,21,3,0
48,21,3,0
48,21,3,0
48,20,3,0
48,20,3,0
48,20,3,0
48,21,3,0
47,20,3,0
47,20,18,0
47,20,18,0
47,19,18,0
47,19,18,0
46,20,18,0
46,20,17,0
46,19,17,0
51,19,17,0
52,19,17,0
51,19,17,0
51,19,17,0
51,19,17,0
51,19,16,0
50,19,16,0
50,19,16,0
50,19,16,0
50,19,16,0
49,19,16,0
49,18,16,1
49,18,16,0
49,19,16,0
49,18,16,0
49,18,15,0
49,18,15,0
48,18,15,0
48,18,15,0
48,18,15,0
48,18,15,0
48,18,15,0
48,18,15,0
47,18,15,1
47,17,15,0
47,17,15,0
46,17,14,0
46,17,14,0
47,17,14,0
48,17,14,0
48,17,14,0
47,17,14,0
47,17,14,0
47,16,14,0
47,16,14,0
46,17,14,0
46,16,14,0
46,16,14,0
46,16,14,0
46,16,14,0
45,16,13,0
45,16,13,0
49,16,13,0
49,16,13,0
49,16,13,0
49,15,13,0
48,16,13,0
48,16,13,0
48,15,13,0
48,15,13,0
47,16,13,0
47,15,13,0
47,15,13,0
47,15,12,0
47,15,12,0
46,15,12,0
49,15,12,0
49,15,12,0
48,15,12,1
48,15,12,0
48,15,12,0
48,14,12,0
48,15,12,0
47,15,12,0
47,15,12,0
47,14,12,0
47,14,12,0
46,14,12,0
46,14,12,0
46,14,11,0
62,14,11,0
61,14,12,0
61,14,12,0
60,14,11,0
60,14,11,0
60,14,11,0
59,14,12,0
59,14,12,0
59,14,12,0
59,14,12,0
59,14,12,0
58,13,12,0
58,13,12,0
59,13,12,0
61,13,12,0
60,13,12,0
60,13,12,0
59,13,12,0
59,13,12,0
59,13,12,0
59,13,12,0
58,13,11,0
58,12,12,0
57,13,12,1
57,13,11,0
57,13,11,0
57,13,11,0
61,13,11,0
61,13,11,0
61,13,11,0
61,12,11,0
61,12,11,0
60,12,11,0
60,12,11,0
60,12,11,0
60,12,10,0
59,12,11,0
59,12,10,0
59,12,10,0
58,12,10,0
58,12,10,0
66,12,10,0
66,12,10,0
65,11,9,0
65,12,10,0
65,12,10,0
64,12,9,0
64,12,9,0
63,11,10,0
63,12,10,0
63,11,9,0
63,11,9,0
63,11,9,0
62,11,9,0
63,11,9,0
70,11,9,0
71,11,9,0
71,11,9,0
71,11,9,0
71,11,9,1
70,11,9,0
70,11,9,0
70,11,9,0
69,11,9,0
69,10,9,0
69,10,9,1
67,11,9,0
67,10,9,0
67,10,7,0
67,10,7,0
80,10,7,0
79,10,7,0
79,10,7,0
79,10,7,0
79,10,7,0
78,10,7,0
78,10,7,0
77,10,7,0
77,10,7,1
77,9,7,1
76,10,7,1
76,9,7,1
76,9,7,1
75,9,7,1
75,9,7,2
76,9,7,1
76,9,7,0
75,9,7,1
75,9,7,0
75,9,7,1
74,9,7,1
74,9,7,0
74,9,7,0
73,9,7,0
73,9,7,0
73,9,7,0
71,9,7,0
71,9,7,0
71,9,7,1
71,9,7,1
71,9,7,1
71,10,7,0
71,10,7,0
71,10,7,0
71,10,7,0
71,10,7,0
71,10,7,1
70,10,7,0
70,10,9,0
70,10,9,0
69,10,9,1
69,10,9,1
69,9,9,0
68,9,9,1
68,9,9,0
68,10,9,0
69,10,9,0
69,10,9,0
68,10,9,0
68,10,9,0
67,10,9,0
67,10,8,0
67,10,7,1
67,10,9,0
67,10,9,0
66,10,8,0
66,10,7,0
66,10,8,0
65,10,7,0
65,10,7,0
65,10,7,0
65,12,7,0
65,12,7,0
65,12,7,0
64,12,7,0
65,12,7,1
64,12,7,0
63,11,7,0
63,12,7,0
63,12,7,1
63,11,7,0
63,11,7,0
62,11,7,0
62,11,7,0
62,11,7,0
62,11,7,0
62,11,7,0
61,10,7,0
61,11,7,0
61,10,7,0
61,11,7,0
61,10,7,0
60,10,7,0
60,10,7,0
60,10,7,0
60,10,7,0
59,10,7,0
59,10,7,0
59,10,7,0
59,33,7,0
60,56,7,1
59,55,7,0
59,54,7,0
59,54,7,0
59,53,6,0
59,53,7,0
59,52,7,0
58,52,6,0
58,52,6,0
57,51,6,0
57,51,6,0
57,51,6,0
57,51,6,0
57,51,6,0
56,56,6,0
56,59,6,0
57,58,6,0
56,58,6,0
56,57,6,0
56,57,6,0
56,57,6,0
55,57,6,0
55,56,6,0
55,56,6,0
54,56,6,0
54,56,6,1
54,56,6,0
54,55,6,0
53,55,5,0
56,57,5,0
56,57,5,0
56,56,5,0
55,56,5,0
55,56,5,0
54,56,5,0
55,56,5,0
54,55,6,0
54,55,5,0
53,55,5,0
53,54,5,0
53,54,5,0
53,54,5,0
53,53,5,0
53,53,5,0
60,56,4,0
60,56,5,0
60,56,5,0
59,56,4,0
59,55,4,0
59,55,4,0
59,54,4,0
58,54,4,0
58,54,5,0
57,54,5,0
57,53,4,0
57,53,4,0
57,53,4,0
56,53,4,0
59,76,4,0
60,79,4,0
60,79,4,0
60,79,4,0
59,78,4,1
59,78,4,0
58,77,4,0
58,77,4,0
58,77,4,0
58,76,4,0
57,76,4,0
57,76,4,0
57,75,4,0
57,75,4,0
56,75,4,0
60,74,4,0
61,74,3,0
60,74,4,0
60,73,3,0
60,73,4,0
60,73,3,0
59,72,3,0
59,71,4,0
58,71,4,0
58,71,3,0
58,71,3,0
57,71,3,0
57,71,4,0
57,70,3,1
57,70,3,1
57,71,3,0
57,71,3,0
56,71,3,0
56,71,3,0
56,71,3,0
56,70,3,0
56,70,4,0
56,70,4,0
56,69,4,0
55,69,4,0
55,69,4,1
54,68,4,0
54,68,4,0
53,67,4,0
54,84,3,0
55,84,3,0
54,83,4,0
54,83,4,0
54,83,4,0
54,82,3,0
53,81,4,0
53,81,4,0
53,81,4,0
53,81,4,0
52,79,4,2
52,79,4,1
51,79,4,0
51,79,4,0
51,79,3,0
60,78,3,0
63,78,3,1
63,78,3,0
62,77,4,0
62,77,3,0
62,77,3,0
61,76,3,0
61,76,3,0
61,76,4,0
61,75,3,0
60,75,3,1
60,75,3,0
60,75,3,0
59,74,3,0
59,73,3,1
63,73,3,0
63,73,3,0
63,73,3,0
62,73,3,0
62,71,3,0
62,71,3,0
61,71,3,0
61,71,3,0
61,71,3,1
