54,139,3,2
53,138,3,3
53,137,3,2
53,137,3,3
52,135,3,2
52,135,3,2
52,135,3,2
58,145,3,2
59,143,3,2
58,143,3,2
58,142,3,2
57,142,3,2
57,141,3,3
57,140,3,3
57,140,3,3
56,139,3,3
56,139,3,3
56,138,3,3
56,137,3,3
56,135,3,3
55,135,3,3
56,143,3,3
57,142,3,3
56,141,3,3
56,141,3,3
56,140,3,3
56,140,3,3
56,139,3,3
55,138,3,3
55,137,3,3
54,137,3,3
54,135,3,3
54,135,3,3
54,135,3,3
53,135,3,3
61,146,2,3
61,146,3,3
60,145,2,2
60,144,3,3
60,143,2,3
60,143,2,3
59,142,3,3
59,141,3,3
59,141,3,3
58,140,3,3
58,139,3,3
58,139,3,3
57,138,3,3
57,137,3,3
57,140,3,3
57,139,3,3
57,138,3,3
57,137,3,3
56,137,3,3
56,135,3,3
56,135,3,3
56,135,3,3
56,135,3,3
55,134,3,3
55,133,3,3
54,132,3,3
54,131,3,3
54,133,3,3
57,137,3,3
56,135,3,3
56,135,3,3
56,135,3,3
56,134,3,3
56,134,3,3
55,133,3,3
55,132,3,3
55,131,2,4
54,131,3,3
54,130,3,3
54,130,3,3
53,129,3,3
56,147,3,3
57,146,3,3
56,146,3,3
56,145,3,3
56,144,3,3
56,143,3,3
56,143,5,3
55,142,5,4
55,142,5,4
54,141,5,4
54,140,5,4
54,140,5,4
54,139,5,4
53,138,5,4
58,143,4,4
58,142,4,4
57,142,4,4
57,141,4,3
57,140,5,4
56,140,4,4
57,139,7,4
56,138,7,4
56,137,7,4
56,137,7,4
55,135,7,4
55,135,7,4
54,135,7,4
54,135,7,4
57,139,7,4
57,138,7,4
57,137,7,5
56,137,7,4
56,135,7,3
56,135,7,4
56,135,7,4
56,134,7,4
55,134,7,3
55,133,7,3
54,132,7,3
54,131,7,3
54,131,7,3
54,146,7,3
55,158,7,4
55,157,7,3
54,156,7,3
54,155,7,3
54,155,7,3
54,153,7,3
53,153,7,3
53,152,7,3
52,152,7,3
52,151,7,3
52,150,7,3
51,149,7,3
51,149,7,3
51,148,7,3
51,147,7,3
51,147,7,3
51,146,7,3
50,145,7,3
50,145,6,3
50,143,6,3
50,143,6,3
49,143,6,3
49,142,6,3
49,142,6,3
49,141,6,3
48,140,6,3
48,140,6,3
111,139,6,3
143,138,6,3
142,137,6,3
141,137,6,3
141,135,6,3
140,135,6,3
139,135,6,3
138,134,6,3
137,134,6,3
136,133,6,3
135,132,6,3
135,131,5,3
135,131,5,3
134,130,5,3
143,130,5,3
143,129,5,3
142,129,6,3
142,127,5,3
141,127,5,3
140,127,5,3
140,126,5,4
139,125,5,3
138,125,5,3
137,124,5,3
137,124,5,3
135,123,5,3
201,123,5,3
281,122,5,3
280,121,5,3
278,121,5,3
275,120,5,3
274,120,5,3
272,119,5,3
271,119,5,4
270,118,5,4
268,117,5,4
267,117,5,4
265,116,5,3
263,116,4,4
263,115,4,4
261,115,4,3
259,114,5,3
259,114,4,4
257,113,4,3
255,113,4,3
255,112,4,3
253,112,4,3
252,111,5,3
251,111,4,4
249,110,4,3
248,110,4,3
248,173,4,3
247,274,4,3
246,380,4,4
244,427,4,3
243,423,4,3
241,419,4,3
240,415,4,3
239,413,4,3
238,411,4,3
237,408,4,3
236,406,4,3
235,403,3,3
234,401,4,3
233,399,4,3
231,476,4,3
231,499,4,3
230,496,3,3
229,492,3,3
227,489,4,3
226,486,3,3
225,481,3,3
224,479,4,3
224,476,3,3
223,472,3,3
221,469,3,3
221,467,3,3
220,463,3,3
219,461,4,3
289,459,3,3
287,455,3,2
285,453,3,3
283,451,3,3
281,448,3,3
280,444,3,3
279,441,3,4
277,440,3,3
275,436,3,3
274,434,3,3
273,465,3,3
271,601,3,3
270,750,3,3
269,883,3,3
268,875,3,3
266,865,3,3
265,856,3,3
263,847,3,4
262,837,3,3
261,829,4,4
259,821,5,5
259,813,4,4
257,807,4,5
255,799,4,5
255,792,4,4
254,884,4,4
253,899,4,4
252,890,3,4
250,879,4,5
249,871,4,4
248,862,4,4
247,854,5,4
246,843,5,4
244,835,5,5
243,828,5,5
242,820,5,5
241,813,5,4
240,806,5,4
239,798,5,5
238,792,5,5
237,785,5,4
236,778,5,4
235,771,5,4
233,765,4,4
231,759,4,5
231,750,7,7
230,743,7,7
229,738,7,7
228,732,7,7
227,727,7,6
226,721,7,7
225,716,7,6
225,710,7,6
224,705,7,6
222,699,7,6
221,694,7,6
220,689,7,6
220,684,7,7
218,677,7,10
217,671,7,10
217,668,8,10
216,663,7,10
214,655,7,10
213,652,7,10
212,647,7,10
298,643,7,9
295,638,7,9
294,633,7,9
291,629,7,9
290,624,7,9
289,620,7,10
287,615,7,12
286,611,7,12
284,658,7,12
282,650,7,12
281,645,7,12
280,639,7,12
278,635,7,11
277,629,7,11
275,624,7,11
274,620,7,11
272,615,7,11
271,609,7,11
269,605,12,13
268,601,13,13
266,654,13,13
265,798,13,12
263,787,13,13
262,780,12,12
261,773,12,12
259,764,12,12
258,757,12,12
257,748,12,13
255,742,12,12
254,736,12,13
252,728,12,20
251,722,12,19
250,764,12,20
249,843,12,19
248,831,12,19
246,824,11,19
245,816,11,19
243,806,11,19
243,799,12,19
241,789,11,19
240,783,11,18
239,775,12,19
238,767,12,19
236,760,12,19
235,752,12,19
235,745,11,19
233,737,12,19
231,823,11,19
231,824,11,18
243,814,11,18
315,807,11,18
311,796,11,18
309,790,11,18
307,783,12,18
305,774,12,18
303,767,12,18
301,758,11,18
300,752,11,18
297,743,11,18
295,737,11,17
294,732,11,17
293,723,11,17
291,718,11,17
289,710,11,17
287,705,14,17
286,700,17,17
285,692,17,17
283,687,18,17
281,679,17,16
280,675,17,16
279,669,17,16
277,664,17,16
275,659,17,16
274,653,17,16
273,647,17,19
271,642,16,22
270,637,17,48
269,633,17,54
267,627,17,53
265,623,17,52
263,617,16,52
263,613,16,51
262,608,16,51
260,603,16,51
259,600,16,51
257,594,16,50
255,590,15,50
255,585,15,50
254,582,16,52
252,578,16,52
251,573,17,51
249,569,16,51
248,565,16,51
248,561,16,51
246,556,16,51
245,553,15,50
243,550,16,50
243,545,15,49
241,542,15,49
240,537,15,49
239,535,15,49
238,531,15,49
236,527,15,48
235,524,15,48
234,519,15,48
233,517,15,48
231,513,15,48
231,510,15,47
230,507,15,47
228,503,14,47
227,500,14,47
226,496,14,46
225,494,16,46
224,491,16,46
223,487,16,46
222,485,16,46
221,481,17,45
220,479,16,45
219,517,16,45
217,667,16,44
217,659,15,45
216,652,16,44
216,647,15,44
214,639,15,44
213,636,15,44
211,631,15,43
211,624,15,43
209,620,15,43
209,614,15,43
207,609,15,42
207,604,14,42
206,600,15,42
205,595,15,41
252,590,14,41
379,586,14,41
422,581,15,41
418,577,17,41
415,573,17,39
412,568,16,40
409,564,17,39
407,559,16,39
404,556,16,39
401,752,16,39
399,851,16,39
397,841,15,39
493,831,15,39
504,823,16,39
499,812,19,38
495,805,21,38
492,798,21,38
487,789,20,38
484,782,20,37
481,772,20,37
479,766,20,37
475,757,19,37
472,751,19,37
468,744,19,37
466,737,19,36
462,731,19,36
460,723,20,36
457,718,20,35
454,711,20,35
451,704,19,35
448,699,19,35
446,691,19,35
443,687,19,35
440,679,19,35
437,675,19,34
435,670,19,34
432,664,19,34
429,659,18,34
427,652,21,33
425,647,22,33
422,643,22,33
419,637,22,33
417,632,21,33
415,627,21,33
412,623,21,32
410,617,21,32
408,613,20,32
551,609,20,31
557,603,21,32
553,600,21,31
548,594,24,31
543,590,24,31
540,586,23,31
536,581,23,31
532,577,23,31
529,573,23,31
525,569,22,30
521,564,22,30
518,560,22,30
514,557,22,30
511,552,22,30
556,550,23,30
652,545,24,29
644,542,24,29
638,538,24,29
633,534,23,29
627,530,23,29
623,526,23,29
618,523,22,28
613,519,23,28
608,516,22,28
604,513,22,28
600,509,22,28
595,505,23,27
590,502,23,28
586,499,24,28
582,496,23,27
577,492,23,27
631,490,23,27
710,486,23,27
702,483,23,27
696,480,22,26
689,477,22,26
684,475,22,26
678,472,22,26
671,469,22,27
667,465,22,28
662,463,22,29
655,460,21,29
651,457,21,30
646,455,21,30
639,451,21,30
636,449,21,30
631,446,21,31
634,444,21,43
820,441,21,42
900,439,20,43
908,436,24,42
911,433,24,42
906,432,23,41
891,428,23,41
880,426,23,41
871,423,23,40
862,421,23,41
853,419,23,39
844,415,23,39
836,414,22,39
828,412,22,39
820,409,22,39
812,408,22,39
804,404,21,39
797,403,21,39
789,399,21,39
782,398,21,38
775,396,21,38
768,393,21,38
761,391,21,38
755,389,21,38
748,387,20,37
741,385,20,37
735,383,20,37
729,381,19,37
723,379,19,36
717,377,19,37
711,375,19,36
705,373,19,36
700,371,19,35
694,369,19,35
689,368,19,35
683,365,19,35
678,363,19,34
673,361,19,35
668,359,18,35
663,358,18,34
657,355,18,35
652,354,18,34
647,352,18,34
643,350,17,33
638,348,17,33
633,347,17,33
629,345,17,33
624,343,17,33
620,341,17,32
615,339,17,33
611,338,17,36
606,335,17,36
602,335,17,35
598,333,16,35
594,331,16,35
590,329,16,35
585,327,16,35
582,326,16,35
578,324,16,34
574,323,15,34
570,321,16,34
566,319,15,34
563,318,15,33
559,316,15,33
556,315,15,33
551,313,15,33
548,312,15,33
545,310,15,33
541,309,15,32
537,307,15,31
535,305,15,31
531,304,15,31
527,303,15,31
524,301,15,31
521,300,17,31
518,299,17,31
515,297,17,31
511,295,16,30
508,294,16,31
505,292,16,30
502,291,16,30
499,289,16,30
496,288,16,30
493,287,16,30
490,286,15,30
487,284,16,29
484,283,17,29
481,281,17,29
479,280,16,29
476,279,17,29
473,277,16,29
471,276,16,28
467,275,16,28
465,273,16,28
463,272,15,28
460,271,16,28
457,270,16,33
455,269,16,35
451,267,16,35
449,266,16,35
447,263,15,34
444,263,16,34
442,262,15,34
440,261,15,34
437,259,15,34
435,258,15,33
432,257,15,33
430,255,15,33
428,255,15,32
425,254,15,32
423,252,15,32
421,251,15,32
419,250,15,31
415,249,14,31
414,248,15,31
412,247,15,31
409,246,14,31
408,244,14,31
405,243,14,31
403,242,14,31
401,241,14,31
399,240,15,30
397,239,15,30
395,238,14,30
393,237,14,30
391,236,14,30
389,235,14,30
387,233,14,29
385,231,14,29
383,231,14,29
381,230,14,29
379,229,14,29
377,228,15,28
376,227,15,28
373,226,15,28
371,225,15,28
370,224,15,28
368,223,15,28
366,222,15,27
364,221,15,27
362,220,15,27
359,219,15,27
359,218,14,27
357,217,14,27
355,216,17,27
353,216,17,26
352,214,17,26
350,214,17,26
348,212,17,25
347,211,17,26
345,211,16,25
344,210,16,25
342,209,16,25
339,207,16,25
339,207,16,25
336,206,16,25
335,205,19,25
334,204,19,25
332,204,19,24
331,203,18,24
329,201,18,24
327,201,18,24
326,199,18,24
324,199,18,24
323,198,17,24
321,197,17,24
319,196,17,24
318,195,18,24
317,195,19,24
315,194,19,24
314,193,18,23
312,192,18,23
312,192,18,22
309,191,18,22
307,190,18,22
307,189,17,22
305,188,17,22
304,187,17,22
302,187,17,22
301,185,19,22
300,184,20,21
298,184,20,22
297,183,19,21
295,183,19,21
294,181,19,21
293,211,19,21
291,273,19,21
290,271,19,21
289,270,19,20
287,268,19,21
286,267,19,19
285,263,19,19
284,263,18,19
282,261,18,20
281,259,18,19
280,258,18,19
279,257,18,19
277,255,18,19
276,261,18,20
275,260,17,19
273,259,17,19
272,257,17,19
312,255,17,19
309,254,17,19
307,252,17,19
305,251,17,19
304,249,16,18
302,248,16,18
300,247,17,19
298,245,16,18
295,243,16,18
295,243,16,18
293,241,16,17
291,240,16,17
290,239,15,17
288,237,15,17
287,236,15,17
285,235,15,17
284,233,15,17
282,231,15,17
280,255,15,17
280,371,15,17
277,390,15,17
276,387,15,16
275,385,15,16
273,382,15,16
271,380,14,16
271,377,15,16
270,375,15,16
268,371,15,16
267,370,14,16
265,368,15,15
263,368,15,15
263,411,14,15
262,408,14,15
261,405,14,15
259,402,14,15
259,399,14,15
257,397,14,15
256,393,14,15
255,391,14,15
254,388,14,15
253,386,13,15
252,384,14,15
251,382,13,14
249,384,13,14
249,382,13,14
263,380,13,14
300,377,13,14
324,375,13,14
322,373,13,14
319,370,13,14
318,368,12,14
316,365,13,14
315,364,12,14
312,361,12,13
311,359,12,13
309,357,12,13
307,355,12,13
305,352,12,13
304,351,12,13
302,349,12,13
300,347,12,13
299,344,12,13
295,343,11,13
295,340,12,12
294,339,11,12
292,337,11,12
290,335,11,12
289,333,11,12
287,331,11,12
286,329,11,12
284,327,11,12
283,325,11,12
281,323,11,12
280,322,11,12
278,319,10,12
276,318,10,12
275,316,10,12
273,315,10,12
272,313,10,11
271,312,10,11
269,310,10,11
268,307,10,11
267,306,10,11
265,304,12,11
263,303,12,11
263,301,12,11
261,300,12,11
259,297,12,11
259,295,12,10
257,295,12,11
255,293,12,10
255,291,11,10
253,290,12,10
252,289,12,10
251,287,11,10
249,286,11,10
248,284,11,9
248,282,11,10
246,281,11,10
245,280,11,9
243,278,11,9
243,277,11,9
242,275,10,10
241,274,11,9
240,273,11,9
239,271,10,9
238,270,10,10
237,268,10,9
236,267,10,9
235,266,10,9
233,265,10,9
233,263,10,9
231,263,10,8
231,261,9,9
230,259,9,9
229,259,9,9
228,257,9,9
227,255,9,9
227,255,9,9
226,254,9,7
225,253,9,7
224,251,9,7
223,250,9,7
222,249,9,7
221,248,9,7
221,247,9,7
220,246,8,7
219,245,9,7
218,243,9,7
217,243,8,7
216,242,8,7
216,240,9,7
215,239,8,7
214,238,8,7
213,237,7,7
212,236,7,7
211,235,7,7
211,234,7,7
210,233,7,7
209,231,7,7
208,231,7,7
207,231,7,7
207,230,7,7
206,229,7,7
205,227,7,7
204,227,7,7
204,226,7,7
203,225,7,7
202,224,7,7
201,223,7,7
201,222,7,7
199,221,7,7
199,285,7,7
198,403,7,6
197,409,7,7
197,406,7,7
196,403,7,7
195,401,7,6
194,398,7,6
194,396,7,6
193,393,7,6
192,391,7,6
192,388,7,6
191,387,7,6
190,384,7,6
190,382,7,6
189,380,7,6
188,378,6,6
187,376,6,6
187,374,6,6
186,371,6,6
185,369,6,6
184,367,6,7
184,365,6,5
183,363,6,6
183,361,6,6
182,359,6,5
181,358,6,5
181,355,6,6
180,354,6,5
179,352,6,5
179,350,6,5
178,348,6,5
177,346,5,6
176,344,6,5
176,343,6,5
175,340,6,5
175,339,6,5
174,337,6,5
173,335,6,5
173,334,6,5
172,332,6,5
172,331,6,5
171,329,6,5
170,327,6,6
170,326,6,5
169,323,6,4
167,323,5,5
167,319,5,4
167,319,5,5
167,317,5,5
166,316,5,5
165,314,5,4
165,313,5,4
164,311,5,5
163,310,5,5
163,307,5,4
163,306,5,4
162,305,5,4
161,304,5,4
161,302,5,4
159,300,5,4
159,299,5,4
159,297,5,4
158,295,5,4
158,295,5,4
157,293,4,5
156,291,5,3
156,291,5,4
156,289,5,4
155,287,4,3
154,286,4,3
153,285,4,4
153,284,4,3
153,282,4,3
152,281,4,4
151,280,4,3
151,278,4,4
150,277,4,3
150,275,4,3
150,274,4,3
148,273,3,3
148,271,4,3
147,271,3,3
147,269,4,3
147,268,4,3
146,267,3,3
145,265,4,3
145,263,4,3
144,263,4,3
143,262,3,3
143,261,3,3
143,259,3,3
142,258,3,3
142,257,3,3
208,255,3,3
209,254,3,3
207,253,3,3
206,252,3,3
205,251,3,3
204,250,3,3
203,249,3,3
202,248,3,3
201,247,3,3
199,245,3,3
199,244,3,2
198,243,3,3
197,242,3,3
196,241,3,2
195,240,3,3
194,239,3,3
193,238,3,3
192,237,3,3
192,236,3,2
191,235,3,3
190,233,3,2
189,231,3,2
188,231,3,3
187,231,3,3
187,230,3,2
185,229,3,2
185,227,3,2
184,227,3,2
183,226,2,2
183,225,3,3
181,224,3,3
181,223,3,3
180,222,3,2
179,221,3,2
178,220,3,2
177,219,3,2
176,218,2,2
176,217,3,2
175,216,2,2
174,216,2,2
174,214,2,2
173,214,2,2
172,213,2,2
171,211,2,2
170,211,2,2
169,209,2,2
169,209,2,2
167,207,2,2
167,207,2,2
167,206,2,2
166,205,2,2
165,204,2,2
164,204,2,2
163,203,2,2
163,202,2,2
162,201,2,2
161,199,2,2
161,199,2,2
159,199,2,2
159,198,2,2
159,197,2,2
158,195,2,2
158,195,2,2
157,194,2,2
156,193,2,2
156,193,2,2
155,192,2,1
154,192,2,2
153,190,1,1
153,190,2,2
152,189,1,2
152,188,3,2
151,187,3,1
150,187,3,1
150,185,3,1
149,185,3,2
148,184,3,2
147,184,3,1
147,183,3,1
147,182,3,1
146,182,2,1
145,180,3,1
144,180,3,1
144,179,3,1
143,179,3,1
143,177,3,2
142,177,3,1
142,176,3,1
141,176,3,1
141,175,3,1
140,174,3,1
140,174,3,1
139,173,3,1
139,172,3,1
138,171,3,1
137,171,3,1
137,170,3,1
137,169,3,1
135,169,3,1
135,167,3,1
135,167,3,1
135,167,3,1
134,167,3,1
134,166,3,1
133,165,3,1
132,164,3,1
131,163,3,1
131,163,3,1
131,163,3,1
131,162,3,1
130,161,3,0
129,161,3,1
129,159,3,1
128,159,3,1
128,159,3,1
127,158,3,1
127,157,3,1
127,157,3,1
126,156,3,1
126,156,3,1
125,155,3,1
125,154,3,1
124,154,3,0
124,153,3,1
123,153,5,1
123,152,4,1
123,152,4,2
122,151,4,1
122,150,4,1
121,150,4,1
134,149,4,1
133,149,4,1
132,147,4,1
131,147,3,1
131,147,4,1
130,147,3,0
130,146,4,0
129,145,4,1
128,145,4,1
127,144,4,0
127,143,4,1
126,143,3,0
126,143,4,1
125,142,3,1
125,142,3,0
124,141,3,1
124,140,3,1
123,140,3,1
123,139,3,1
122,139,3,0
122,138,3,0
121,138,3,0
121,137,3,1
120,136,3,0
120,135,3,1
120,135,3,0
119,135,3,0
118,135,3,0
118,134,3,1
118,134,3,2
117,133,3,1
116,133,3,0
116,132,3,1
115,131,3,1
115,131,3,0
115,131,3,1
115,130,3,1
114,129,3,1
113,129,3,1
113,128,3,1
113,128,3,2
112,127,3,1
112,127,3,0
112,127,3,1
111,126,3,1
111,126,3,1
110,126,3,1
110,125,3,1
109,124,3,1
109,124,3,1
109,123,3,1
109,123,3,2
108,123,3,1
108,122,3,1
108,121,2,1
107,121,3,1
107,121,3,1
106,120,3,1
106,120,3,1
105,119,3,1
105,119,3,1
103,118,3,1
103,118,3,1
103,118,2,1
103,117,3,1
103,117,3,1
103,116,2,1
102,115,3,1
102,115,2,1
101,115,3,1
101,114,2,1
101,114,2,1
100,113,2,0
100,113,3,0
99,113,2,1
99,112,2,0
99,112,3,0
99,112,2,1
98,111,2,1
98,110,3,0
97,110,2,0
97,110,3,0
97,109,2,0
96,110,2,1
96,108,2,1
96,108,2,2
96,108,2,1
95,108,2,0
95,107,2,0
95,107,2,1
94,106,2,0
94,106,2,0
94,105,2,0
93,105,2,1
93,105,2,0
93,105,2,0
92,103,2,0
92,103,2,0
92,103,2,0
92,103,2,1
91,103,2,0
91,102,2,0
91,102,2,0
90,102,2,1
90,102,2,0
90,101,2,0
89,100,2,0
89,100,2,0
89,99,2,0
88,99,2,0
88,99,2,0
88,99,2,1
88,99,2,0
88,98,2,0
87,98,2,0
87,97,2,0
86,97,2,0
86,97,2,0
86,97,2,0
85,96,2,0
85,96,2,0
85,96,1,1
85,96,2,0
84,95,1,0
84,95,2,0
83,94,2,0
83,94,1,0
83,94,1,0
83,93,1,0
82,93,2,0
83,93,2,0
83,92,2,0
82,92,2,0
81,92,2,0
81,91,2,0
81,91,2,0
81,91,1,0
81,91,1,0
80,90,2,0
80,90,2,0
79,89,1,0
79,89,1,0
79,89,1,0
79,89,2,0
79,89,1,0
79,88,1,0
78,88,1,0
78,88,2,0
78,88,1,0
78,87,1,0
77,87,1,0
77,87,1,0
77,86,1,0
77,86,1,0
76,86,1,0
76,85,1,0
76,85,1,0
76,85,1,0
76,84,1,0
75,84,1,0
75,84,1,0
75,83,1,0
75,83,1,0
75,83,1,0
74,83,1,0
73,83,1,0
73,82,1,0
73,82,1,0
73,81,1,0
73,81,1,0
72,81,1,0
71,81,1,0
71,80,1,2
71,80,1,1
71,80,1,1
71,79,1,1
71,79,1,1
71,79,1,1
71,79,1,1
71,79,1,1
70,78,2,1
70,78,1,1
70,78,1,1
70,78,1,2
69,77,1,1
69,77,1,1
69,77,2,1
69,77,2,1
68,76,2,1
68,76,1,1
68,76,2,1
67,76,1,1
67,75,2,1
67,75,1,1
67,75,1,1
67,75,1,1
67,74,1,1
66,74,1,1
66,74,1,1
66,73,1,1
66,73,1,1
65,73,2,1
65,73,2,1
65,72,2,1
65,71,1,1
65,71,2,1
64,71,2,1
64,71,2,1
63,71,2,2
63,71,2,1
63,71,1,1
63,71,2,1
63,71,2,1
63,70,1,1
63,70,1,1
62,70,1,1
62,70,7,1
62,69,7,1
62,69,7,1
62,69,7,1
61,68,7,0
61,68,7,1
61,68,7,1
61,68,7,1
60,67,7,0
60,67,7,1
60,67,7,1
60,67,7,1
60,67,7,0
60,66,7,1
59,66,7,1
59,66,7,1
59,66,7,1
59,65,7,2
59,65,7,1
58,65,7,1
58,65,7,1
58,65,7,1
58,65,7,1
58,63,7,1
57,63,7,1
57,63,7,1
57,63,6,1
57,63,7,1
56,63,7,1
56,63,7,1
57,63,6,1
56,62,6,1
56,62,6,1
56,62,6,1
56,62,6,1
56,62,6,1
56,61,6,1
55,61,6,1
55,61,6,1
55,61,6,1
55,61,6,1
54,60,6,1
54,60,6,1
54,60,6,1
54,60,6,2
54,60,5,2
53,59,5,2
53,59,6,2
53,59,5,2
53,59,5,2
53,59,6,2
52,58,5,1
52,58,5,1
52,58,5,2
52,58,5,3
52,57,5,1
51,57,5,1
51,57,5,1
51,57,5,2
51,57,5,1
51,57,5,1
51,57,5,1
51,56,5,1
50,56,5,1
50,56,5,1
50,56,5,2
50,56,4,1
50,56,5,1
49,55,4,1
49,55,5,1
49,55,5,1
49,55,4,1
49,54,5,1
48,54,5,1
49,54,5,1
48,54,5,1
48,54,5,1
48,54,5,1
48,53,5,1
48,53,5,2
48,53,5,1
47,53,5,1
48,52,5,1
48,52,5,1
47,52,4,1
47,51,4,1
47,51,4,1
47,51,4,1
47,51,5,1
46,51,4,1
46,51,5,1
46,51,5,1
46,51,4,1
46,50,4,1
45,50,4,1
45,50,4,1
59,50,4,1
61,50,4,1
61,50,3,1
60,49,4,1
60,49,4,1
60,49,3,1
60,49,4,2
59,49,4,3
59,49,3,3
59,48,3,3
58,48,3,3
57,48,3,3
58,48,3,3
57,48,3,3
57,47,4,3
57,47,3,3
57,47,3,2
57,47,3,3
56,47,3,3
56,46,3,3
56,46,3,3
56,46,3,3
56,46,3,3
55,46,3,3
55,46,3,2
55,46,3,2
54,46,3,2
54,45,3,3
54,45,3,3
54,45,3,2
53,45,3,2
53,45,3,2
53,45,3,2
52,44,3,2
52,44,3,2
52,44,3,2
52,44,3,2
52,44,3,2
52,44,3,2
51,43,3,2
51,43,2,2
51,43,3,2
51,43,3,2
50,43,3,2
50,43,3,2
50,43,3,2
50,42,3,2
50,43,3,2
50,42,3,2
49,42,3,2
49,42,3,2
49,41,2,2
48,41,2,2
48,41,2,2
48,41,2,2
48,41,3,2
48,41,2,2
48,41,3,2
48,41,3,2
48,40,3,2
47,39,3,1
47,39,2,2
47,39,2,1
46,39,2,2
46,39,2,2
47,39,2,2
46,39,2,2
46,39,2,1
46,39,2,2
46,39,2,2
45,39,2,3
45,39,2,2
45,39,2,1
45,39,2,1
45,39,2,1
45,38,2,1
44,38,2,1
44,38,2,1
44,38,2,1
44,38,2,2
44,38,2,1
44,38,2,1
44,37,2,1
44,37,2,1
43,37,2,1
43,37,2,1
43,37,2,1
43,37,2,1
43,37,2,1
42,37,2,1
42,36,2,1
42,36,2,1
42,36,2,1
42,36,2,1
41,35,2,1
41,36,2,2
41,35,2,1
41,35,2,1
41,35,2,1
41,35,2,1
39,35,2,1
41,35,2,1
40,35,2,1
39,35,2,1
39,35,1,1
39,34,2,1
39,34,2,1
39,34,2,1
39,34,2,1
39,34,2,1
39,34,2,1
39,33,2,1
39,33,2,1
39,33,2,1
38,33,2,1
39,33,2,1
39,33,2,1
38,33,2,1
38,33,2,1
38,33,2,1
38,32,2,2
38,32,1,1
38,32,2,1
37,32,2,1
37,31,2,1
37,31,2,1
37,31,2,1
37,31,2,1
37,31,2,1
37,31,1,1
37,31,1,1
36,31,2,1
36,31,2,1
38,31,1,1
38,31,1,0
37,31,1,1
37,30,1,0
37,30,1,1
37,30,2,1
36,30,1,0
36,30,1,1
37,30,1,1
36,30,2,1
36,30,2,1
36,30,1,1
36,30,2,1
35,30,2,0
35,30,2,0
35,29,1,0
35,29,1,1
35,29,1,1
35,29,1,0
35,29,1,1
35,29,1,1
34,28,1,1
35,29,1,0
34,28,1,0
34,28,1,1
34,28,1,0
34,28,1,1
34,28,1,0
34,28,1,1
34,28,1,0
34,28,1,0
34,28,1,0
33,27,1,0
33,28,1,0
33,27,1,0
33,27,1,0
33,27,1,0
33,27,1,0
33,27,1,1
33,27,1,0
32,27,1,1
33,27,1,1
32,27,1,0
32,27,1,0
31,26,1,0
31,26,1,1
31,26,1,0
31,26,1,0
31,26,1,0
31,26,1,1
31,26,2,0
31,25,2,0
31,25,2,0
31,25,2,0
31,25,2,0
31,25,1,0
30,25,1,0
31,25,2,0
31,25,2,0
30,25,2,0
30,24,1,0
30,25,2,0
30,24,2,0
30,24,1,0
30,24,1,0
29,24,3,0
29,24,3,0
29,24,3,0
30,24,3,0
29,24,3,0
29,24,3,0
29,24,3,0
29,24,3,0
31,24,3,0
31,24,3,1
31,24,3,0
31,23,3,0
30,23,3,0
30,24,3,0
30,23,3,0
30,23,3,0
30,23,3,0
30,23,3,0
30,23,3,0
30,22,3,1
30,22,3,0
29,22,3,0
29,22,3,0
30,22,3,0
29,22,3,0
29,22,3,0
29,22,3,0
29,22,3,0
29,22,3,0
29,22,3,0
29,21,3,0
28,22,3,0
28,22,3,0
28,21,3,0
28,21,2,0
28,21,3,0
28,21,3,0
28,21,3,0
28,21,2,0
28,21,2,0
28,21,3,0
28,21,2,0
28,20,2,0
27,21,2,0
27,20,3,0
27,20,3,0
27,20,3,0
27,20,3,0
27,20,2,0
27,20,2,0
27,19,2,0
27,19,3,0
30,19,2,0
31,19,2,0
31,19,2,0
31,19,2,0
30,19,2,0
31,19,2,0
30,19,2,0
30,19,2,0
30,19,2,0
30,19,2,0
30,19,2,0
30,19,2,0
29,19,2,0
29,19,2,0
29,19,2,0
35,19,2,0
34,18,2,0
34,18,2,0
34,18,2,0
34,18,2,1
34,18,2,0
33,18,2,0
33,18,2,0
33,18,2,0
33,18,2,0
33,17,2,0
33,18,2,0
32,18,2,0
32,18,2,0
32,17,2,0
33,17,2,0
33,17,1,0
33,17,2,0
33,17,2,0
33,17,1,0
33,17,2,0
32,17,2,0
32,17,1,0
32,17,1,0
31,17,2,0
31,16,2,0
31,17,1,0
31,17,2,0
31,17,1,0
31,16,1,1
31,17,1,0
31,16,1,0
31,16,1,0
31,16,1,0
31,16,1,0
31,15,1,0
31,16,1,0
30,16,1,0
30,16,1,0
30,15,1,0
30,15,1,0
30,15,2,0
30,15,2,0
30,15,1,0
31,15,1,0
31,15,1,0
31,15,1,0
31,15,1,0
31,15,1,0
31,15,1,0
30,15,1,0
30,15,1,0
30,15,1,0
30,15,1,0
30,15,1,1
29,14,1,0
29,15,1,0
29,14,1,0
29,14,1,0
35,14,1,0
34,14,1,0
34,14,1,0
34,14,1,0
34,14,1,0
34,14,1,0
34,14,1,0
33,14,1,0
33,14,1,0
33,14,1,0
33,14,1,0
33,14,1,0
32,14,2,0
32,14,1,0
35,16,1,0
36,16,1,0
36,16,1,0
35,16,1,0
35,16,1,0
35,15,1,0
35,15,1,0
35,16,1,0
35,15,1,0
35,15,1,0
35,15,1,0
34,15,1,0
34,15,1,0
34,15,1,0
34,15,1,0
43,15,1,0
44,15,1,0
44,15,1,0
43,15,1,1
43,15,1,0
43,14,1,0
43,15,1,0
42,15,1,0
42,15,1,0
42,14,1,0
42,14,1,0
41,14,1,0
41,14,1,0
41,14,1,0
43,14,1,0
60,14,1,0
60,14,1,0
60,14,1,0
59,13,1,0
59,14,1,0
59,14,1,0
58,13,1,0
58,14,1,0
58,14,1,0
57,13,1,0
57,13,1,0
57,13,1,0
57,13,1,0
56,13,1,1
56,13,1,0
57,13,1,0
57,13,1,0
57,13,1,0
56,13,1,0
56,13,1,0
56,13,1,0
56,13,1,0
56,13,1,0
55,12,1,0
55,12,1,0
55,12,1,0
54,13,1,0
54,12,1,0
54,12,0,0
59,12,1,0
58,12,0,0
58,12,1,0
58,12,1,0
57,12,0,0
57,12,0,0
57,12,1,0
57,12,2,0
57,12,1,0
56,11,1,1
56,12,1,0
56,12,1,0
56,11,1,0
56,11,1,0
55,11,1,0
58,11,1,0
57,11,1,0
57,11,1,0
57,11,1,0
57,11,1,0
56,11,1,0
56,11,1,0
56,11,1,0
56,11,1,0
56,11,1,0
56,11,1,0
55,11,1,0
55,11,1,0
55,10,1,0
54,11,1,0
55,11,1,0
55,11,1,0
55,11,1,0
54,11,1,0
54,11,1,0
54,11,1,0
54,11,1,0
53,11,1,0
53,11,1,0
53,11,1,0
53,11,1,0
52,11,1,0
52,10,1,0
52,11,1,0
53,10,1,0
53,10,1,0
53,11,1,0
52,10,1,0
52,10,1,0
51,10,1,0
51,10,1,0
51,10,2,0
51,10,2,0
51,10,2,0
51,9,2,0
50,10,2,0
51,9,2,0
50,9,2,0
50,10,2,0
50,31,1,1
50,30,2,0
49,30,2,0
49,30,2,0
49,30,2,0
48,30,1,0
49,30,2,0
48,29,2,1
48,29,2,0
48,29,2,1
48,29,2,0
47,29,2,1
48,28,2,0
47,28,2,0
47,29,2,1
55,33,2,0
55,33,2,1
54,33,2,0
54,33,2,1
53,32,2,0
53,32,2,0
53,31,2,1
52,31,2,1
52,32,2,1
52,31,2,1
51,31,2,1
51,31,2,1
51,31,2,1
51,31,2,1
51,39,2,1
51,39,2,1
51,39,2,1
51,39,2,1
51,38,2,1
50,38,2,1
50,38,1,1
50,38,2,1
50,37,2,2
49,37,2,1
49,37,2,1
49,37,2,1
48,37,2,1
48,37,2,1
48,36,2,1
59,44,1,1
61,44,1,1
61,44,2,1
60,43,2,1
60,43,1,1
60,43,1,1
60,42,1,1
59,42,2,1
59,42,2,1
59,42,1,1
59,41,1,1
58,41,2,1
58,41,2,1
57,41,1,1
57,41,2,1
59,70,1,1
59,69,2,1
58,69,1,1
58,69,1,2
58,68,1,1
57,67,1,1
57,67,2,1
57,67,1,2
57,66,2,2
57,66,1,2
56,66,1,1
56,66,2,1
56,65,1,1
56,65,1,1
56,82,2,2
57,86,1,2
57,86,1,1
57,85,1,1
56,84,1,1
56,84,1,1
56,83,1,2
56,83,3,2
56,83,3,2
55,83,3,2
55,82,3,2
55,81,2,2
54,81,3,2
54,81,3,2
54,80,2,3
57,81,3,2
66,86,2,2
65,85,2,2
65,85,2,2
65,85,2,2
64,84,2,1
63,83,2,1
63,83,3,2
63,83,3,2
63,83,2,2
63,82,2,2
62,82,2,2
62,81,2,2
62,81,2,2
62,81,2,2
62,80,2,2
61,79,2,2
61,79,2,2
61,79,2,2
61,79,2,2
60,78,2,2
60,78,2,2
60,78,2,2
60,78,2,2
59,77,2,2
59,77,2,2
59,77,2,2
59,76,2,2
59,76,2,2
58,76,2,2
67,75,2,2
66,75,2,2
66,75,2,2
65,74,2,2
65,74,2,2
65,73,2,2
64,73,2,1
64,73,2,2
63,73,2,2
63,72,2,2
63,71,2,1
63,71,2,2
63,71,2,2
62,71,2,2
62,71,2,1
62,71,2,2
62,70,2,1
62,70,2,1
61,69,2,2
