29,114,0,24
29,113,0,24
29,113,0,24
29,120,0,24
29,120,0,24
29,118,0,24
29,118,0,24
28,117,0,24
29,117,0,24
28,115,0,24
28,115,0,24
28,115,0,23
28,114,0,23
28,114,0,23
27,113,0,23
27,113,0,23
27,139,0,23
28,140,0,23
28,139,0,23
28,138,0,23
27,137,0,23
27,135,0,23
27,135,0,22
27,135,0,22
27,134,0,22
27,134,0,22
26,133,0,22
26,132,0,22
26,131,0,21
26,140,0,22
28,145,0,22
28,143,0,22
28,143,0,21
27,142,0,22
28,142,0,21
27,141,0,21
27,140,0,21
27,140,0,21
27,139,0,21
26,138,0,21
26,137,0,21
26,137,0,20
26,135,0,22
27,135,0,22
27,135,0,22
27,135,0,22
26,134,1,21
26,134,1,21
26,133,0,21
26,132,1,21
25,131,1,21
25,131,1,21
25,130,0,21
25,129,1,20
25,129,1,20
25,132,0,20
27,137,1,20
27,135,1,19
27,135,0,20
27,135,1,20
26,134,0,19
27,133,1,19
26,133,0,19
26,132,0,19
26,131,1,19
26,131,1,19
25,130,1,19
25,129,0,19
25,129,1,19
29,130,1,19
30,130,0,19
29,129,0,19
29,128,1,18
29,127,0,19
29,127,1,18
28,126,0,18
28,125,1,18
28,125,0,18
28,125,0,18
28,124,0,18
28,124,0,18
27,126,0,29
28,141,0,29
28,139,0,28
28,138,0,28
28,138,0,28
28,137,1,28
28,135,0,28
27,135,0,28
27,135,0,28
27,135,1,28
27,134,0,27
27,133,0,27
27,132,0,27
26,131,0,27
26,131,0,27
26,131,0,27
26,130,0,27
26,129,0,27
25,128,0,26
25,127,0,26
25,127,0,26
25,127,0,25
25,126,0,26
25,125,0,25
25,125,0,25
25,124,0,25
24,124,0,25
26,129,0,25
26,128,0,25
26,127,0,25
25,126,0,25
25,126,0,25
25,125,0,24
25,124,0,24
25,124,0,24
25,124,0,24
25,123,0,24
25,122,0,24
24,122,0,24
24,155,0,28
71,216,0,27
71,213,0,27
71,211,0,27
70,210,0,27
70,209,0,27
69,207,0,27
69,207,0,26
68,206,0,26
68,204,0,26
67,204,0,26
67,203,0,25
67,201,0,26
67,200,0,30
82,199,0,30
81,199,0,29
81,198,0,29
80,196,0,29
80,195,0,29
79,195,0,28
79,193,0,28
78,193,0,29
78,192,0,28
78,191,0,28
78,190,0,28
77,189,0,28
77,246,0,28
76,307,0,27
76,385,0,27
76,382,0,27
75,430,0,27
75,450,0,27
75,447,0,27
74,444,0,26
74,441,0,27
73,438,0,26
73,435,0,26
73,432,1,26
71,430,0,25
71,523,0,26
71,659,0,25
151,736,0,25
245,726,0,25
249,719,0,25
248,713,0,25
246,707,0,25
244,700,0,25
243,694,0,24
242,688,0,25
240,683,0,24
239,675,0,24
238,670,0,24
237,665,0,26
303,660,0,26
300,654,0,25
304,649,0,26
302,643,0,25
300,639,0,25
299,633,0,25
295,628,0,24
295,624,0,25
294,620,0,25
291,614,0,24
290,610,0,24
289,643,0,31
287,810,0,31
285,903,0,31
284,910,0,30
283,913,0,30
281,913,0,30
280,901,0,30
278,887,0,30
277,878,0,30
275,869,0,29
273,857,0,29
271,850,0,29
271,841,0,30
270,834,0,31
268,824,0,31
267,816,0,31
265,809,0,31
263,802,0,31
263,793,0,31
262,786,0,31
261,780,0,30
259,773,0,30
258,764,0,30
256,758,0,30
255,752,0,30
254,833,0,30
253,905,0,30
251,910,0,30
251,911,0,30
249,909,0,30
248,891,0,30
247,881,0,29
246,871,0,29
243,864,0,30
243,853,0,29
242,845,1,29
241,838,0,29
240,830,0,29
238,819,0,29
237,812,0,28
236,805,2,29
235,798,6,28
234,827,5,28
233,904,6,28
231,910,6,28
231,913,5,28
230,915,5,28
229,915,5,28
227,906,5,27
227,889,5,29
225,880,5,43
225,907,5,43
224,911,5,42
223,914,5,42
221,916,5,42
221,919,5,41
219,920,5,41
219,922,5,41
217,922,5,41
216,921,5,41
216,917,5,39
215,899,5,39
214,885,5,39
213,873,5,39
212,864,5,39
211,856,5,39
211,847,5,39
209,838,5,39
209,831,5,39
207,823,5,38
207,816,5,38
206,807,5,38
205,799,5,38
204,793,5,38
203,786,5,38
206,777,5,42
205,770,5,42
205,764,5,41
203,758,5,41
202,749,5,41
201,743,5,41
201,737,5,40
199,732,5,39
199,724,5,39
198,719,5,39
197,713,4,39
195,707,5,39
195,700,4,39
237,696,5,39
287,690,4,39
285,685,4,39
283,679,4,39
281,673,4,38
280,669,4,38
278,664,4,38
276,657,4,38
275,653,4,38
273,648,4,37
271,644,4,37
270,638,4,38
269,633,4,43
268,629,4,43
317,625,4,42
327,620,4,42
326,615,4,42
323,611,4,41
322,607,4,41
319,603,4,41
318,598,4,41
316,594,4,41
315,590,4,39
313,587,4,41
369,582,4,39
365,578,4,39
363,711,4,39
359,755,4,39
358,745,4,39
355,739,4,39
354,733,4,39
352,727,4,39
350,718,5,39
348,713,4,38
346,707,4,38
344,701,4,38
342,694,4,38
340,706,5,38
339,701,6,38
336,695,9,38
335,687,9,37
333,681,9,37
332,676,9,37
329,671,9,37
327,665,9,37
326,659,9,36
324,655,9,36
323,649,9,35
321,643,9,35
319,639,9,35
318,634,9,35
316,630,9,35
314,624,7,35
313,619,7,35
312,615,7,35
310,611,7,34
308,605,7,34
307,601,7,34
305,597,7,34
304,593,7,34
302,588,7,34
300,583,7,35
299,579,7,35
297,575,7,35
295,571,7,35
294,568,7,34
293,563,7,34
291,560,7,34
290,556,7,34
289,552,7,33
287,549,7,33
286,546,7,33
284,542,7,33
283,539,7,33
281,536,7,33
280,531,7,33
280,527,7,33
278,525,7,33
277,521,7,33
275,519,7,32
273,515,6,32
272,511,7,33
271,508,7,32
270,505,7,31
269,503,6,31
268,499,6,32
266,606,6,34
265,601,6,33
263,596,6,33
263,590,6,33
261,585,6,32
259,582,6,33
259,577,6,32
257,572,6,32
255,568,6,31
255,564,6,31
254,560,6,31
252,555,6,31
252,551,5,37
251,547,6,36
249,543,5,36
248,539,6,35
247,536,5,36
246,532,5,35
244,529,5,35
243,524,5,35
242,521,5,35
241,518,5,34
240,515,5,35
239,510,5,34
238,507,5,34
237,504,5,34
245,501,5,34
243,496,5,34
243,494,5,33
242,491,5,33
240,487,5,33
239,485,4,33
238,482,5,33
237,480,4,32
236,476,4,33
234,473,4,32
233,506,4,31
231,662,4,31
231,655,4,31
230,649,4,31
229,643,4,31
228,638,4,31
227,633,4,31
226,627,4,30
225,622,4,30
224,618,4,30
223,614,4,30
222,608,3,30
221,603,4,30
220,600,3,34
219,595,4,34
218,589,3,34
217,585,3,33
295,581,3,33
292,577,3,33
291,572,3,33
289,568,3,33
318,564,3,33
316,560,3,33
313,556,3,32
312,551,3,32
310,548,3,31
308,545,3,31
318,541,3,31
384,537,3,31
381,534,3,31
378,530,3,31
376,527,3,31
374,523,3,31
371,519,3,30
369,516,3,30
367,513,3,30
365,508,3,30
363,505,3,30
361,502,3,31
359,499,3,31
357,495,3,31
355,492,3,31
353,489,3,31
352,487,3,31
413,483,3,30
408,480,3,31
406,477,3,30
402,475,3,30
399,471,3,30
398,468,3,29
396,466,3,30
393,463,3,30
391,460,3,30
388,457,3,29
386,455,3,30
384,453,3,29
382,449,3,29
380,448,3,29
377,445,3,29
376,443,3,28
373,440,3,29
371,438,3,28
369,435,3,28
367,433,3,29
366,430,3,29
364,428,3,29
362,425,3,29
359,423,3,28
359,421,3,28
357,419,3,28
355,416,3,28
353,414,3,28
351,412,3,28
349,409,3,27
457,408,3,27
585,406,3,36
731,403,3,37
806,401,3,36
894,399,3,36
905,397,3,35
905,395,2,35
893,393,3,35
881,391,3,35
872,389,3,35
864,386,3,35
856,384,3,35
846,383,3,35
838,381,3,45
830,379,3,46
823,377,3,46
816,375,3,46
807,373,3,45
801,371,3,45
793,369,3,45
787,368,3,44
779,366,3,44
773,364,3,44
766,361,3,44
760,359,2,44
753,359,2,43
747,357,2,44
741,355,2,44
735,353,3,43
729,352,2,43
723,350,2,43
718,348,2,43
711,346,2,43
707,344,2,42
701,344,2,42
696,341,2,42
691,339,2,41
685,338,2,41
679,336,2,41
675,334,2,41
670,333,2,41
665,332,2,41
659,330,2,39
655,327,2,39
651,327,2,39
646,325,2,39
641,323,2,39
637,322,2,39
633,319,2,39
628,319,3,39
624,318,2,39
620,316,2,38
615,315,2,38
611,313,2,38
608,312,3,38
603,310,2,38
599,308,2,38
595,307,2,37
591,306,2,37
588,304,2,37
583,303,2,37
580,302,2,37
576,300,2,36
573,299,2,37
569,297,2,37
566,295,3,37
562,295,2,36
558,293,2,36
555,292,3,36
551,291,2,35
548,289,2,35
544,287,2,35
542,286,2,35
538,286,2,35
535,284,2,34
531,283,2,35
528,281,2,36
525,280,2,36
522,280,2,35
519,278,2,35
515,276,2,35
513,275,4,35
510,274,4,35
506,272,4,34
504,271,4,34
501,270,3,34
498,269,4,34
495,268,4,34
492,267,4,35
489,265,4,35
487,263,4,35
484,263,4,35
481,262,4,34
479,261,4,34
476,259,4,34
473,259,4,34
471,257,3,34
468,255,4,33
466,255,4,33
463,254,4,33
461,253,4,35
459,252,5,37
455,251,7,37
454,249,7,37
451,248,7,36
449,248,7,37
446,246,7,36
444,245,7,35
441,243,7,35
440,243,7,35
437,242,7,35
435,241,7,35
432,240,7,35
430,239,7,34
428,238,7,34
425,237,7,34
423,236,9,34
422,235,7,34
419,234,8,34
417,233,7,34
415,231,7,33
413,231,7,33
411,230,7,33
409,229,7,33
407,227,7,33
404,227,7,39
403,226,7,39
401,225,7,39
399,224,7,38
397,223,7,38
395,222,7,38
393,222,7,38
391,220,7,37
389,219,7,37
387,218,7,37
385,217,7,36
384,216,7,37
382,216,7,37
380,215,7,36
377,214,7,36
376,213,7,35
375,211,7,35
372,211,7,35
371,210,7,35
369,209,7,35
367,208,7,35
365,207,7,35
364,207,6,35
361,206,7,34
359,205,7,35
359,204,6,36
357,204,6,35
355,202,6,35
353,201,6,35
352,201,6,35
350,199,6,35
349,199,6,35
347,198,6,35
345,198,6,35
344,197,6,34
342,196,6,34
340,195,6,34
339,194,6,37
337,194,6,37
335,193,5,37
334,192,5,37
333,191,5,37
332,190,5,36
330,190,6,37
329,189,6,36
327,188,5,36
326,187,5,35
323,186,5,35
323,185,5,35
321,185,5,35
319,184,5,35
319,184,5,34
317,183,5,35
315,182,5,34
314,181,5,34
312,181,5,34
312,179,4,34
310,179,4,34
308,178,5,33
307,178,4,33
306,176,5,33
304,176,4,33
303,176,4,33
302,175,4,33
300,174,4,33
299,173,4,32
298,172,4,32
297,172,4,31
295,171,4,31
294,170,4,31
293,169,4,31
291,169,4,31
290,167,4,31
289,167,4,31
287,167,4,31
286,195,3,31
285,193,3,30
284,192,3,30
283,191,3,30
281,190,3,30
280,188,3,30
280,188,3,30
278,187,3,29
276,186,3,29
275,185,3,29
274,184,3,29
273,183,3,29
271,182,3,32
271,181,3,31
270,180,3,31
269,179,3,31
268,178,3,31
267,177,3,31
265,176,3,31
263,176,3,31
263,175,3,31
262,174,3,30
261,173,3,30
259,172,3,30
259,171,3,31
257,171,3,30
255,169,3,30
255,167,3,30
254,167,3,30
253,167,3,30
252,167,3,30
251,166,2,29
250,165,3,29
249,164,2,29
248,164,3,29
247,163,2,29
246,163,2,29
245,162,2,29
243,161,3,29
243,159,2,29
242,159,2,29
241,159,3,28
240,158,2,28
239,158,3,28
238,157,2,28
237,156,2,28
236,156,2,28
235,155,2,27
234,180,2,27
233,291,2,27
231,359,2,27
231,355,2,27
231,353,2,26
229,352,2,26
229,349,2,27
227,347,2,26
227,344,2,26
225,343,2,26
225,340,2,26
224,338,2,26
223,335,2,25
222,335,2,25
221,332,2,25
220,331,2,25
220,327,3,25
219,327,4,25
217,325,3,25
217,323,3,24
216,321,3,24
215,319,3,24
214,318,3,24
213,316,3,24
212,315,3,24
211,313,3,24
211,352,3,25
210,350,3,25
209,348,3,24
208,345,3,25
207,343,3,24
207,341,3,24
206,339,3,24
205,337,3,24
204,335,3,24
204,333,3,24
203,332,3,24
202,393,3,24
201,515,3,24
199,704,3,24
199,707,3,24
199,701,3,24
198,695,3,23
197,687,3,24
196,681,3,23
195,675,3,23
195,670,3,23
194,664,2,23
193,659,2,22
192,654,2,22
192,647,2,23
191,642,2,24
190,637,2,24
190,632,2,24
189,627,3,24
188,622,3,23
187,617,2,23
187,613,2,22
185,609,2,22
185,604,2,22
184,600,2,22
184,595,2,22
183,591,2,22
182,586,2,22
181,582,2,22
181,578,2,22
179,574,2,22
179,569,2,22
179,566,2,21
178,562,2,21
177,558,2,21
177,553,2,21
176,550,2,21
175,547,2,21
174,543,2,21
174,539,2,23
173,536,2,23
172,532,2,24
172,529,2,23
171,524,2,22
171,521,2,22
170,518,2,22
169,515,2,22
167,511,1,22
167,508,2,22
167,504,2,22
167,502,2,22
166,498,2,22
165,495,1,23
165,492,1,23
164,489,1,23
163,486,1,22
163,483,1,22
162,480,2,22
161,478,1,22
161,474,1,22
159,472,1,22
159,469,2,22
159,466,1,22
158,463,1,21
158,460,1,22
157,457,1,21
156,455,1,21
156,452,2,21
156,449,1,21
155,447,1,21
154,445,2,21
153,443,1,21
153,440,1,20
153,437,1,21
152,435,1,20
152,432,1,20
151,429,1,20
150,427,1,20
150,425,1,20
149,423,1,19
149,419,1,19
148,417,1,19
147,415,1,19
147,414,1,19
146,411,1,19
146,408,1,19
145,407,1,19
144,404,1,19
143,401,1,19
143,399,1,19
143,398,1,20
142,396,1,19
142,393,1,19
141,391,1,19
141,389,1,19
140,387,1,19
140,385,1,19
139,383,1,19
139,381,1,19
138,379,1,18
137,377,1,19
219,376,1,20
225,373,1,19
224,371,1,19
223,369,1,20
221,367,1,19
220,365,1,19
219,364,1,19
217,361,1,19
217,359,1,19
216,358,1,18
215,356,1,19
213,354,1,18
243,352,1,18
281,351,1,19
280,349,1,19
277,347,1,19
275,345,1,19
274,344,1,19
271,342,1,19
271,339,1,18
269,338,1,18
268,337,1,18
266,335,1,18
265,333,0,18
263,332,1,18
262,331,1,19
261,329,1,19
259,327,0,19
258,325,1,19
257,323,1,19
255,322,1,19
254,319,1,19
253,319,0,19
252,318,1,19
250,316,1,18
249,315,1,18
248,313,0,18
247,312,1,19
327,310,1,19
349,309,0,19
346,307,1,19
344,305,0,18
342,304,1,18
339,303,1,18
338,301,0,18
335,300,1,18
334,299,0,18
332,297,0,18
331,295,1,18
327,294,0,18
327,293,0,18
325,291,0,18
323,290,0,17
321,289,0,17
319,287,0,17
318,286,0,17
316,284,1,17
315,284,0,17
313,282,0,17
312,281,0,17
310,280,0,17
308,278,1,17
307,277,1,18
305,275,1,18
304,274,0,18
302,273,1,18
300,271,0,18
299,271,1,18
297,269,0,18
295,268,0,18
295,267,0,18
293,265,1,17
291,263,1,17
290,263,0,17
288,262,0,17
287,261,0,19
285,259,1,18
284,258,1,18
283,257,0,18
281,255,1,18
280,255,0,18
279,254,1,18
277,252,0,17
276,251,0,17
275,250,0,17
273,249,0,17
271,248,0,17
270,247,0,18
269,246,0,18
268,244,0,18
267,243,0,18
265,243,0,18
263,241,0,18
263,240,0,17
262,239,0,17
260,239,0,17
259,237,0,17
258,236,0,17
257,235,0,17
255,234,0,17
254,233,0,18
253,231,0,18
252,231,0,18
251,230,0,17
249,229,0,17
248,227,0,17
248,227,0,17
246,226,0,17
245,225,0,17
243,224,0,17
243,223,0,17
242,222,0,17
240,221,0,17
240,220,0,17
238,219,0,17
237,219,0,17
236,217,0,17
235,216,0,16
234,216,0,17
233,215,0,17
231,214,0,16
231,213,0,16
230,211,0,16
229,211,0,16
227,210,0,17
227,209,0,16
225,208,0,16
224,207,0,16
224,207,0,16
222,206,0,16
222,205,0,16
221,204,0,15
220,203,0,16
219,202,0,15
217,201,0,15
217,199,0,15
216,199,0,15
215,199,0,15
214,198,0,15
213,197,0,16
212,196,0,16
211,195,0,15
210,195,0,15
209,194,0,15
208,193,0,15
207,192,0,15
206,192,0,15
206,190,0,15
204,190,0,15
204,189,0,20
203,188,0,20
202,187,0,20
201,187,0,19
199,186,0,19
199,185,0,19
199,184,0,19
198,184,0,19
197,183,0,19
195,182,0,19
195,181,0,19
194,181,0,19
193,179,0,19
192,179,0,21
192,178,0,21
191,177,0,21
190,176,0,20
189,176,0,20
188,176,0,20
188,174,0,20
187,174,0,19
186,173,0,19
185,173,0,19
185,172,0,19
184,171,0,19
183,170,0,21
182,169,0,21
182,169,0,21
180,167,0,21
179,167,0,20
179,167,0,20
178,166,0,20
177,166,0,21
177,165,0,20
176,164,0,19
175,163,0,19
174,163,0,19
174,162,0,19
173,161,0,19
172,161,0,19
172,159,0,19
171,159,0,19
170,158,0,19
169,158,0,19
169,158,0,19
167,157,0,19
167,156,0,18
167,156,0,18
166,155,0,18
165,154,0,18
165,153,0,19
163,153,0,19
163,152,0,19
162,152,0,19
162,152,0,19
161,151,0,19
161,150,0,19
159,149,0,19
159,149,0,19
158,148,0,18
158,147,0,19
157,147,0,18
156,146,0,21
156,146,0,21
155,145,0,21
155,145,0,21
154,144,0,21
153,143,0,20
153,143,0,20
152,142,0,20
152,142,0,20
152,141,0,19
151,141,0,19
150,140,0,19
149,140,0,20
149,139,0,20
147,139,0,20
147,138,0,20
147,137,0,20
146,136,0,19
145,135,0,19
144,135,0,19
144,135,0,19
143,135,0,19
143,134,0,19
142,134,0,19
142,133,0,19
141,132,0,19
141,131,0,19
140,131,0,19
140,131,0,19
139,130,0,18
139,130,0,18
138,129,0,19
137,129,0,18
137,127,0,18
135,127,0,18
135,127,0,18
135,126,0,18
135,126,0,18
135,126,0,18
134,125,0,17
133,124,0,17
133,124,0,17
132,124,0,17
131,123,0,17
131,123,0,17
131,122,0,17
130,122,0,17
130,121,0,17
129,121,0,17
128,120,0,17
128,120,0,17
127,120,0,17
127,119,0,16
126,119,0,16
126,118,0,16
126,117,0,16
125,117,0,16
125,117,0,16
124,116,0,16
124,115,0,16
123,115,0,15
123,114,0,16
122,114,0,16
122,114,0,16
121,113,0,15
121,113,0,16
121,112,0,16
120,112,0,16
120,112,0,15
119,111,0,15
119,110,0,15
118,110,0,15
118,110,0,15
117,109,0,15
117,109,0,15
116,109,0,15
115,108,0,15
115,108,0,15
115,107,0,15
114,107,0,15
114,106,0,15
113,106,0,15
113,105,0,15
113,105,0,14
112,103,0,15
112,103,0,15
112,103,0,15
111,103,0,20
111,103,0,20
110,103,0,19
110,102,0,19
109,102,0,19
109,102,0,19
109,101,0,19
108,101,0,19
108,100,0,19
107,100,0,19
107,99,0,19
106,99,0,19
106,99,0,18
105,98,0,19
105,98,0,19
105,97,0,18
105,97,0,18
103,97,0,18
103,96,0,18
103,96,0,18
103,96,0,18
103,95,0,18
103,95,0,17
102,95,0,17
101,95,0,17
101,94,0,21
101,94,0,21
100,93,0,21
100,93,0,21
99,93,0,20
99,92,0,20
99,92,0,21
99,92,0,20
99,91,0,19
98,91,0,19
98,91,0,19
98,91,0,19
97,90,0,19
97,89,0,19
96,89,0,19
96,89,0,19
96,89,0,19
96,88,0,19
95,88,0,19
95,88,0,19
95,88,0,19
94,88,0,19
94,88,0,18
94,87,0,18
93,86,0,18
93,86,0,18
92,86,0,18
92,85,0,18
92,85,0,18
92,85,0,18
92,85,0,18
91,84,0,18
91,84,0,18
91,84,0,18
90,83,0,17
89,83,0,18
89,83,0,17
89,82,0,17
89,82,0,17
89,82,0,17
88,82,0,17
88,81,0,18
88,81,0,19
88,81,0,19
88,80,0,19
87,80,0,18
86,80,0,19
86,80,0,18
86,79,0,18
86,79,0,18
86,79,0,18
85,79,0,18
85,79,0,17
84,78,0,18
84,78,0,18
84,77,0,18
83,79,0,18
83,78,0,18
83,78,0,17
83,78,0,18
82,78,0,17
82,77,0,18
82,77,0,17
81,77,0,17
81,76,0,17
81,76,0,17
80,76,0,17
80,75,0,16
80,75,0,16
80,78,0,16
79,95,0,16
79,94,0,17
79,94,0,16
79,93,0,16
78,93,0,16
78,92,0,16
78,92,0,16
78,91,0,16
77,91,0,15
77,91,0,15
77,90,0,15
77,89,0,16
76,89,0,15
76,88,0,16
76,93,0,17
76,92,0,16
75,92,0,16
75,92,0,15
75,91,0,16
75,90,0,15
74,91,0,16
74,90,0,15
74,89,0,15
73,89,0,15
73,89,0,15
73,89,0,15
73,88,0,15
73,88,0,19
73,88,0,19
73,87,0,18
72,87,0,19
71,86,0,18
71,86,0,18
71,85,0,18
71,85,0,18
71,84,0,18
71,84,0,18
71,83,0,17
70,83,0,18
70,83,0,17
70,83,0,17
70,93,0,18
69,93,0,18
69,92,0,18
69,92,0,17
69,91,0,17
69,91,0,18
68,90,0,17
68,90,0,17
67,89,0,17
67,89,0,17
67,88,0,17
67,88,0,17
67,88,0,17
67,87,0,17
67,87,0,26
67,87,0,26
66,86,0,26
66,86,0,25
66,86,0,25
66,85,0,25
65,85,0,25
65,84,0,25
65,84,0,24
64,83,0,25
65,83,0,24
64,83,0,24
63,83,0,24
63,82,0,24
63,89,0,26
63,88,0,26
63,88,0,26
63,87,0,26
63,87,0,25
63,86,0,25
62,85,0,25
62,85,0,25
62,85,0,25
62,84,0,25
62,84,0,24
61,83,0,25
61,83,0,25
61,94,0,24
61,108,0,24
61,106,0,24
60,105,0,24
60,105,0,24
60,105,0,24
60,103,0,24
59,103,0,24
60,103,0,24
59,103,0,24
59,102,0,23
59,101,0,23
59,101,0,23
58,100,0,23
60,100,0,28
60,100,0,28
59,99,0,28
59,99,0,28
59,98,0,27
59,98,0,27
59,98,0,27
59,97,0,27
58,97,0,26
58,96,0,27
58,96,0,26
57,96,0,26
57,95,0,26
57,95,0,26
57,112,0,26
57,111,0,26
57,110,0,25
56,110,0,25
56,109,0,25
56,108,0,25
56,108,0,25
56,108,0,25
56,107,0,25
55,106,0,25
55,106,0,24
55,105,0,24
55,105,0,24
54,103,0,24
54,103,0,24
54,103,0,24
54,103,0,24
54,103,0,24
53,102,0,24
53,102,0,23
53,101,0,23
53,100,0,24
52,100,0,23
52,99,0,22
52,99,0,23
51,99,0,23
51,98,0,23
51,98,0,23
52,97,0,22
51,97,0,23
51,96,0,22
51,96,0,22
51,96,0,22
51,95,0,22
51,95,0,21
50,94,0,22
50,94,0,22
50,94,0,21
50,93,0,21
49,93,0,22
51,98,0,22
51,97,0,22
50,97,0,21
51,96,0,21
50,96,0,21
50,96,0,21
50,95,0,21
50,94,0,21
49,94,0,20
49,94,0,21
49,93,0,21
49,93,0,21
49,92,0,20
49,99,0,21
49,101,0,21
49,101,0,21
49,100,0,20
49,99,0,20
48,99,0,20
48,99,0,20
48,98,0,20
48,98,0,20
48,97,0,19
48,97,0,19
48,96,0,19
48,96,0,19
47,96,0,19
47,95,0,24
48,95,0,24
48,94,0,24
48,94,0,24
48,93,0,23
48,93,0,23
48,93,0,23
47,92,0,23
47,92,0,23
47,92,0,23
46,91,0,22
46,91,0,22
46,90,0,22
46,90,0,22
78,89,0,24
83,89,0,23
83,89,0,23
82,89,0,23
82,88,0,22
81,88,0,22
81,88,0,22
81,87,0,22
79,86,0,22
79,86,0,22
79,86,0,22
79,85,0,22
79,85,0,22
78,84,0,26
78,86,0,35
78,85,0,34
77,85,0,34
77,84,0,34
76,84,0,33
76,83,0,33
76,83,0,33
76,83,0,33
75,83,0,33
75,82,0,33
75,82,0,32
74,81,0,31
74,81,0,32
73,81,0,31
73,103,0,31
73,102,0,31
71,102,0,31
71,101,0,31
71,101,0,31
71,100,0,31
71,99,0,31
71,99,0,31
70,99,0,30
70,98,0,31
70,97,0,30
69,97,0,30
69,97,0,30
69,96,0,33
69,96,0,33
69,96,0,32
69,95,0,32
68,94,0,32
68,94,0,31
68,94,0,31
67,93,0,31
67,93,0,31
67,92,0,31
67,92,0,31
67,91,0,31
66,91,0,31
66,91,0,30
66,91,0,31
67,90,0,31
67,89,0,31
67,89,0,31
66,89,0,30
66,88,0,30
66,88,0,30
65,88,0,30
65,87,0,30
64,87,0,30
65,87,0,29
65,86,0,29
63,85,0,29
63,85,0,29
67,96,0,29
66,95,0,29
65,95,0,29
66,94,0,29
65,94,0,29
65,93,0,28
65,93,0,28
64,93,0,28
63,92,0,28
63,92,0,28
63,91,0,27
63,91,0,27
62,90,0,27
62,90,0,27
67,89,0,27
69,89,0,27
69,89,0,27
69,89,0,26
68,88,0,27
67,88,0,26
67,88,0,26
67,87,0,26
67,87,0,26
67,86,0,26
67,86,0,25
66,85,0,25
66,85,0,25
66,85,0,25
73,107,0,25
71,105,0,25
71,105,0,25
71,105,0,25
71,103,0,25
71,103,0,24
70,103,0,24
70,102,0,24
70,102,0,24
70,101,0,24
69,101,0,24
69,100,0,24
68,99,0,24
71,103,0,24
70,103,0,24
70,103,0,24
70,103,0,24
70,102,0,23
69,102,0,24
69,102,0,23
68,100,0,23
68,100,0,23
67,99,0,23
67,99,0,22
67,99,0,22
67,98,0,22
67,98,0,22
66,97,0,22
66,97,0,22
66,97,0,22
65,96,0,22
65,96,0,22
64,95,0,22
64,95,0,21
64,94,0,21
63,94,0,21
63,94,0,21
63,93,0,21
63,93,0,21
62,92,0,21
67,103,0,24
69,102,0,24
69,102,0,24
68,101,0,24
67,101,0,24
67,101,0,24
67,99,0,24
67,99,0,23
66,99,0,23
66,98,0,23
66,98,0,23
65,97,0,23
65,97,0,22
65,127,0,27
67,142,0,26
66,141,0,26
66,140,0,26
65,140,0,25
65,139,0,25
65,138,0,25
64,137,0,25
64,137,0,25
63,135,0,25
63,135,0,25
63,135,0,24
63,134,0,24
63,133,0,24
65,132,0,24
65,132,0,25
65,131,0,24
64,131,0,24
64,130,0,24
63,129,0,24
63,129,0,24
63,128,0,24
63,127,0,24
62,127,0,24
62,126,0,24
62,126,0,23
62,125,0,23
87,125,0,23
86,124,0,23
86,124,0,23
85,123,0,23
85,122,0,22
85,121,0,22
83,121,0,22
83,120,0,22
83,120,0,22
83,120,0,22
82,119,0,22
82,118,0,22
81,118,0,22
86,121,0,21
86,121,0,21
85,120,0,21
84,119,0,21
84,119,0,21
83,118,0,21
83,118,0,21
83,117,0,20
83,117,0,21
82,115,0,20
81,115,0,20
81,115,0,19
81,115,0,21
81,122,0,21
80,121,0,21
79,120,0,21
79,120,0,21
79,119,0,21
79,119,0,21
78,118,0,21
78,117,0,21
78,117,0,20
77,116,0,20
77,115,0,20
77,115,0,20
76,115,0,20
77,117,0,23
78,117,0,22
77,115,0,22
77,115,0,22
77,115,0,22
76,114,0,22
76,114,0,22
76,113,0,21
75,113,0,21
75,112,0,21
74,112,0,21
74,111,0,21
74,111,0,21
76,112,0,22
75,112,0,21
75,112,0,21
75,111,0,21
74,111,0,21
74,110,0,21
73,110,0,21
73,109,0,21
73,109,0,20
72,108,0,20
71,108,0,20
71,107,0,20
71,106,0,20
71,106,0,21
71,106,0,21
71,105,0,21
71,105,0,21
71,103,0,21
71,103,0,21
70,103,0,20
70,103,0,20
69,102,0,20
69,102,0,20
68,102,0,20
68,101,0,20
67,101,0,19
74,139,0,27
77,137,0,26
76,137,0,26
76,135,0,26
76,135,0,25
76,135,0,25
75,134,0,25
75,133,0,25
74,132,0,25
74,131,0,25
73,131,0,24
73,130,0,24
73,130,0,24
83,131,0,24
89,131,0,24
89,131,0,24
88,131,0,24
88,130,0,24
88,129,0,24
87,128,0,24
87,127,0,24
86,127,0,24
86,127,0,24
85,126,0,24
85,125,0,23
84,124,0,23
84,124,0,23
83,124,0,23
83,123,0,23
83,122,0,22
82,122,0,22
82,121,0,22
81,121,0,22
81,120,0,22
81,120,0,22
81,119,0,21
80,119,0,21
79,118,0,21
79,117,0,21
79,141,0,22
79,143,0,21
78,142,0,21
78,141,0,21
78,140,0,21
77,140,0,20
77,139,0,20
76,139,0,21
76,138,0,21
76,137,0,20
76,135,0,20
75,135,0,20
75,135,0,20
74,134,0,21
79,134,0,21
78,134,0,21
78,133,0,21
77,132,0,21
77,131,0,20
77,131,0,20
76,130,0,20
76,130,0,20
76,129,0,20
75,128,0,20
75,127,0,19
74,127,0,19
74,126,0,25
74,130,0,25
74,129,0,25
73,129,0,25
73,127,0,24
73,127,0,25
71,127,0,24
71,126,0,24
71,126,0,24
71,125,0,24
71,124,0,24
71,124,0,24
70,123,0,24
70,122,0,24
71,125,0,24
71,125,0,24
71,124,0,23
70,124,0,23
70,123,0,24
69,123,0,23
69,121,0,22
68,121,0,22
68,121,0,22
68,120,0,22
67,120,0,22
67,119,0,22
67,121,0,30
67,151,0,33
67,149,0,33
67,149,0,32
67,147,0,31
66,147,0,31
66,147,0,31
65,145,0,31
65,145,0,31
65,143,0,31
64,143,0,31
64,142,0,31
64,142,0,31
63,141,0,30
85,141,0,30
85,141,0,30
84,140,0,30
84,139,0,30
83,138,0,30
83,137,0,30
83,137,0,30
83,135,0,29
82,135,0,29
82,135,0,29
81,134,0,29
81,134,0,29
80,133,0,29
79,133,0,29
79,132,0,28
79,131,0,28
79,131,0,28
79,131,0,28
78,129,0,28
78,129,0,28
77,128,0,28
77,127,0,27
77,127,0,27
76,127,0,27
76,126,0,27
76,125,0,27
82,141,0,27
81,140,0,27
81,140,0,26
81,139,0,26
80,138,0,27
80,137,0,26
79,137,0,25
79,135,0,25
78,135,0,25
78,135,0,25
78,134,0,25
78,134,0,25
77,133,0,25
77,140,0,27
77,139,0,27
76,138,0,27
76,137,2,26
76,137,2,26
75,135,2,26
75,135,2,25
75,135,2,25
74,134,2,25
73,134,2,25
73,133,1,25
73,132,2,45
73,131,2,81
76,135,1,82
76,135,3,81
76,135,20,81
75,134,22,80
75,133,22,79
74,132,22,79
74,131,22,79
73,131,21,79
73,130,21,78
73,129,21,78
72,129,21,120
71,128,21,149
71,127,20,147
71,134,20,147
71,133,20,145
71,132,20,144
71,131,20,143
71,131,19,143
70,130,19,142
70,130,19,142
69,129,19,140
69,128,19,140
69,127,19,139
68,127,19,139
70,134,19,137
77,133,18,137
77,132,18,135
76,131,19,135
76,131,18,135
76,130,18,134
75,129,18,133
75,129,18,133
74,127,18,132
73,127,18,131
73,126,17,131
73,126,17,131
79,131,17,132
79,132,17,131
79,131,17,131
79,131,17,130
78,130,17,129
78,129,16,129
77,129,17,128
77,127,16,127
76,127,16,127
76,126,16,126
76,126,16,140
75,125,16,223
78,131,15,257
77,131,15,255
77,130,15,253
76,129,15,251
76,128,15,249
76,127,15,248
75,127,15,247
75,126,15,245
75,126,15,243
74,125,15,243
74,124,14,241
73,124,15,240
73,123,15,239
73,122,14,238
73,121,14,236
71,121,14,235
71,120,14,233
71,120,14,231
