9,153,9,23
9,153,9,24
9,152,9,23
9,151,9,23
9,150,9,23
8,150,9,22
9,149,9,22
9,148,9,22
7,148,8,22
9,167,9,22
9,172,9,22
13,171,9,22
12,170,9,21
12,169,7,21
12,167,7,21
12,167,8,21
12,166,9,21
12,166,9,21
12,165,9,21
12,164,7,20
11,163,7,21
12,162,8,20
11,162,7,20
12,162,7,20
11,162,7,20
12,161,7,19
11,159,7,19
11,159,7,19
11,158,7,19
11,158,7,19
11,157,7,19
11,156,7,19
11,155,7,19
11,155,7,19
11,153,7,19
11,155,7,19
11,166,7,19
11,165,7,18
11,163,7,18
11,163,7,18
11,162,7,18
11,161,7,18
11,160,7,18
11,159,7,18
11,159,7,18
11,158,7,18
11,157,7,17
10,156,7,17
10,156,7,18
10,162,7,17
11,161,7,17
11,160,7,17
11,159,7,17
11,158,7,17
11,158,7,17
10,157,7,16
10,156,7,17
11,156,8,16
11,155,7,16
10,154,7,17
10,153,7,16
10,152,7,15
10,167,7,16
11,166,7,15
12,166,7,16
12,164,7,15
12,163,7,15
12,163,7,15
11,162,10,15
11,161,11,15
11,160,10,15
11,159,10,15
11,159,11,15
11,158,10,15
11,159,10,15
12,161,10,15
12,159,10,15
12,159,10,14
12,158,9,14
12,157,9,14
12,157,10,14
12,156,10,14
11,155,10,14
11,155,10,14
11,153,10,14
11,153,10,14
11,152,10,14
11,159,9,14
11,165,10,13
11,163,9,13
11,163,9,13
12,162,9,14
11,161,9,13
11,160,11,13
11,159,11,13
11,159,11,13
11,158,11,13
11,157,11,13
10,156,10,13
11,156,11,12
11,165,11,12
11,164,10,13
11,163,10,12
11,162,10,12
11,161,10,12
11,161,13,12
11,159,14,12
10,159,14,12
11,158,14,12
10,157,14,12
10,156,14,12
10,155,14,12
10,167,14,12
11,167,14,12
11,166,14,11
11,165,13,11
11,163,13,11
11,163,13,11
10,162,14,11
11,161,14,11
10,160,14,11
10,159,14,11
10,159,13,11
10,158,14,11
10,157,13,10
10,156,13,11
10,156,14,10
10,155,13,11
10,154,13,10
10,153,13,10
10,152,14,10
10,152,14,10
10,151,14,10
10,150,13,11
9,149,13,10
9,148,13,10
9,147,13,10
9,152,13,9
10,150,13,9
10,150,13,9
9,149,13,9
9,148,13,9
9,147,13,9
9,147,13,9
10,146,13,9
9,145,13,9
9,145,12,9
9,143,12,9
9,143,13,9
9,143,12,9
10,142,12,9
17,181,12,9
68,187,12,9
76,185,12,9
76,184,12,9
89,184,12,10
191,183,12,12
245,181,12,12
243,180,12,12
241,179,12,11
240,178,12,12
238,177,12,11
236,198,12,11
235,300,11,11
233,382,11,11
231,379,11,11
231,376,12,11
230,373,11,11
228,371,11,11
227,368,12,11
225,366,12,11
225,363,11,11
223,361,11,10
222,359,11,11
221,356,11,11
220,355,11,10
219,352,11,10
217,350,11,10
216,348,11,10
216,345,11,9
214,344,11,11
213,341,11,12
211,339,11,11
211,337,11,11
210,335,11,11
209,334,11,11
207,332,11,11
206,330,11,11
206,327,10,11
204,326,10,11
204,325,11,11
203,322,10,11
201,321,11,10
199,319,11,11
199,317,10,10
199,315,11,10
197,313,11,10
197,312,10,10
195,310,10,10
195,308,10,10
193,306,10,10
192,305,10,10
192,304,10,10
191,302,10,10
190,300,12,10
189,298,12,10
188,297,12,9
187,295,11,9
186,294,12,10
185,292,11,10
184,397,12,9
184,428,11,10
183,425,11,9
182,422,11,9
181,419,11,9
180,415,11,9
179,414,12,9
179,412,12,9
178,408,11,9
177,406,12,9
176,403,11,9
176,401,11,9
174,459,11,9
174,473,11,9
173,470,11,9
172,467,11,9
171,463,11,9
171,460,11,7
170,457,12,9
169,454,12,8
167,451,12,7
167,448,13,7
167,445,12,7
230,443,12,7
246,439,12,7
243,436,12,7
242,434,12,7
241,432,12,7
240,428,12,7
238,425,12,7
237,423,13,9
236,421,15,9
235,418,15,9
233,415,15,9
231,413,14,9
231,411,14,9
230,408,14,9
229,406,15,9
227,403,14,9
226,401,14,9
225,399,14,8
224,396,14,9
223,394,14,8
222,391,15,9
220,390,16,9
220,387,15,8
218,385,15,7
217,383,15,9
216,381,15,7
216,502,15,8
214,539,15,7
213,536,15,7
212,531,15,7
211,526,15,7
210,522,23,7
209,519,34,7
207,515,35,7
207,511,35,7
206,508,34,7
205,504,34,7
204,501,34,7
203,497,34,7
202,494,34,7
201,491,33,7
199,487,33,7
199,483,33,7
198,481,33,7
198,478,32,7
196,476,32,7
195,472,32,7
195,469,31,7
194,466,31,7
193,463,31,7
192,460,31,7
191,457,31,7
209,455,31,7
207,452,31,7
206,449,31,7
205,446,31,7
204,444,30,7
203,441,30,7
201,438,30,7
201,435,30,7
199,433,30,7
199,431,30,7
198,428,29,7
197,489,29,7
196,499,29,7
195,496,29,6
194,492,29,6
193,487,29,7
192,486,28,6
192,483,28,6
191,478,28,6
189,475,28,6
189,472,28,6
188,470,28,6
187,466,27,6
186,463,27,6
185,460,27,6
184,457,27,7
183,454,27,6
183,451,27,6
182,449,27,6
181,446,26,6
179,443,27,6
179,440,26,5
178,438,26,6
177,435,26,5
177,433,25,5
176,429,25,5
175,427,25,5
176,425,25,5
266,423,25,5
263,419,25,5
262,417,25,5
260,415,25,5
259,412,29,5
257,409,30,5
255,408,29,5
254,406,29,5
253,403,29,6
252,401,29,5
274,398,28,5
284,396,28,5
281,394,28,5
280,391,28,5
279,390,28,4
277,387,30,5
275,386,62,5
274,383,71,5
272,381,71,4
271,379,71,4
269,377,70,4
268,375,70,5
267,373,69,4
265,371,69,4
263,369,69,4
263,367,67,4
261,365,67,4
259,443,67,4
259,483,67,4
257,480,67,38
255,476,66,38
254,473,66,38
253,469,65,37
251,467,65,37
250,463,65,37
249,531,64,36
248,526,63,35
246,522,63,35
245,518,63,35
243,513,63,35
243,510,63,35
241,505,62,35
240,503,62,35
239,499,62,35
238,495,61,35
236,492,61,35
235,487,61,35
235,485,60,34
233,481,60,34
231,478,60,33
231,475,60,34
229,472,59,33
229,469,59,34
227,465,58,34
226,462,58,34
225,460,58,34
224,455,58,34
223,453,57,33
222,450,57,33
221,448,57,33
219,444,56,32
218,441,56,33
217,439,56,32
216,435,56,32
216,433,55,31
214,430,55,31
213,428,54,31
245,425,54,31
364,423,54,31
467,420,54,31
573,417,54,31
610,415,53,31
604,412,53,30
598,409,52,30
593,408,52,31
589,405,52,31
583,403,51,31
579,399,51,31
575,398,51,31
571,396,51,31
567,393,51,31
562,391,50,31
558,432,50,30
555,443,50,30
551,440,49,30
546,436,49,30
543,434,49,30
539,430,49,29
536,428,48,29
531,423,48,30
527,422,48,29
524,419,48,29
521,415,48,29
518,446,47,28
514,632,47,28
510,658,47,28
507,651,46,28
504,645,46,28
500,639,46,28
497,633,46,28
494,629,45,28
491,623,46,27
487,618,45,27
485,614,45,27
482,608,44,27
479,604,45,27
476,695,44,27
473,724,44,26
470,716,44,26
467,709,44,25
465,704,43,26
462,696,43,26
459,690,43,25
455,683,43,25
454,678,42,25
451,671,42,25
448,665,42,25
446,661,42,25
443,654,41,25
441,649,41,24
438,643,41,24
435,638,41,24
433,633,39,24
431,627,39,24
428,623,39,24
425,617,39,24
423,613,39,24
421,609,39,24
419,603,39,24
415,605,39,23
414,761,39,22
412,754,39,23
409,745,39,23
408,738,38,23
404,732,38,23
403,724,38,23
463,718,38,23
459,711,38,22
455,705,37,22
453,699,37,22
450,691,37,22
447,687,36,22
444,679,36,21
441,675,36,22
439,668,36,21
435,663,35,21
433,658,35,21
430,652,35,20
427,647,35,21
423,639,35,20
422,636,35,20
419,632,34,20
417,625,35,20
415,785,34,20
412,881,34,19
409,871,34,20
407,860,34,19
404,851,34,19
402,843,33,19
399,833,33,19
398,825,33,19
396,815,33,19
393,807,33,19
391,798,33,19
390,792,32,18
387,784,32,18
385,775,31,18
384,769,31,18
461,761,31,19
483,754,31,18
480,748,31,18
477,739,31,18
473,734,31,18
470,726,31,18
467,719,30,17
463,713,30,18
461,707,30,17
459,702,30,17
455,696,30,17
486,690,30,17
578,683,29,17
573,678,29,17
568,673,29,16
563,667,29,16
560,662,29,16
555,655,28,16
551,651,29,16
547,644,28,16
543,639,28,16
540,636,28,15
536,630,28,15
532,625,28,15
529,620,28,15
536,615,28,15
542,611,28,15
538,606,28,15
534,602,27,15
530,597,27,15
526,593,27,15
523,588,27,15
519,583,26,15
515,580,27,14
512,575,27,14
509,572,26,14
505,568,26,16
502,563,26,24
499,560,25,27
495,556,25,27
492,551,25,27
489,547,25,26
486,544,25,27
483,540,25,26
480,537,24,26
477,534,25,26
474,529,25,25
472,526,25,25
468,522,24,25
465,519,25,25
463,516,26,25
460,512,26,24
457,509,25,25
454,505,25,25
451,502,25,25
449,499,25,24
599,496,25,24
760,493,25,24
890,489,25,46
907,487,24,46
911,483,24,60
914,480,26,59
913,478,26,58
904,474,26,57
888,472,25,57
878,468,25,57
869,465,25,57
860,462,25,57
851,460,25,56
842,457,25,56
834,454,25,56
826,451,24,56
818,449,24,55
810,446,24,55
803,444,24,54
795,441,24,54
787,439,24,54
781,435,24,53
774,433,24,53
767,431,24,52
760,428,24,52
753,425,23,52
747,423,23,51
740,421,23,51
734,418,23,51
728,415,22,51
721,414,22,51
716,411,22,50
710,409,22,50
704,407,22,50
699,404,22,50
693,402,22,49
688,399,22,49
682,398,22,49
677,396,21,48
671,393,21,49
666,391,21,49
661,389,21,49
655,387,21,48
652,385,21,48
647,383,21,48
641,380,21,48
637,379,20,47
632,376,20,47
627,374,20,47
623,373,20,47
619,370,19,46
614,368,19,46
610,366,19,46
606,364,19,46
601,363,19,45
597,359,19,45
593,359,19,45
589,357,19,44
585,355,19,44
581,353,19,44
577,352,19,44
574,350,19,44
569,348,18,43
566,346,18,43
562,344,18,43
558,343,17,43
555,340,18,43
551,339,17,43
547,337,18,42
543,335,17,42
541,334,17,41
537,332,17,41
534,330,17,41
531,329,17,41
527,327,17,41
524,325,17,39
521,323,17,39
518,322,17,39
514,321,17,39
511,319,17,39
508,317,17,39
505,315,16,39
502,314,16,39
498,312,16,39
496,311,16,39
492,310,15,39
489,307,16,38
487,306,17,38
483,304,17,38
481,303,17,38
478,302,17,37
476,300,17,37
472,299,17,37
470,297,17,36
467,295,16,36
465,294,16,36
462,293,16,36
460,291,16,36
457,290,15,36
454,289,16,35
451,287,16,35
449,286,16,35
447,284,15,35
444,283,15,35
441,282,15,35
440,280,15,34
437,280,15,35
435,278,15,34
432,276,15,34
430,275,15,34
428,274,15,33
425,272,15,33
423,271,15,33
421,270,15,33
418,269,15,33
415,267,15,33
414,266,15,33
412,263,15,32
409,263,15,31
408,262,15,31
405,261,14,31
403,259,14,31
401,258,14,31
399,257,15,31
397,255,15,31
395,255,15,31
393,254,15,31
391,252,15,30
389,252,14,30
387,250,14,30
385,249,14,30
383,248,14,30
381,247,14,30
379,246,14,29
377,244,18,29
375,243,28,29
373,242,28,29
371,241,28,29
369,240,28,29
368,239,27,28
366,238,27,28
364,236,27,28
363,236,27,28
359,235,27,28
359,233,26,28
357,231,26,28
355,231,27,28
353,231,26,27
352,229,26,28
350,228,25,27
348,227,25,27
347,226,25,27
345,225,25,27
344,224,25,27
342,223,25,26
339,222,25,26
338,221,25,26
337,220,25,26
335,219,24,26
333,218,24,26
332,217,24,26
330,216,24,25
329,215,24,25
327,214,23,25
326,214,24,25
324,212,23,25
323,211,23,25
321,210,23,25
319,209,23,25
318,209,23,25
316,207,23,24
315,207,22,24
313,206,22,24
312,205,22,24
311,204,22,24
310,203,22,24
307,203,22,24
306,201,22,24
305,199,21,24
304,199,21,23
302,199,21,23
301,198,21,24
300,197,21,23
298,196,21,24
297,195,20,23
295,194,21,23
294,193,20,23
292,193,19,22
291,192,20,22
290,191,20,22
289,190,19,22
287,189,19,22
286,188,19,22
285,188,19,22
284,187,19,21
283,186,19,21
281,185,19,21
280,184,19,21
279,184,19,21
277,184,18,21
275,182,18,20
275,181,18,20
274,180,18,20
272,179,18,20
271,179,18,20
270,178,18,19
268,177,18,19
268,177,18,19
266,176,18,19
265,175,17,19
263,174,18,19
263,226,17,19
262,238,17,19
261,236,17,19
259,235,17,19
258,233,17,18
257,231,17,18
255,231,17,19
255,229,17,18
254,228,16,18
252,227,16,18
252,225,16,18
251,224,16,18
249,227,16,17
248,225,16,18
248,224,16,17
246,223,15,17
245,221,15,17
244,220,16,17
243,219,15,17
242,218,15,17
240,217,15,17
240,216,15,17
239,215,15,17
238,324,15,17
236,398,15,16
236,394,15,17
235,391,15,16
233,388,14,16
231,385,15,16
231,383,15,16
230,380,14,16
230,377,14,15
229,375,14,15
227,372,14,16
227,370,14,16
225,368,14,15
225,366,14,15
224,364,14,15
223,361,14,15
222,359,13,15
221,356,14,15
220,355,13,15
219,353,13,15
218,350,13,15
217,348,13,14
216,346,13,14
216,344,13,14
215,342,13,15
214,340,13,14
213,338,13,14
211,335,13,14
211,335,12,14
210,332,12,14
209,331,13,14
208,329,13,14
207,327,13,14
207,325,13,14
206,323,13,14
205,321,12,13
204,319,12,13
203,317,12,13
202,316,12,13
201,314,12,13
199,312,12,13
199,311,12,13
199,309,12,13
198,307,12,13
197,305,12,13
197,304,12,12
196,302,12,12
195,300,12,12
194,299,12,12
193,297,11,12
193,295,11,12
192,294,11,12
191,292,11,12
190,290,11,12
189,289,11,12
188,287,11,12
188,286,11,12
187,285,11,12
187,283,11,11
185,281,10,12
185,280,11,11
184,279,10,11
184,277,10,11
183,275,10,11
182,274,10,11
181,273,10,11
180,271,10,11
179,270,10,11
179,268,10,11
178,268,10,11
177,265,9,10
176,263,9,10
176,263,9,11
176,262,9,10
175,260,9,10
174,259,9,10
173,258,9,10
172,257,9,10
172,255,9,10
171,254,9,10
171,253,9,10
170,252,9,10
169,250,9,9
167,249,9,10
167,248,9,9
167,248,9,9
167,246,9,9
166,245,8,9
166,243,9,9
165,243,7,9
164,241,7,9
163,240,8,9
163,240,7,9
162,238,7,9
162,237,7,9
161,236,7,9
161,235,7,9
159,235,7,9
159,233,7,9
159,231,7,8
159,231,7,9
158,230,7,8
157,229,7,8
157,228,7,7
156,227,7,7
156,226,7,7
155,225,7,7
155,224,7,7
154,223,7,8
153,222,7,7
153,286,7,7
153,284,7,7
152,282,7,7
152,280,7,7
151,280,7,7
150,277,7,7
149,276,7,7
149,274,7,7
148,272,7,7
147,271,7,7
147,270,7,7
147,269,7,7
146,267,7,7
146,343,6,7
145,339,6,7
145,337,6,7
144,335,6,7
143,334,6,7
143,332,6,7
143,330,6,7
142,327,7,7
141,326,6,7
141,323,6,7
141,322,7,7
140,320,6,7
139,319,7,7
139,317,6,7
139,316,6,7
138,314,6,6
137,312,6,6
137,311,6,6
135,309,6,7
135,307,14,6
135,305,14,6
135,304,14,6
134,302,14,6
134,301,14,6
134,299,14,6
133,297,14,6
133,295,13,6
132,295,13,6
131,292,13,6
131,291,13,6
130,289,13,6
130,287,13,6
129,286,13,7
129,285,13,6
128,283,13,6
127,282,13,6
127,280,13,5
127,280,13,6
126,278,13,6
126,276,12,5
126,275,12,5
125,273,12,5
125,271,12,5
124,271,13,7
124,269,14,10
123,268,14,9
123,266,14,9
122,265,13,9
121,263,13,9
121,262,13,9
121,289,13,9
120,326,13,9
120,323,13,9
120,321,13,9
120,319,13,9
118,317,13,9
118,315,12,9
117,313,13,9
117,312,12,9
117,310,12,9
116,307,12,9
115,306,12,8
115,304,12,8
115,303,12,9
114,301,12,8
114,300,12,8
114,298,12,7
113,295,12,7
113,294,11,7
112,293,12,9
112,291,12,7
111,290,12,7
111,287,12,7
111,286,11,7
110,285,11,9
110,337,11,7
109,376,11,7
109,374,11,7
109,371,11,7
108,369,11,7
108,366,11,7
107,364,11,7
107,361,11,7
107,359,10,7
106,357,11,7
106,355,10,7
105,353,10,7
105,352,10,7
103,349,10,7
103,347,10,7
103,345,10,7
103,344,10,7
103,341,9,7
102,339,9,7
102,337,9,7
102,335,9,7
101,334,9,7
101,332,9,7
101,331,9,7
100,329,9,7
100,327,9,6
99,326,9,7
99,323,9,6
99,322,9,6
99,320,9,6
98,319,9,6
98,317,8,6
98,316,9,6
97,315,9,6
97,313,9,6
97,312,9,6
96,310,9,6
96,308,8,6
96,307,8,6
95,305,8,6
95,304,8,6
94,302,7,6
94,301,9,6
94,300,7,6
94,299,7,6
93,297,7,6
93,295,7,6
93,294,8,6
92,293,7,5
92,291,7,5
92,290,7,5
92,289,7,5
91,287,7,5
91,286,7,5
91,285,7,6
90,284,7,6
90,282,7,5
89,281,7,5
89,280,7,5
89,278,7,5
89,277,7,5
88,275,7,5
88,274,7,5
88,273,7,5
88,272,7,5
88,271,7,5
88,270,7,5
87,268,7,5
87,267,7,5
86,266,7,5
86,265,7,5
85,263,7,5
85,262,7,4
85,261,7,4
85,260,7,4
84,259,7,5
84,258,7,4
83,257,7,5
83,255,7,4
83,254,7,4
83,253,7,4
83,252,7,4
82,251,7,4
82,249,7,4
82,248,7,4
81,248,7,4
81,247,7,4
81,246,7,4
80,244,9,4
80,243,9,4
80,243,9,4
79,241,9,4
79,240,9,3
79,239,9,3
79,238,9,3
79,238,9,3
78,236,9,3
78,236,9,3
78,235,9,3
78,233,8,3
77,231,9,3
77,231,9,3
77,230,9,3
76,229,9,3
76,228,9,3
76,227,9,3
76,227,9,3
76,225,9,3
76,225,9,3
75,224,8,3
75,223,8,3
74,222,8,3
74,221,7,3
74,220,7,3
74,219,9,3
73,218,9,3
73,217,9,3
73,216,9,3
71,216,9,3
71,215,8,3
71,214,8,3
71,213,7,3
71,212,9,3
71,211,7,3
71,210,7,3
71,209,7,3
71,208,7,3
70,207,7,3
70,207,7,3
70,206,7,3
70,205,7,3
69,204,7,3
69,204,7,3
69,203,7,3
69,201,7,3
69,201,7,3
68,199,7,2
68,199,7,3
67,199,7,2
67,198,7,3
67,197,7,3
67,197,7,2
67,195,7,2
67,195,7,2
66,194,7,3
66,193,7,2
66,192,7,3
65,192,7,2
65,191,7,2
65,190,7,3
65,189,7,2
65,189,7,2
64,188,7,2
64,187,7,2
63,187,7,2
63,185,7,2
63,185,7,2
63,184,7,2
63,184,7,2
63,183,7,2
62,182,7,2
62,182,7,2
62,181,7,2
62,180,7,2
62,179,7,2
62,179,7,2
61,178,7,2
61,177,7,2
61,177,6,2
61,176,7,2
60,176,7,2
60,175,7,2
60,174,7,3
60,173,7,2
60,173,7,2
59,172,7,2
59,172,7,2
59,171,6,2
59,170,7,2
59,169,6,2
58,169,6,2
58,167,6,2
58,167,6,2
58,167,6,2
57,167,6,2
57,166,6,2
57,165,6,2
57,164,6,2
57,164,6,2
56,163,6,1
57,163,6,2
56,162,6,2
56,161,6,1
56,161,6,1
56,160,6,1
56,159,6,1
56,159,6,1
55,158,6,2
55,158,6,2
55,157,6,2
54,157,6,1
54,156,6,2
54,156,6,1
53,155,5,1
54,155,5,2
53,156,5,1
53,158,6,1
53,158,5,2
52,157,5,1
53,156,5,1
52,156,5,1
52,155,5,1
52,155,5,1
51,153,5,1
51,153,5,1
51,152,5,1
51,152,5,1
51,152,5,1
51,151,5,1
51,199,5,2
51,202,5,1
50,201,5,1
50,199,5,1
50,199,5,1
50,198,5,1
50,197,5,1
49,196,5,1
49,195,5,1
49,194,5,1
49,193,5,1
49,192,4,1
48,192,4,1
48,191,4,1
48,246,4,1
48,248,4,1
48,247,4,1
48,245,4,1
48,243,4,1
48,242,4,1
47,241,4,1
47,240,4,1
47,238,4,1
47,238,4,1
47,236,4,1
46,235,4,1
46,234,4,1
46,233,4,1
46,260,4,1
46,259,4,1
45,257,4,1
45,255,4,1
45,254,3,1
45,254,4,1
45,252,4,1
45,251,4,2
45,249,4,1
44,248,4,1
44,247,4,1
44,246,4,1
44,245,4,0
44,243,4,1
44,243,4,1
43,241,4,1
43,240,4,1
43,240,4,1
43,238,4,0
43,237,4,1
43,236,3,1
42,235,4,1
43,233,4,1
42,231,4,0
41,231,4,0
42,230,4,1
41,230,4,0
41,228,4,0
41,227,3,1
41,226,4,1
41,225,3,0
41,224,3,1
41,223,3,1
41,222,3,0
39,221,3,1
39,220,3,0
39,219,3,1
39,218,3,1
39,217,3,0
39,216,3,0
39,216,3,0
39,214,3,1
39,213,3,1
39,212,3,1
39,211,3,0
39,210,3,0
39,209,3,0
38,209,3,1
38,207,3,0
38,207,3,0
38,206,4,1
38,205,3,0
38,204,3,0
38,203,3,0
38,203,3,0
37,201,3,0
37,199,3,0
37,199,3,0
37,199,3,1
37,198,3,0
37,197,3,0
37,196,3,0
36,195,5,0
36,194,4,0
36,194,4,0
36,192,4,1
36,192,4,0
35,191,4,0
35,191,4,1
35,189,5,0
35,189,4,0
35,188,4,1
35,187,4,0
35,186,4,0
35,185,4,0
35,185,4,0
35,184,4,0
35,183,4,0
34,182,4,0
34,182,4,0
34,180,4,0
34,180,4,0
34,179,4,0
34,179,4,0
33,178,4,0
33,177,3,0
33,176,4,0
33,175,4,0
33,175,3,0
33,174,3,1
32,173,3,0
33,173,4,0
32,172,4,0
32,171,3,0
32,171,3,0
31,170,3,0
31,169,3,0
31,167,3,0
31,167,3,0
31,167,3,0
31,167,3,0
31,166,3,0
31,165,3,0
31,164,4,0
31,163,3,0
31,163,3,0
31,162,3,0
31,161,3,0
30,161,3,0
30,159,3,0
30,159,3,0
30,159,3,0
30,158,3,0
30,158,3,0
30,157,3,0
30,157,3,0
29,156,3,0
29,155,3,0
29,155,3,0
29,153,3,0
29,153,3,0
29,153,3,0
29,152,3,0
29,152,3,0
29,151,3,1
28,150,3,0
28,150,3,0
28,149,3,0
28,149,3,0
28,147,3,0
28,147,3,0
28,147,7,0
28,146,7,0
28,146,7,0
28,145,7,0
27,145,7,0
28,144,7,0
27,143,7,0
27,143,7,0
27,143,7,0
27,142,7,0
27,142,7,0
27,141,7,0
27,141,7,0
26,140,7,0
26,140,7,0
26,139,7,0
26,139,6,0
26,138,6,0
26,137,6,0
26,137,6,0
25,135,7,0
25,135,6,0
25,135,6,0
25,135,6,0
25,135,6,0
25,134,6,0
25,134,6,0
25,133,6,0
25,133,6,1
24,132,6,0
24,131,6,0
24,131,6,0
25,131,6,0
24,130,6,0
24,130,6,0
24,129,6,0
24,129,6,0
24,128,6,0
24,127,6,0
24,127,5,0
24,127,5,1
24,126,5,0
24,126,5,0
24,126,5,0
23,125,5,0
24,125,5,0
24,124,5,0
23,124,5,0
23,123,5,0
23,123,5,0
23,123,5,0
23,122,5,0
23,121,5,0
23,121,5,0
22,121,4,0
22,120,5,0
22,120,5,0
22,119,5,0
22,119,5,0
22,118,5,0
22,118,5,0
22,118,5,0
21,117,5,0
21,117,5,0
22,116,5,0
21,116,4,0
21,115,5,0
21,115,4,0
21,115,5,0
21,114,5,0
21,114,5,0
20,113,5,0
20,113,5,0
21,113,5,0
20,112,4,0
20,112,4,1
20,111,4,0
20,111,4,0
20,110,5,0
19,110,4,0
20,110,4,0
20,109,4,0
20,109,4,1
19,109,4,1
19,108,4,1
19,108,4,1
19,108,3,1
19,107,4,1
19,107,3,1
19,107,3,1
19,106,4,1
19,105,3,1
19,105,3,1
19,103,4,1
19,105,3,1
19,103,3,1
19,103,3,1
18,103,5,1
18,103,4,1
18,103,4,1
18,102,4,1
18,102,4,1
18,102,4,1
18,102,3,1
18,101,4,1
18,101,4,1
18,100,4,1
17,100,4,1
18,99,4,1
18,99,3,1
18,99,4,1
17,98,3,1
17,98,3,1
17,98,4,1
17,97,4,1
17,97,3,1
17,97,4,1
17,96,4,1
17,96,4,1
17,96,3,1
17,96,4,0
17,95,4,1
17,95,3,1
17,95,4,0
17,94,3,1
17,94,4,0
17,94,4,1
16,93,3,1
17,93,3,1
16,93,3,1
16,92,3,0
16,92,3,1
16,92,4,0
16,92,3,1
16,91,3,1
16,91,3,2
16,91,3,1
16,91,3,1
16,90,3,0
16,90,3,0
16,89,3,0
15,89,4,1
15,89,4,1
15,89,4,0
15,88,3,0
15,88,3,0
15,88,4,1
15,88,3,0
15,88,4,0
15,89,3,1
15,88,3,1
15,88,4,1
15,88,3,1
15,88,3,0
15,88,3,0
15,87,7,0
15,87,7,1
15,86,7,1
15,86,7,0
14,86,7,1
14,85,7,1
15,85,7,0
14,85,7,1
14,84,7,0
14,84,7,1
14,83,7,1
14,83,7,0
14,83,6,0
14,83,7,0
14,83,7,1
14,83,7,1
14,82,7,2
14,82,7,1
14,81,7,1
14,81,7,1
14,81,6,1
14,81,7,1
13,80,6,1
14,80,7,1
14,79,6,1
13,79,6,1
13,79,6,1
13,79,6,1
13,79,6,1
13,79,6,1
13,78,6,2
13,78,7,1
13,78,7,1
13,77,7,1
13,77,6,1
13,77,6,1
12,77,6,1
14,76,6,1
14,76,6,1
14,76,6,1
14,76,6,1
14,76,6,1
14,75,6,1
14,75,6,1
14,75,6,1
14,74,6,1
13,74,6,1
14,74,6,1
13,73,6,0
13,73,6,1
13,73,6,1
13,73,6,1
13,73,6,1
13,71,6,1
13,71,5,1
13,71,6,1
13,71,6,1
13,71,6,1
13,71,6,1
13,71,6,1
12,71,6,1
13,71,6,1
12,71,6,1
12,70,5,1
12,70,6,1
12,70,5,1
12,70,5,0
14,70,5,1
14,69,6,1
14,69,5,1
14,69,5,1
14,69,5,1
14,68,5,1
14,67,5,1
13,67,5,1
13,67,5,1
14,67,5,0
13,67,5,1
13,67,5,1
13,66,5,0
13,66,5,1
15,67,5,1
22,77,5,1
22,76,5,1
22,76,4,0
22,76,5,0
22,75,5,0
22,75,5,0
22,74,5,0
21,74,5,1
21,73,5,0
21,73,5,0
21,73,5,1
21,73,5,0
20,71,5,0
21,71,5,0
24,71,5,1
25,71,5,0
24,71,5,1
24,71,5,1
24,71,4,0
24,71,4,0
24,70,4,0
24,70,4,0
24,69,4,0
24,69,5,0
24,69,4,0
23,68,4,0
23,69,4,0
23,68,4,0
23,68,4,0
23,67,4,0
24,67,4,0
24,67,4,0
24,67,4,0
23,67,4,0
23,66,4,0
23,66,4,1
23,66,4,0
23,65,4,0
23,65,4,2
23,65,4,1
23,65,4,1
22,64,4,2
23,64,4,1
23,64,4,1
25,63,4,1
25,63,4,1
25,63,4,1
24,63,4,1
24,63,4,1
25,62,3,1
24,63,4,1
24,62,4,1
24,62,4,1
24,62,4,1
24,62,4,1
24,61,4,1
24,61,4,1
24,61,4,1
24,61,4,1
24,61,4,1
24,61,4,2
23,60,4,1
23,60,4,1
23,60,4,1
23,60,4,1
22,59,5,1
22,59,5,1
22,59,5,1
22,59,5,1
22,58,5,1
22,58,5,1
22,58,5,1
22,58,5,1
22,58,5,1
22,57,4,1
21,57,5,1
21,57,5,1
21,57,5,1
21,57,5,1
21,56,5,1
21,57,6,1
21,56,6,1
20,56,6,1
20,56,5,1
20,56,5,1
20,56,5,1
20,56,6,1
20,55,5,1
20,55,5,1
21,55,5,1
21,54,5,1
20,54,5,1
20,54,5,1
20,54,5,1
20,54,5,1
20,54,5,1
20,53,5,1
19,53,5,2
20,53,5,1
19,53,5,1
19,53,5,1
19,52,5,1
34,52,5,1
41,52,5,1
41,52,5,1
40,51,5,1
39,51,5,1
39,51,5,1
39,51,5,1
39,51,4,1
39,51,5,1
39,51,5,1
39,50,5,1
39,50,4,1
39,50,5,1
38,50,5,1
38,50,5,1
39,50,5,0
39,49,4,1
38,49,4,1
38,49,5,0
38,49,4,1
38,48,4,2
38,49,4,1
37,48,5,1
37,48,5,1
37,48,5,1
37,48,4,1
37,48,5,1
37,48,5,0
36,48,5,0
36,47,5,1
36,47,4,0
36,47,5,1
35,46,5,0
35,46,4,0
35,46,4,0
35,46,4,0
35,46,4,0
35,46,5,0
35,46,5,0
35,46,5,1
34,45,5,1
34,45,5,1
34,45,5,1
34,45,5,0
34,45,5,0
35,44,5,1
35,44,5,1
35,44,4,0
35,44,4,0
35,44,5,1
35,44,4,1
35,44,5,0
35,44,6,0
34,43,6,0
34,44,6,0
34,43,6,0
34,43,6,1
34,43,6,0
34,43,6,1
33,43,6,1
33,42,5,0
33,42,6,1
33,42,5,0
33,42,5,0
33,41,5,0
33,41,5,1
32,41,6,0
32,41,6,0
32,41,6,0
31,41,5,0
31,41,5,0
31,41,5,0
31,39,5,0
31,39,5,0
33,55,5,0
38,55,5,0
37,54,5,0
37,54,5,0
37,54,5,0
36,53,5,1
36,53,5,0
36,53,5,0
36,52,5,0
35,52,5,0
35,52,5,0
35,52,5,0
35,51,5,1
35,51,5,0
35,52,5,0
35,55,5,0
35,54,5,0
35,54,5,0
34,54,5,0
34,54,5,0
34,53,5,0
34,53,6,0
34,53,6,0
34,53,6,0
33,53,6,0
33,52,5,0
33,51,6,0
33,51,6,0
33,51,5,0
33,51,5,0
33,51,5,0
33,51,5,0
32,50,5,0
32,50,5,1
32,50,5,0
32,50,5,0
32,50,6,1
31,49,5,1
31,50,6,1
31,49,5,1
31,48,5,1
31,48,5,1
31,48,5,1
31,48,5,1
31,69,5,1
31,69,5,1
31,68,5,1
31,67,5,1
31,67,5,1
31,67,5,1
30,67,4,1
30,66,5,1
30,66,5,1
30,66,5,1
30,65,5,1
30,65,5,1
30,65,5,1
29,65,5,1
29,64,5,2
35,86,5,1
35,85,5,1
34,85,5,1
34,85,5,1
34,84,5,1
34,83,5,1
33,83,5,1
33,83,5,1
33,82,5,1
33,82,5,1
33,81,5,1
32,81,5,1
32,81,5,1
32,81,5,1
35,83,5,1
37,100,5,1
37,99,5,1
37,98,5,1
37,98,4,1
37,97,4,1
36,97,4,1
36,96,5,1
36,96,5,1
36,96,4,1
35,95,4,1
35,95,5,1
35,94,5,1
35,94,5,1
35,93,5,1
36,96,5,1
35,96,5,1
35,96,4,1
35,95,4,1
35,95,5,1
35,94,4,1
34,94,4,5
34,93,5,5
34,93,6,5
34,93,6,5
34,92,6,4
33,92,6,5
33,92,6,4
33,91,6,4
33,90,6,5
36,93,6,5
35,93,6,4
35,92,6,4
35,92,6,4
35,92,6,4
35,92,6,4
35,91,6,4
35,91,7,4
35,90,7,4
35,89,6,4
34,89,6,3
34,89,6,4
34,89,6,3
34,88,6,3
34,90,6,4
35,91,6,3
34,90,6,4
34,89,6,5
34,89,6,4
34,89,6,3
34,88,6,3
34,88,7,4
33,88,7,3
33,87,7,3
33,87,7,3
33,86,7,3
33,86,7,4
33,86,7,3
32,85,7,3
32,90,7,3
33,90,7,3
33,89,6,3
32,89,6,3
32,89,6,3
32,88,6,3
31,88,7,3
31,88,7,3
31,87,7,3
31,87,7,3
31,86,7,3
31,86,7,3
31,86,7,3
31,85,7,4
30,85,7,3
31,99,7,3
31,98,7,3
31,98,7,3
31,97,7,3
31,96,7,3
31,96,7,3
31,96,7,4
31,95,7,4
30,95,7,4
30,94,7,4
30,94,7,3
30,93,7,4
30,93,7,4
30,92,7,4
31,92,7,3
36,97,6,3
35,96,7,3
35,96,7,4
35,95,7,3
35,95,7,4
35,94,6,3
35,94,7,3
34,94,7,3
34,93,6,5
34,92,7,3
34,92,7,3
34,92,7,3
34,92,7,3
33,91,6,3
39,92,6,3
50,97,6,3
50,96,6,3
50,96,6,3
49,96,6,3
49,95,6,3
48,95,6,3
49,94,6,3
48,94,6,3
48,93,6,3
48,93,6,3
48,92,6,3
48,92,6,3
47,92,6,3
47,91,6,3
47,96,6,3
49,95,6,3
48,95,6,3
48,94,6,3
