65,144,2,0
64,143,3,0
64,143,3,0
63,142,2,1
63,141,3,0
63,141,3,0
63,140,3,0
63,140,3,0
62,139,3,0
62,138,3,0
62,137,3,0
62,137,3,0
61,135,3,0
61,138,3,0
71,152,3,0
71,152,3,0
71,150,3,0
70,150,3,0
70,149,3,0
69,148,3,0
69,147,3,0
68,147,3,0
68,146,3,0
67,145,3,0
67,144,3,0
67,143,3,0
67,143,3,0
67,144,3,0
67,151,3,0
66,150,3,0
66,150,2,0
66,148,3,0
65,147,3,0
65,147,3,0
65,146,3,0
65,145,3,0
64,145,3,0
63,143,3,0
63,143,3,1
63,143,3,0
63,142,3,0
63,143,3,0
63,149,2,0
63,148,3,0
62,148,3,0
62,147,3,0
62,146,3,0
61,146,3,0
61,145,3,0
61,144,3,0
61,143,3,0
60,143,3,0
60,142,3,0
60,142,3,0
59,141,3,0
59,145,3,0
61,147,3,0
61,147,3,0
60,146,3,0
60,145,3,0
60,144,3,0
60,143,3,0
60,143,3,0
59,142,3,0
59,141,3,0
59,141,3,0
59,140,3,0
58,140,3,0
58,139,3,0
62,141,3,0
62,148,3,0
61,147,3,0
61,146,3,0
61,145,3,1
60,145,3,0
60,143,3,0
60,143,3,0
60,143,3,0
59,142,3,0
59,142,3,0
59,141,3,0
59,140,3,0
58,140,3,0
60,145,3,0
60,145,3,0
60,143,3,0
59,143,3,0
59,143,3,0
59,142,3,0
58,141,3,0
58,140,3,0
57,140,3,0
57,139,3,0
57,138,3,0
57,137,3,0
57,137,3,0
57,137,3,0
61,145,3,0
60,145,3,0
60,144,3,0
60,143,3,0
59,143,3,0
59,142,3,0
59,142,4,0
59,141,4,0
58,140,3,0
58,140,3,0
57,139,4,0
57,138,4,0
57,137,4,0
57,137,3,0
59,145,3,0
59,144,3,0
58,143,3,0
57,143,3,0
57,142,3,0
57,142,3,0
57,141,4,0
56,140,4,0
57,140,4,0
56,139,3,1
56,138,4,0
56,137,3,0
56,137,3,0
55,135,3,0
56,140,3,0
55,139,3,0
55,138,3,0
55,137,3,0
55,136,3,0
54,135,4,0
54,135,4,0
53,135,4,0
53,135,4,0
53,133,3,0
53,133,3,0
53,132,4,0
52,131,4,0
52,157,3,0
52,159,3,0
52,158,3,0
51,158,3,0
51,157,3,0
51,156,3,0
51,156,3,0
51,155,4,0
51,153,4,0
50,153,4,0
50,152,4,0
49,152,3,0
50,151,4,0
49,150,3,0
49,155,3,0
49,158,3,0
49,158,3,0
49,157,3,1
48,156,3,0
48,155,3,0
48,154,4,0
48,153,5,0
48,153,5,0
48,152,5,0
47,152,4,0
47,151,4,0
47,150,5,0
47,149,5,0
46,220,4,0
53,217,4,0
53,216,5,0
53,215,4,0
53,213,5,0
52,212,4,0
52,211,5,0
51,210,5,0
51,209,5,1
51,207,5,1
51,207,5,1
51,206,5,1
50,205,5,0
50,204,5,0
50,248,5,0
50,246,4,1
50,244,5,1
50,243,5,0
49,242,5,1
49,240,4,0
48,240,5,0
48,238,4,0
48,237,5,1
48,236,4,0
48,235,5,2
48,233,4,1
47,231,4,0
108,231,5,0
137,230,4,0
136,228,4,1
135,227,4,0
135,227,4,0
134,225,4,1
133,224,4,1
133,223,4,1
131,222,4,1
131,221,4,1
131,220,4,1
130,219,4,1
129,217,4,1
128,217,4,1
135,217,4,1
135,216,3,1
134,215,3,1
133,214,4,1
132,213,4,1
131,212,4,1
131,211,4,1
130,210,4,1
130,209,4,1
129,207,4,1
128,207,4,1
127,206,4,1
127,265,3,1
127,274,3,1
126,271,4,1
125,271,3,1
125,269,3,1
124,267,4,1
124,266,3,1
123,263,4,1
123,263,4,1
121,262,3,1
121,260,3,1
121,259,3,1
120,257,3,1
120,255,3,1
119,313,3,1
119,310,3,1
118,308,3,0
118,306,3,1
117,305,3,1
117,303,3,1
116,301,4,2
115,300,4,2
115,298,3,2
115,295,3,2
114,295,4,1
113,294,3,1
113,440,3,2
113,539,3,2
112,533,3,1
112,529,3,1
111,525,3,1
110,521,3,2
110,518,3,2
110,514,4,2
109,510,4,2
109,507,4,2
108,504,4,1
108,500,3,1
107,497,3,2
107,493,3,2
199,490,3,1
267,487,3,1
263,483,3,1
262,481,3,1
260,478,3,2
259,475,3,2
257,472,3,2
255,470,3,1
254,467,3,1
253,463,3,1
252,462,3,1
250,459,3,2
249,455,3,1
248,453,3,1
247,450,3,1
245,448,3,1
244,445,3,1
243,443,3,2
242,440,3,1
241,438,4,2
240,435,4,1
239,432,4,2
237,431,4,2
236,428,3,1
235,425,4,1
234,423,4,1
233,420,3,1
231,418,3,1
231,415,3,1
230,414,3,1
229,412,3,1
227,409,3,2
226,408,7,2
225,405,7,2
224,403,7,2
223,400,7,2
223,399,7,2
221,396,7,2
220,395,7,2
219,391,7,2
218,390,7,2
217,387,7,2
216,401,7,2
216,539,7,2
215,534,7,2
213,530,7,3
213,526,7,3
211,523,7,3
211,519,7,3
210,515,7,3
209,512,7,3
207,508,7,3
255,504,7,3
330,501,7,4
327,498,7,3
325,495,7,3
323,492,7,3
321,489,7,3
319,487,7,3
318,483,7,3
316,480,7,3
313,478,6,3
312,475,7,3
311,472,6,3
309,469,7,4
307,465,7,3
306,463,6,3
304,460,6,3
303,457,6,3
301,455,6,3
300,452,6,3
298,450,10,3
297,447,10,3
295,444,10,3
294,441,10,3
292,439,10,3
291,436,9,3
289,434,9,3
287,432,10,3
286,428,9,3
285,426,9,3
284,423,9,3
282,422,9,3
281,419,9,3
280,417,9,3
278,415,10,4
277,412,10,3
275,409,10,3
274,408,10,3
273,405,9,3
271,467,9,3
270,585,9,3
269,579,9,3
268,574,9,3
267,570,9,3
265,566,9,3
263,560,9,3
263,557,11,6
262,553,10,6
261,549,10,6
259,545,10,6
258,541,10,6
255,537,10,6
255,534,10,6
254,530,10,6
253,526,10,6
252,522,9,6
250,519,9,6
249,551,9,6
249,571,10,6
248,568,10,6
246,561,10,7
245,558,10,6
243,553,9,6
243,550,9,6
241,546,9,6
240,542,9,6
239,539,9,6
238,536,9,7
237,531,9,6
236,527,9,6
235,524,9,6
234,520,10,6
233,517,11,6
231,514,11,6
231,511,11,6
230,506,11,6
229,503,11,6
228,649,10,6
227,803,11,6
225,847,11,6
225,839,10,6
224,830,10,6
223,823,10,6
222,812,10,6
221,805,10,6
220,798,10,6
219,791,10,6
217,781,10,6
217,774,10,7
216,768,9,6
215,761,10,6
214,755,9,6
213,746,9,6
212,739,9,5
211,734,9,6
210,728,9,8
209,722,9,11
208,717,11,11
207,709,11,11
206,704,11,11
206,698,11,11
205,691,10,10
204,686,11,10
203,679,10,11
202,674,10,10
199,669,10,10
199,663,10,10
199,658,11,10
198,652,21,11
197,647,21,11
196,641,21,11
195,636,21,10
194,632,21,11
194,626,21,10
193,622,20,10
192,615,21,10
191,611,20,10
190,608,20,9
189,602,20,10
188,599,20,9
188,594,19,11
187,589,19,11
187,585,19,11
185,580,19,11
184,577,19,11
183,573,19,11
182,568,19,10
182,565,19,11
181,560,19,10
180,556,18,10
179,551,18,10
178,548,19,11
177,545,18,14
177,541,18,14
176,537,18,14
176,533,17,13
175,530,18,14
174,527,17,14
173,523,17,13
172,519,17,13
171,515,17,13
171,512,17,13
169,508,17,13
169,505,17,15
167,503,17,15
167,499,17,15
167,496,17,15
166,492,16,15
166,489,16,15
165,487,16,14
164,483,16,14
163,480,16,14
163,477,15,14
162,474,15,14
161,471,15,14
159,468,15,14
159,465,15,14
159,463,15,13
158,460,15,13
157,455,15,14
157,454,15,13
156,515,15,13
156,610,15,13
155,605,15,13
154,600,15,13
153,595,14,13
153,589,14,13
152,584,15,13
152,580,14,13
151,575,14,12
150,571,14,12
150,566,14,13
148,562,14,12
148,558,14,12
152,553,14,12
152,550,14,12
150,544,14,12
149,541,13,12
148,536,13,12
147,533,13,12
147,530,13,12
146,525,13,12
145,521,13,11
145,517,13,11
150,514,13,11
159,511,13,11
227,589,13,11
263,585,13,11
281,579,12,11
279,575,12,11
277,569,12,11
275,566,12,11
273,561,12,11
271,556,12,11
270,552,12,11
268,547,12,10
268,575,12,10
266,617,12,10
263,647,12,10
263,642,12,10
262,636,11,10
259,631,12,10
259,624,12,10
257,620,12,11
255,615,12,10
254,609,12,10
253,605,12,10
251,600,12,10
250,595,12,10
249,659,11,10
248,652,11,9
247,647,11,10
245,639,11,9
243,635,11,9
243,630,11,9
241,625,11,9
240,619,11,9
239,615,11,9
238,610,10,9
237,606,10,9
235,604,11,9
235,774,11,9
233,791,10,9
231,783,10,9
231,773,10,9
230,766,10,8
229,760,10,8
227,753,10,9
227,744,10,9
225,738,10,9
224,732,9,8
224,726,10,7
222,719,9,7
221,715,9,7
220,709,9,7
219,701,9,7
218,696,9,7
217,690,9,7
216,685,9,7
216,679,9,7
215,675,9,9
214,670,9,7
213,665,10,7
211,659,9,7
211,655,9,7
211,651,9,7
212,644,9,7
244,639,9,7
243,643,9,7
241,638,9,7
240,633,9,7
239,629,9,7
238,625,9,7
237,620,9,7
236,615,9,7
235,611,9,7
233,608,9,7
231,604,8,7
231,600,8,7
230,594,9,7
229,590,9,7
240,586,9,7
239,583,9,6
238,579,8,7
237,575,8,6
236,571,7,6
235,568,7,6
233,563,7,6
302,560,7,6
309,557,7,6
307,553,7,6
305,550,7,6
304,545,7,6
302,542,7,6
300,539,7,6
299,536,7,6
297,532,7,6
307,528,7,6
307,526,7,6
306,523,7,6
305,519,7,6
303,516,7,6
301,513,7,6
300,510,7,5
298,507,7,5
295,504,7,5
295,590,7,5
294,585,7,5
292,581,7,6
291,577,7,5
289,573,7,5
287,568,7,5
287,564,7,5
285,560,7,5
284,557,7,5
282,553,7,5
281,549,7,5
280,545,7,5
278,542,7,4
277,537,7,5
275,534,6,5
274,530,6,5
273,526,6,5
281,523,7,5
389,519,7,5
384,516,6,5
381,513,7,6
379,510,6,7
377,507,6,13
375,504,6,34
372,499,6,57
370,510,6,57
368,655,6,56
403,655,6,56
525,647,6,56
654,643,6,56
750,637,6,55
741,632,6,55
734,626,7,54
728,621,6,54
721,617,7,54
714,611,6,53
708,606,6,53
703,601,6,52
697,598,6,53
691,593,6,52
686,588,6,52
679,583,6,51
675,579,6,51
670,575,6,51
664,571,6,51
659,567,6,50
655,563,6,50
649,559,6,50
645,554,6,50
639,551,6,49
636,547,6,49
631,543,6,49
626,539,6,49
622,536,6,48
617,532,5,48
613,529,6,48
609,524,6,48
605,521,5,48
600,518,5,47
597,515,6,47
591,510,5,47
588,507,6,46
584,504,6,46
580,501,5,46
577,497,5,46
573,494,5,46
569,491,5,45
565,487,5,45
562,485,5,45
559,482,5,45
555,480,5,45
551,477,5,45
548,473,5,44
544,471,5,44
541,468,5,65
537,466,5,99
535,462,5,99
531,460,5,103
527,457,5,115
524,454,5,115
521,451,5,120
518,449,6,120
515,446,6,118
511,444,6,118
508,441,6,117
504,438,5,116
501,435,6,115
499,433,5,115
495,431,5,114
492,428,5,114
489,425,5,113
487,423,5,112
483,420,13,112
480,418,14,111
478,415,14,111
475,413,14,110
472,411,14,110
469,408,14,109
466,405,14,109
463,403,14,108
460,400,13,107
457,399,13,107
455,396,13,106
451,394,13,106
449,391,14,105
446,389,13,103
444,387,13,103
441,385,13,103
439,383,13,103
436,380,13,103
433,378,13,102
431,376,13,102
428,374,13,101
425,371,13,100
423,369,12,99
421,368,12,99
419,366,12,99
417,364,12,98
414,361,12,98
412,359,12,97
409,358,12,97
408,356,12,96
406,354,12,96
403,352,12,96
401,351,11,95
399,348,11,95
397,347,11,94
395,345,11,93
393,344,11,93
391,342,11,93
388,339,11,92
387,338,11,92
385,337,11,92
382,335,10,91
381,333,11,91
379,331,11,90
377,329,10,89
375,327,10,89
373,326,11,89
371,325,10,89
369,323,10,88
367,321,10,88
365,319,10,87
364,318,10,87
361,317,10,87
359,315,9,86
358,313,10,85
356,312,10,86
355,310,9,85
353,309,9,85
351,307,9,84
350,306,9,83
348,305,9,83
347,303,9,83
345,302,9,83
344,300,9,82
342,299,9,82
339,297,9,81
338,295,8,81
336,295,9,81
335,293,9,80
334,292,7,79
332,291,9,79
331,289,10,79
329,287,11,79
327,287,10,79
326,285,10,78
324,284,11,78
323,283,10,78
321,281,10,77
319,280,10,77
318,279,9,76
317,277,10,76
315,275,9,76
314,274,9,75
312,273,9,75
311,271,9,75
310,271,9,74
307,269,9,74
307,268,9,73
305,267,9,73
304,266,9,73
303,265,9,73
301,263,9,71
300,263,9,71
299,261,8,71
297,259,9,71
295,259,9,71
295,258,8,71
293,255,8,71
292,255,7,70
291,254,7,70
289,253,7,70
287,252,7,69
287,251,7,69
286,249,7,68
284,248,8,68
284,248,7,68
282,246,7,67
281,245,7,67
280,244,7,67
278,243,7,67
277,242,7,66
275,241,7,66
275,240,7,66
273,239,7,66
272,238,7,65
271,237,7,65
270,236,7,65
269,235,7,64
268,233,7,65
267,231,7,77
265,231,7,79
263,231,7,81
263,230,7,88
262,229,7,117
261,227,7,115
259,227,7,115
258,225,7,114
257,224,7,113
256,224,7,113
255,222,7,112
254,222,7,112
253,221,7,111
252,220,7,110
251,219,7,110
249,217,7,109
248,216,7,109
247,216,7,108
247,215,7,108
245,214,7,107
243,212,6,107
243,211,6,106
242,211,7,105
241,210,6,105
240,209,6,104
239,207,6,103
238,207,7,103
236,206,6,103
236,205,6,103
235,205,6,102
233,204,6,101
231,203,6,101
231,201,6,101
231,201,6,100
229,199,5,99
229,199,6,99
227,198,6,98
227,198,6,98
226,197,5,97
225,195,5,97
224,195,6,97
223,194,5,96
222,194,5,96
221,192,5,95
220,192,5,95
220,191,5,94
219,191,5,94
217,189,5,94
217,189,5,93
216,188,5,93
216,187,5,92
214,187,5,92
213,185,5,92
212,185,5,91
211,184,4,91
211,184,5,90
210,183,5,90
209,182,5,89
207,181,5,89
207,180,5,89
207,179,4,88
206,179,4,88
205,178,5,88
204,177,4,87
203,176,4,87
203,176,4,86
201,176,4,86
201,175,4,85
199,174,4,85
199,173,4,84
198,173,4,84
198,172,4,83
197,171,4,83
195,170,4,83
195,169,4,83
195,169,3,83
193,167,4,82
193,167,3,82
192,167,3,81
192,166,3,81
190,165,3,80
190,165,3,80
189,164,3,80
188,163,3,79
188,163,3,79
187,162,3,79
186,161,3,79
185,161,3,78
185,159,3,78
184,159,3,77
183,159,3,77
182,158,3,77
182,158,3,76
181,157,3,76
180,157,3,76
179,156,3,75
179,155,3,75
178,154,3,75
177,154,3,74
177,153,3,74
176,153,3,73
176,152,3,73
174,152,3,73
174,151,3,71
173,150,3,71
173,150,3,71
172,149,3,71
171,148,3,71
171,147,2,71
169,147,3,71
169,147,2,71
169,146,3,70
167,145,3,70
167,145,3,69
167,143,3,69
166,143,2,69
165,143,3,68
164,142,2,68
164,142,3,68
163,142,2,68
163,141,3,67
162,140,2,67
161,140,2,67
161,139,2,66
160,138,2,66
159,138,2,66
159,137,2,66
158,137,3,65
157,135,2,65
157,135,2,64
156,182,2,64
156,181,2,64
155,179,2,63
155,178,2,63
154,177,2,63
153,176,2,63
153,175,2,63
152,174,2,62
152,173,2,62
152,172,2,62
151,172,2,62
150,220,2,61
150,327,2,61
149,415,2,61
148,410,2,60
147,408,2,60
147,404,2,60
146,402,2,60
146,399,2,59
145,396,2,59
145,394,2,59
144,391,2,59
143,389,2,59
143,386,2,58
143,384,2,57
142,384,2,57
141,380,2,57
141,378,2,57
141,376,2,57
140,374,2,56
139,371,2,56
139,369,2,56
138,368,2,56
138,366,2,56
137,363,2,56
135,361,2,55
135,359,2,55
135,357,2,55
135,355,2,54
135,353,2,54
134,351,2,54
133,349,2,54
132,348,2,53
132,345,2,53
131,344,1,53
131,342,2,53
131,339,2,52
131,337,1,52
130,335,2,52
129,334,1,51
129,332,1,51
128,330,2,51
127,327,2,51
127,327,1,50
127,326,1,51
126,323,2,50
126,322,2,50
125,319,2,50
125,319,2,50
124,316,2,49
124,315,2,49
124,313,2,49
123,312,2,49
123,310,2,49
122,309,2,48
121,307,2,48
121,305,2,48
120,304,2,48
120,302,3,48
120,301,3,48
120,300,3,47
119,297,3,47
118,295,3,47
118,295,2,46
117,293,2,46
117,291,2,46
116,290,2,46
116,288,2,46
115,287,2,46
115,286,3,45
114,284,3,45
114,283,3,45
113,281,3,45
113,280,3,45
113,279,3,44
112,278,3,44
112,276,3,44
112,275,3,44
111,273,3,43
111,271,3,43
110,271,3,43
110,269,3,43
110,268,3,43
109,267,3,42
109,265,3,42
108,263,3,42
108,263,3,41
108,262,3,41
107,260,3,41
107,259,3,41
106,257,3,41
106,255,3,41
105,255,3,41
105,254,3,41
104,252,3,41
103,252,3,39
103,250,3,39
103,249,3,39
103,248,3,39
103,247,3,39
102,245,3,39
102,244,3,39
101,250,3,39
101,248,3,39
100,248,3,39
100,246,3,38
99,244,6,39
99,243,15,38
99,243,15,38
98,241,15,38
98,240,15,38
98,239,15,37
97,238,15,37
97,327,15,37
97,448,15,36
96,450,15,36
96,447,15,36
96,444,15,36
95,441,14,36
95,438,14,35
94,435,14,35
94,432,14,35
94,430,14,35
93,426,14,35
93,423,14,35
92,421,14,35
92,419,14,35
92,415,14,34
92,413,13,34
92,411,13,35
91,409,13,34
90,406,13,34
91,403,13,34
90,401,13,34
89,399,13,34
89,396,13,33
89,393,13,33
89,391,13,33
88,389,13,33
88,387,13,33
88,384,12,33
88,382,12,32
87,380,12,33
86,378,12,32
86,376,12,31
86,374,12,31
85,371,12,31
85,370,12,31
85,368,12,31
84,365,12,31
84,364,12,31
83,361,11,31
83,359,11,31
83,358,11,31
83,355,11,31
82,353,11,31
82,352,11,30
82,350,11,30
82,348,11,30
81,346,11,30
81,344,11,30
80,342,11,30
80,340,11,29
79,339,11,29
97,337,11,29
96,335,10,29
96,334,10,29
95,332,10,29
94,329,10,29
94,327,10,28
93,327,9,28
93,325,9,28
92,323,9,28
92,321,9,28
92,319,9,28
101,318,9,27
139,316,9,28
137,315,9,27
136,313,9,27
135,312,9,27
135,310,9,27
134,309,9,27
134,307,9,27
132,305,9,27
132,304,9,26
131,303,9,26
130,301,7,26
130,299,9,26
143,298,7,25
183,295,8,26
181,295,7,25
179,293,8,25
179,292,8,25
178,291,8,25
177,289,7,25
176,287,7,25
175,286,7,25
174,285,7,25
173,284,7,25
172,281,7,24
172,280,7,24
171,280,7,24
169,278,7,24
169,276,7,24
167,275,7,24
167,274,7,24
166,272,7,24
165,271,7,24
165,270,7,24
163,269,7,24
163,268,7,24
162,265,7,23
161,264,7,23
161,263,7,23
159,262,7,23
159,261,7,23
158,259,7,22
158,258,7,23
157,257,7,23
156,255,6,22
155,255,7,22
155,253,7,22
153,252,6,22
153,251,6,22
152,249,6,21
152,249,6,22
151,248,6,21
150,247,6,21
149,245,6,21
149,244,6,21
148,243,6,21
147,242,6,21
147,240,6,21
146,239,6,20
145,239,6,21
144,238,6,21
143,236,6,20
143,235,5,20
143,234,6,20
142,233,5,20
141,231,5,19
141,231,5,20
140,230,5,21
140,229,5,28
139,227,5,33
138,227,5,35
137,226,5,36
137,225,5,36
135,224,5,37
135,222,5,39
140,222,5,39
142,221,4,39
141,219,5,39
140,219,5,39
140,217,4,39
139,217,5,39
138,216,4,41
137,215,4,41
136,214,4,41
135,213,4,41
135,211,5,41
135,211,4,41
134,210,4,39
145,209,4,39
143,207,4,39
143,207,4,39
143,206,4,39
142,205,5,39
141,204,17,39
140,204,21,39
140,203,20,38
139,201,21,38
138,201,20,38
137,199,20,38
137,199,19,38
213,198,19,38
219,197,19,37
217,196,19,37
216,195,19,37
214,194,19,37
213,193,19,36
211,192,19,36
211,192,19,35
209,191,19,35
207,190,19,35
207,189,19,35
206,188,19,35
205,187,19,35
204,186,19,35
203,185,18,34
201,185,18,35
199,184,19,35
199,183,18,34
198,182,19,34
198,181,18,33
196,180,19,34
195,179,18,33
194,179,18,33
193,178,18,33
192,177,18,33
192,177,17,33
190,176,17,32
189,175,17,32
188,174,17,31
188,173,17,31
187,173,17,31
185,172,17,31
185,171,17,31
184,170,17,31
183,169,16,31
182,169,16,31
181,167,16,31
180,167,16,31
179,167,16,30
179,166,16,30
177,165,16,30
177,164,15,30
176,163,15,29
175,163,15,30
174,162,15,29
173,161,15,29
172,161,15,29
242,159,15,29
241,159,15,29
239,159,15,29
238,158,15,28
236,157,15,28
235,156,14,28
233,156,14,28
231,155,14,28
231,155,14,28
230,153,14,27
228,153,14,27
236,152,14,27
265,152,14,27
263,152,14,27
262,151,14,27
259,150,14,26
259,149,13,26
257,148,13,26
255,147,13,26
254,147,13,26
252,146,13,26
251,146,13,25
249,145,13,25
248,145,13,25
247,143,13,25
246,143,12,25
244,143,13,25
243,142,13,24
241,142,12,24
240,141,12,24
239,140,12,24
238,140,12,24
236,139,12,24
235,138,12,24
234,137,12,24
233,137,12,24
231,137,12,24
231,135,12,24
229,135,12,23
228,135,11,23
227,134,11,23
226,134,11,23
225,133,11,22
224,132,11,22
222,132,11,22
221,131,11,22
220,131,11,22
219,130,11,22
218,130,11,22
217,129,11,22
216,129,11,21
215,127,10,21
214,127,10,21
212,127,10,21
211,126,10,21
210,126,10,21
209,125,10,21
207,125,9,21
207,124,10,21
206,124,10,20
205,123,9,20
204,123,9,20
204,122,9,20
202,121,9,20
201,121,9,19
199,121,9,19
199,121,9,19
199,120,9,19
198,120,9,20
197,119,9,19
196,118,9,19
195,118,9,19
194,118,9,19
193,117,9,19
192,116,9,19
192,115,9,19
191,115,9,18
190,115,9,19
189,115,8,18
188,114,9,18
187,113,7,18
187,113,7,18
185,113,8,18
185,112,7,18
184,112,7,18
183,111,7,18
182,111,8,17
182,110,7,17
180,110,7,17
179,110,7,18
179,109,7,17
178,109,7,17
177,108,7,17
177,108,7,16
176,107,7,17
175,107,7,17
174,107,7,16
173,106,7,16
172,106,7,16
172,105,7,16
171,105,7,16
170,103,7,16
169,103,7,15
169,103,7,15
167,103,7,15
167,103,7,15
167,102,7,15
166,102,7,15
165,102,7,15
164,101,7,15
163,101,7,15
163,100,7,15
162,99,7,15
161,99,7,15
161,99,9,15
159,99,9,15
159,98,9,15
159,98,9,15
158,98,9,14
158,97,9,14
157,97,8,14
156,97,8,15
156,96,7,14
155,96,9,14
155,96,7,14
154,95,7,14
153,95,7,14
153,94,7,14
152,94,7,14
152,94,7,14
151,94,7,14
150,93,7,14
149,93,7,14
149,92,7,13
148,92,7,13
147,92,7,13
147,91,7,13
146,91,7,13
146,91,7,13
145,90,7,13
144,90,7,13
143,89,7,13
143,89,7,13
143,89,7,13
142,89,7,13
142,88,7,12
141,88,7,13
140,88,7,13
140,88,7,12
140,87,7,12
139,87,7,12
138,87,6,12
138,86,6,12
137,85,7,12
135,86,7,13
135,85,7,12
135,84,7,12
135,84,7,12
135,84,6,12
134,83,6,12
133,83,7,12
132,83,6,12
132,83,6,12
131,82,6,12
131,82,6,11
130,82,6,11
130,81,6,11
130,81,6,11
129,81,6,11
128,80,6,11
127,80,6,11
127,80,6,11
127,79,6,11
126,79,6,11
126,79,6,11
125,78,6,11
125,79,6,10
124,78,6,10
124,78,5,10
123,78,6,10
123,77,5,10
123,77,5,10
122,77,5,10
121,77,5,10
121,76,5,10
120,76,5,10
120,76,5,10
120,75,5,10
120,75,5,9
119,75,5,9
118,75,5,9
118,74,5,10
117,73,5,9
117,74,5,9
116,73,5,9
115,73,5,9
115,73,5,9
115,73,5,9
115,71,5,9
114,71,5,10
114,71,5,9
113,71,4,9
113,71,4,9
113,71,4,9
112,71,5,9
111,71,4,9
111,70,4,9
111,70,5,9
110,70,4,8
110,70,4,9
109,69,4,7
109,69,4,8
109,69,4,7
108,68,4,9
108,68,4,8
107,68,4,7
107,67,3,7
107,67,4,7
106,67,3,7
106,67,4,7
105,67,3,7
105,66,4,7
105,66,4,7
103,66,3,7
103,66,3,7
103,65,4,7
103,65,3,7
102,65,3,7
102,65,3,7
102,64,3,7
102,64,3,7
101,63,3,7
101,63,3,7
100,63,3,7
100,63,3,7
100,63,3,7
99,63,3,7
99,63,3,7
99,62,3,7
98,62,3,7
98,62,3,7
97,62,3,7
97,62,3,7
96,62,3,7
96,61,3,7
96,61,3,7
96,61,3,7
96,61,3,7
95,60,3,7
95,60,3,7
94,60,3,7
94,60,3,7
94,60,3,7
93,59,3,7
93,59,3,7
93,59,3,7
92,59,3,6
92,59,3,6
92,58,3,6
92,58,3,6
91,58,3,6
91,58,3,6
91,57,3,6
90,57,3,6
90,57,2,6
89,57,3,6
89,57,3,6
89,57,3,6
89,56,3,6
88,56,3,6
88,56,3,6
88,56,2,6
88,56,2,6
88,56,2,6
88,56,2,6
88,56,2,6
88,55,2,6
87,55,2,6
86,55,2,6
86,54,2,6
86,54,2,5
85,54,2,5
85,54,2,5
85,53,2,5
84,54,2,5
84,53,2,5
84,53,2,6
83,53,2,5
83,53,2,5
83,53,2,5
83,52,2,5
83,52,2,5
82,52,2,5
82,51,2,5
82,51,2,5
81,51,2,5
81,51,2,6
81,51,2,5
81,51,2,5
80,51,2,5
80,51,2,5
79,51,2,4
79,51,2,5
79,51,2,5
79,51,2,5
79,51,2,4
78,51,2,5
78,51,2,5
78,50,2,5
78,50,2,4
77,50,2,5
77,50,2,4
77,50,2,4
77,49,2,4
76,49,2,4
76,49,2,4
76,53,1,4
76,52,2,5
76,52,2,4
75,52,1,4
75,51,1,4
75,52,2,5
74,51,1,4
74,51,1,4
74,51,1,4
73,51,2,4
73,51,1,4
73,50,2,3
73,50,2,4
71,50,1,4
73,56,1,3
71,62,1,3
71,61,1,3
71,61,1,4
71,60,2,4
71,60,1,3
71,60,1,3
71,60,2,3
71,59,2,3
70,59,2,3
70,60,2,3
70,59,2,3
70,58,2,3
70,58,2,3
69,58,2,3
69,78,2,3
68,77,2,4
69,77,2,3
68,76,2,3
68,76,2,3
68,76,2,3
68,76,2,3
67,75,2,3
67,75,2,3
67,74,2,3
67,74,2,3
66,73,2,3
66,73,2,3
66,73,2,3
66,73,2,3
67,75,1,3
66,75,2,3
66,75,2,3
66,74,2,3
65,74,2,3
65,73,2,3
65,73,2,3
65,73,1,3
65,71,1,3
64,71,2,3
64,71,1,3
63,71,2,3
63,71,2,3
63,71,1,3
63,76,1,3
63,77,1,3
63,77,1,3
62,76,1,3
62,76,2,3
62,76,2,3
62,75,2,3
62,75,2,3
62,74,2,3
61,74,2,3
61,74,2,3
61,73,1,3
61,73,2,3
61,73,2,2
60,73,2,3
60,87,2,3
65,88,1,2
64,88,1,2
64,87,2,2
64,86,2,2
63,86,1,3
63,85,1,3
63,85,2,2
63,85,2,2
63,84,1,2
62,83,2,2
62,83,1,2
62,83,2,2
62,83,2,3
61,83,1,2
61,86,1,2
61,86,2,2
61,85,1,2
60,85,1,2
60,84,1,3
60,84,1,2
60,83,1,2
60,83,2,2
59,83,1,2
59,83,1,2
59,82,2,2
59,82,1,2
59,81,2,2
58,81,1,2
58,84,1,2
58,85,2,2
58,84,2,2
57,83,1,2
57,83,1,2
57,83,1,2
57,82,1,2
57,82,1,2
56,82,2,2
56,82,1,2
56,81,2,2
56,81,2,2
56,80,2,2
56,80,2,2
56,79,1,2
55,87,1,2
55,86,2,2
55,86,2,1
54,86,1,2
54,85,1,2
54,84,1,2
54,84,1,1
54,83,1,2
54,83,1,1
53,83,1,2
53,83,1,1
53,82,1,2
53,82,2,1
52,82,1,1
52,83,1,2
52,113,1,2
52,112,1,1
52,112,1,1
51,111,1,1
51,110,1,2
51,110,1,1
51,109,1,1
51,109,2,1
50,108,1,1
51,108,1,2
50,107,1,1
50,107,1,1
50,106,1,1
50,106,1,2
50,105,1,2
50,105,1,1
49,103,1,1
49,103,1,1
49,103,2,1
49,103,1,1
48,103,1,1
48,102,1,2
48,101,2,1
48,101,2,1
48,101,1,1
48,100,1,1
48,100,1,1
47,99,1,1
47,103,1,1
47,102,2,1
47,101,1,1
47,101,1,1
46,100,1,1
46,99,1,1
46,99,1,1
46,99,1,1
46,99,1,1
46,98,1,1
46,98,1,1
45,97,1,1
45,97,1,1
45,96,1,1
45,103,1,1
45,103,1,1
45,103,1,1
44,102,1,2
44,101,1,1
44,101,1,1
44,100,1,1
44,100,1,1
44,99,1,1
44,99,1,1
43,99,1,1
43,98,1,1
43,98,1,1
43,98,1,1
43,106,1,1
43,106,1,2
42,106,1,1
42,105,1,1
42,104,1,1
42,103,1,1
42,103,1,0
42,103,1,1
41,103,1,1
41,102,1,1
41,102,1,0
41,101,1,1
41,101,1,1
39,100,1,1
40,100,1,1
41,100,1,1
39,99,1,1
39,99,1,1
39,99,1,0
39,99,1,1
39,98,1,1
39,97,1,0
39,97,1,1
39,97,1,1
39,96,1,1
39,96,1,2
39,96,1,1
39,95,1,1
38,94,1,0
39,95,1,1
38,94,1,1
38,94,1,1
38,94,1,0
38,94,1,0
38,93,1,1
38,93,1,1
38,92,1,1
38,92,1,0
37,92,1,1
37,91,1,1
37,91,1,1
37,90,1,1
37,90,1,0
37,100,1,0
37,105,1,1
36,105,1,0
36,103,1,0
36,103,1,1
36,103,1,0
36,103,1,0
35,103,1,0
35,102,1,0
35,102,1,0
35,101,1,1
35,101,1,0
35,99,1,0
35,99,1,0
38,100,1,0
39,103,1,0
39,103,1,0
38,102,1,0
38,102,1,1
38,101,1,0
37,100,1,0
37,100,1,0
37,99,1,0
37,99,1,0
37,99,1,0
36,99,1,0
36,98,1,0
36,98,1,0
36,100,1,0
37,99,1,0
37,99,1,0
37,99,1,0
36,99,1,0
36,98,1,1
36,98,1,0
36,98,1,0
36,97,1,0
35,97,1,0
35,96,1,0
35,96,1,0
35,96,1,0
35,95,1,0
35,94,1,0
35,95,1,0
37,94,1,0
37,95,1,0
36,94,1,0
36,94,1,0
36,93,1,0
36,93,1,0
35,92,1,0
35,92,1,0
35,92,1,0
35,91,1,0
35,91,1,0
35,90,1,0
35,90,1,0
34,90,1,0
35,92,1,0
35,91,1,0
34,91,1,0
34,90,1,0
34,89,1,0
34,89,1,0
34,89,1,0
34,89,1,0
34,88,1,0
33,88,1,0
33,88,1,0
33,87,1,0
33,87,1,0
33,87,1,0
33,86,0,0
34,95,1,0
33,94,1,0
34,94,1,0
33,94,1,0
33,93,1,0
33,92,1,0
33,92,1,0
33,92,1,1
33,92,1,0
33,91,1,0
32,91,1,0
32,91,1,0
32,89,1,0
31,89,1,0
33,91,1,0
33,96,1,0
33,96,1,0
33,96,1,0
33,95,1,0
32,94,1,0
32,94,1,0
32,93,1,0
32,93,1,0
32,93,1,0
31,92,1,0
31,92,1,0
31,92,1,0
31,91,1,0
31,91,1,0
36,91,1,0
43,90,1,0
43,90,1,0
43,90,1,1
42,89,1,0
42,89,1,0
41,88,1,0
41,88,1,0
41,88,1,0
41,88,1,0
41,87,1,0
41,87,1,0
40,87,1,0
39,86,1,0
41,86,1,0
56,90,1,0
56,89,1,0
55,89,1,0
55,89,1,0
55,88,1,0
54,88,1,0
54,88,1,0
53,88,1,0
53,87,1,0
53,87,2,0
53,86,1,0
52,86,1,0
52,86,1,0
