58,82,24,37
58,82,24,37
58,81,24,37
57,81,24,36
57,81,23,36
57,83,23,36
57,83,23,36
56,83,23,35
56,83,22,35
56,82,23,35
56,81,24,35
56,81,24,35
56,81,24,35
56,80,24,35
56,80,23,34
55,79,23,34
56,79,23,34
55,79,23,34
54,85,23,34
55,84,23,34
54,84,22,33
54,83,22,33
53,83,22,33
53,83,22,33
57,82,24,33
57,82,23,33
57,81,23,32
56,81,23,31
56,80,23,32
56,80,22,31
56,79,22,31
56,80,22,31
56,79,22,31
55,79,22,31
54,79,22,31
54,78,22,31
54,78,22,31
57,78,24,30
57,78,23,30
57,77,23,30
56,76,23,30
57,76,23,30
56,76,23,30
56,76,23,30
56,79,23,30
56,79,23,30
55,78,22,29
55,78,22,29
54,77,22,29
54,77,22,29
56,77,24,29
56,76,24,29
55,76,24,28
55,75,24,29
54,75,24,28
54,75,24,28
54,75,23,28
54,81,23,28
53,81,23,28
53,79,22,28
53,79,23,28
53,79,22,28
52,79,22,28
66,79,23,27
65,78,23,27
65,78,23,27
65,78,22,27
64,77,22,26
64,76,22,26
63,76,22,26
63,85,22,26
63,85,21,26
62,85,21,26
63,84,21,26
62,83,21,26
62,83,21,25
62,83,22,25
62,82,22,25
62,82,22,25
61,81,21,25
61,81,21,25
61,81,21,25
60,80,21,25
60,81,21,24
59,80,21,24
60,79,21,24
59,79,21,24
59,79,20,24
59,79,20,24
62,78,22,24
62,78,21,24
61,78,22,24
61,77,21,24
61,77,21,24
61,76,21,24
60,76,21,24
60,77,21,23
60,77,20,23
60,77,21,23
59,76,20,23
59,76,21,22
58,76,20,23
60,76,23,22
60,75,23,22
60,75,23,22
59,74,22,22
59,74,23,22
59,73,22,22
58,73,22,21
58,76,22,21
57,82,22,21
57,81,22,21
57,81,22,21
57,81,22,21
56,80,21,21
60,79,24,21
60,79,24,21
60,79,24,20
60,79,24,21
59,78,23,20
59,78,23,20
59,77,23,20
59,78,23,20
58,80,22,20
58,79,22,20
57,79,22,19
57,79,22,19
57,78,22,19
57,78,24,19
58,78,24,19
58,78,24,19
57,77,23,19
57,77,23,19
57,76,23,19
57,76,23,19
56,100,23,18
56,126,23,18
56,125,22,18
56,124,22,18
56,124,22,18
56,123,22,18
101,123,23,18
108,121,23,17
107,121,22,18
106,120,22,18
105,120,22,18
104,119,22,17
103,130,22,17
103,167,22,17
103,166,22,17
103,165,21,17
102,164,21,17
101,163,21,16
150,162,24,17
154,161,23,17
153,159,23,17
152,159,23,16
152,177,22,16
150,210,23,17
149,208,22,17
148,207,22,17
147,205,22,17
147,204,22,16
146,203,22,16
145,202,23,16
144,201,23,17
143,199,23,16
143,199,23,16
142,209,23,16
142,307,22,29
141,379,22,28
140,376,22,28
139,373,22,28
139,369,22,28
138,368,22,28
137,365,21,28
182,363,25,28
182,361,25,27
180,358,24,27
179,356,24,27
178,354,25,27
177,352,24,27
176,350,24,27
175,460,24,26
174,579,24,26
173,614,24,25
173,609,24,26
171,603,24,25
171,598,27,25
169,594,27,25
167,588,27,25
167,583,27,25
167,579,26,25
166,575,26,24
165,570,26,25
164,567,26,24
163,563,26,24
163,558,25,24
162,554,25,24
162,550,25,24
211,546,26,24
207,543,26,24
207,539,26,24
205,536,25,23
204,531,25,23
203,527,25,23
201,524,25,23
200,520,25,23
199,518,25,22
198,513,25,22
198,510,24,22
196,506,24,22
195,503,27,22
194,500,26,22
193,496,26,22
192,494,26,22
192,537,26,21
190,681,25,21
189,687,25,21
188,681,25,21
187,675,25,21
186,669,25,21
185,664,24,21
220,657,25,20
234,652,26,20
231,647,26,20
231,641,25,20
230,637,25,20
228,631,25,20
227,627,25,20
225,621,25,23
224,617,25,22
224,612,25,22
222,607,24,22
221,603,24,22
220,598,30,22
240,594,30,22
238,590,30,21
237,585,30,21
235,581,29,21
234,576,29,21
233,573,29,24
231,568,29,24
230,565,29,23
229,566,28,24
227,664,28,23
227,658,28,23
225,651,29,23
224,646,29,23
223,641,29,23
222,635,29,22
220,631,28,22
220,624,29,22
218,634,28,22
217,742,28,22
216,757,27,21
215,750,27,22
214,742,27,21
213,736,28,21
211,728,30,21
211,722,29,21
209,716,29,21
208,709,29,21
207,704,29,20
207,696,28,20
206,691,28,20
205,684,28,20
204,679,28,20
203,674,28,20
201,668,28,19
199,664,30,19
199,657,31,19
199,652,31,19
198,647,31,19
196,642,30,19
195,637,30,19
195,632,30,19
193,627,29,19
193,622,29,19
192,617,29,19
191,614,29,19
190,608,29,19
189,604,32,19
188,600,32,19
188,595,31,18
186,591,31,18
185,699,31,18
185,692,31,18
184,686,31,18
183,679,31,18
182,673,31,18
181,668,30,18
180,664,30,18
179,657,30,18
178,652,35,18
177,646,35,17
177,641,35,17
176,637,34,17
175,631,34,17
174,626,34,17
173,621,34,17
173,615,33,17
172,611,33,17
171,607,33,17
170,603,33,17
169,598,33,17
243,594,35,16
274,588,35,16
271,585,35,16
270,579,34,16
268,575,34,16
267,573,34,19
265,568,34,19
263,564,33,19
262,560,33,19
261,557,33,19
259,553,33,18
258,549,33,19
267,546,34,18
265,556,33,18
263,715,33,18
262,790,33,18
260,782,33,18
259,775,32,18
258,766,33,19
256,760,33,19
255,751,32,19
254,745,31,19
252,739,31,19
251,732,33,19
249,726,34,19
248,718,34,18
248,713,34,18
246,705,33,18
244,700,33,18
243,696,33,18
241,688,33,18
241,683,33,18
239,677,33,18
238,671,32,18
237,667,31,18
316,661,34,18
336,655,34,18
334,650,33,17
332,646,33,18
329,639,33,17
327,635,33,18
326,632,33,18
323,625,33,18
322,621,32,17
319,615,32,17
318,611,31,17
316,608,31,17
333,603,33,17
331,599,32,17
329,594,32,17
327,590,31,17
325,585,31,16
323,582,31,16
321,578,31,16
319,573,31,16
318,569,31,16
316,565,31,15
314,562,30,16
413,559,31,16
444,554,31,15
440,551,31,15
436,546,31,15
433,543,31,15
431,539,31,15
428,536,30,15
425,533,30,18
423,528,30,17
419,526,30,17
417,521,30,17
415,519,29,17
412,516,30,17
423,512,30,17
420,509,30,17
418,505,30,17
415,503,29,16
413,499,29,25
410,496,29,37
408,493,29,37
405,489,29,37
403,487,29,37
399,483,28,36
398,481,28,36
396,479,29,35
393,476,29,35
391,473,29,35
389,470,29,35
387,467,29,35
384,463,28,35
382,462,28,39
380,460,28,39
377,455,28,38
376,454,28,38
374,451,28,38
415,449,28,38
549,447,28,37
551,444,28,37
547,441,27,37
543,438,27,37
539,435,27,36
535,433,27,36
531,431,27,38
527,429,26,38
524,426,27,37
519,423,26,37
516,422,26,37
513,419,26,37
509,417,27,36
505,415,26,36
502,413,26,36
499,410,26,35
496,408,26,35
492,406,25,35
489,403,25,35
486,402,25,35
483,399,25,34
480,398,25,35
477,395,25,34
474,393,28,34
471,391,29,34
468,389,29,34
465,387,29,33
463,385,28,33
460,384,28,41
457,381,29,45
454,379,28,47
451,377,28,47
449,376,28,46
446,373,28,46
444,371,28,46
441,370,27,45
439,368,27,45
435,366,27,45
433,364,27,44
431,361,27,44
428,359,26,44
425,359,26,44
423,356,26,44
421,355,26,44
419,353,26,43
415,352,25,43
414,349,25,43
412,348,27,43
409,347,27,43
408,344,27,42
405,344,27,42
403,341,27,41
400,339,26,41
398,337,26,42
396,335,26,41
393,335,25,41
391,333,25,41
390,332,25,41
387,329,25,41
396,327,27,41
534,327,27,39
537,325,27,39
533,323,27,39
529,321,27,39
525,321,26,39
521,319,26,45
518,317,26,44
515,316,25,44
510,314,25,44
507,313,25,44
504,312,25,43
500,310,25,43
497,309,25,43
494,307,25,43
490,306,25,43
487,304,25,42
483,303,25,42
481,301,25,42
478,300,24,41
475,299,24,41
472,297,24,41
469,295,24,41
466,294,26,39
463,293,30,39
460,292,30,39
457,290,30,39
455,289,30,39
452,287,29,39
449,287,29,39
447,285,29,39
444,284,29,39
441,283,28,39
439,281,28,38
436,280,29,38
433,279,28,38
431,277,28,38
528,276,28,38
560,275,28,37
556,274,28,37
611,273,28,37
606,271,27,46
728,270,27,46
831,269,27,45
821,268,27,45
812,267,26,45
803,265,26,44
796,263,27,44
788,263,27,44
781,262,27,44
773,261,26,43
767,259,26,43
760,258,26,43
752,257,26,43
745,255,26,43
739,255,25,42
733,254,25,42
726,252,25,42
719,252,25,41
714,284,25,41
708,281,25,41
702,280,25,41
696,278,25,41
691,277,25,39
685,275,25,41
679,273,25,41
675,271,25,41
670,271,24,40
664,269,24,39
659,267,24,39
654,266,24,39
649,263,24,39
644,263,24,39
639,261,24,39
635,260,24,39
630,259,24,39
625,257,24,39
621,255,24,39
616,254,24,38
612,253,23,38
608,252,23,38
603,251,23,37
599,250,23,37
595,249,23,37
591,248,23,37
587,246,23,37
583,245,22,37
579,244,22,36
575,243,22,36
571,242,22,35
568,241,22,35
563,240,22,35
560,239,22,35
556,238,22,35
553,237,22,35
549,236,22,35
545,235,22,35
542,234,22,34
539,233,22,34
536,231,21,56
531,231,21,71
528,230,21,70
525,229,21,70
521,227,21,69
519,227,20,69
515,226,20,68
512,225,21,68
509,224,21,68
505,225,20,67
503,224,21,67
499,223,20,67
496,222,20,66
494,221,20,66
491,220,19,66
487,219,19,65
485,218,19,65
482,217,19,65
479,216,19,64
476,216,20,63
473,215,20,63
472,214,20,63
468,212,20,63
465,211,20,62
463,211,19,62
461,210,19,62
458,209,19,61
455,207,19,61
452,207,19,61
450,207,19,61
448,206,21,60
445,205,24,60
443,204,24,60
440,203,24,59
438,202,23,59
435,201,23,59
433,200,23,58
431,199,22,58
429,199,22,57
426,198,22,57
423,197,22,57
421,197,22,57
419,195,23,57
417,195,23,57
415,194,22,56
413,193,22,56
410,192,22,56
408,192,22,56
406,191,22,55
403,190,22,55
402,190,22,54
399,188,21,54
398,188,21,54
396,187,21,54
393,186,24,53
391,185,24,53
390,185,24,53
387,184,24,52
385,183,23,52
384,182,24,51
382,182,23,51
380,181,23,51
377,180,22,51
376,179,22,51
374,179,22,51
371,178,22,50
370,177,22,50
368,176,22,50
367,176,22,49
365,175,22,49
363,174,22,49
361,174,21,49
359,173,21,48
358,172,21,48
355,172,21,48
354,171,21,48
352,170,20,48
351,169,21,47
349,167,21,47
347,167,21,47
345,167,20,47
344,167,20,46
342,166,20,46
340,165,19,46
339,165,19,46
337,164,19,46
335,163,19,45
334,162,19,45
332,162,19,45
331,161,19,44
329,160,19,45
327,159,19,44
327,159,19,44
325,159,19,44
323,158,19,43
322,158,19,43
319,157,19,43
319,156,18,43
317,156,18,42
316,155,18,42
314,154,18,42
313,153,19,41
312,153,19,42
310,153,19,41
309,152,18,41
307,152,18,41
306,151,18,41
305,150,18,41
303,150,18,40
301,149,18,39
300,148,18,39
299,147,18,39
297,147,18,39
295,147,19,39
295,146,19,39
294,145,19,39
292,144,19,39
291,144,19,39
289,143,19,38
287,143,18,38
287,143,18,38
285,142,18,38
284,142,18,38
283,141,18,37
281,140,20,37
280,140,22,37
279,139,21,37
278,139,21,37
277,138,21,36
275,137,21,36
274,137,20,36
273,135,20,35
271,135,20,35
270,135,19,35
269,135,20,35
268,134,20,35
267,134,21,35
266,133,21,35
265,133,20,34
263,132,20,34
262,131,20,34
261,131,20,34
259,130,20,34
259,130,19,34
258,129,20,33
257,129,19,33
255,129,19,33
254,127,19,33
253,127,20,32
252,127,20,33
251,126,19,32
250,126,19,31
249,125,19,31
248,125,19,31
247,124,19,31
246,124,19,31
244,123,19,31
243,123,19,31
243,123,19,31
241,122,18,31
240,121,21,30
240,121,20,30
238,120,20,30
237,120,21,30
236,120,20,30
235,119,19,30
235,118,19,30
233,118,19,29
231,118,19,29
231,117,19,29
230,117,19,29
230,116,19,29
228,115,20,29
227,115,20,29
227,115,20,28
226,115,20,28
225,114,20,28
224,113,20,28
223,113,19,29
222,112,19,29
221,112,19,29
220,112,19,29
219,112,19,28
218,111,19,28
217,110,19,28
216,110,19,28
216,110,19,28
215,109,19,27
214,108,19,28
213,108,19,27
211,108,19,27
211,107,19,27
210,107,19,27
209,107,19,27
208,106,18,26
207,106,20,26
207,105,21,26
206,105,21,26
205,105,20,26
204,103,20,26
203,103,20,25
203,103,20,25
201,103,19,25
199,102,19,25
199,102,19,25
199,102,19,25
198,101,19,25
198,101,21,24
196,100,21,25
196,99,21,24
195,99,20,24
194,99,20,24
193,99,20,24
193,99,20,24
192,98,21,24
191,98,19,24
190,97,20,24
190,97,19,24
189,96,19,23
188,96,19,23
188,96,19,23
187,96,19,23
186,95,19,22
185,95,19,23
185,95,19,22
184,94,19,22
183,94,19,22
182,93,19,22
182,93,19,22
181,93,18,22
180,92,18,22
179,92,18,22
179,92,19,22
178,92,19,21
178,91,19,21
177,91,19,22
176,90,19,21
176,89,19,21
175,89,19,21
174,89,18,21
173,89,18,20
173,89,18,21
172,88,18,20
172,88,18,20
171,88,21,20
170,88,20,20
169,87,20,19
169,87,20,19
167,86,20,19
167,86,19,19
167,86,19,19
166,85,19,19
166,85,19,19
165,85,19,19
164,84,19,19
163,83,19,19
163,83,20,19
163,83,20,19
162,83,20,18
161,83,19,19
161,82,19,18
159,82,19,18
159,82,19,18
159,81,19,18
158,81,19,18
158,81,19,18
157,80,19,18
156,80,19,18
156,79,19,18
155,79,22,17
155,79,22,17
154,79,21,17
153,79,22,17
153,79,21,17
152,78,21,17
152,78,21,18
151,77,21,18
151,77,21,19
150,77,21,18
150,77,21,18
149,77,20,18
148,76,23,18
147,76,23,18
147,76,22,17
147,75,22,17
146,75,22,17
145,75,22,17
145,74,22,17
144,74,22,17
143,74,21,17
143,73,21,17
143,73,21,17
142,73,21,17
142,73,22,17
141,72,23,17
140,71,22,17
140,71,22,17
140,71,22,16
139,71,22,17
139,71,22,16
138,71,22,17
137,71,22,16
137,70,22,16
137,70,21,16
135,70,21,15
135,69,21,15
135,69,25,16
135,69,25,15
134,69,25,15
134,69,25,15
133,68,24,15
132,68,24,15
132,67,25,15
131,67,24,15
131,67,24,15
130,67,24,15
130,67,24,15
129,66,24,15
129,66,25,15
128,66,25,15
127,65,24,15
127,65,24,15
127,65,24,15
126,65,24,15
126,64,24,14
125,64,24,14
125,64,24,14
125,63,24,14
124,63,24,14
124,63,24,14
123,63,24,14
123,63,24,14
122,62,24,14
121,62,24,14
121,67,24,14
121,178,24,14
120,176,24,14
120,175,24,13
120,173,23,13
119,172,23,13
118,171,23,13
118,170,23,13
125,169,23,13
150,167,24,13
149,167,24,12
148,166,24,13
147,166,24,12
146,164,24,13
146,163,24,13
145,163,24,13
144,162,23,12
143,161,23,12
143,160,23,12
142,159,22,12
141,159,24,12
141,158,25,12
140,157,25,12
139,156,25,12
139,155,25,12
138,155,24,11
137,154,24,12
136,153,24,12
135,153,24,12
135,152,24,11
134,151,24,12
134,150,24,11
134,150,24,11
134,149,24,11
134,147,24,11
133,147,24,11
132,147,24,11
131,145,24,11
131,145,24,12
130,144,24,11
129,143,24,11
129,143,24,11
128,142,24,11
127,141,23,11
127,141,24,11
126,140,24,10
126,140,24,11
126,139,23,11
125,138,23,11
124,137,23,11
124,137,23,11
123,135,22,11
122,135,22,11
122,135,22,11
121,134,22,10
120,134,22,10
120,133,23,10
120,132,23,10
119,131,23,10
119,131,23,10
118,130,23,10
117,130,22,10
116,129,22,10
116,128,22,9
115,127,22,10
115,127,22,10
115,127,22,9
115,126,21,9
114,126,26,9
113,125,26,9
113,124,26,9
113,124,25,9
112,123,25,9
112,123,25,9
111,122,25,10
111,121,25,9
110,121,25,9
110,120,25,9
110,120,24,9
111,120,24,9
151,119,25,9
182,118,24,9
180,118,24,9
179,117,24,9
178,117,24,9
177,116,24,9
176,115,24,16
176,115,23,15
174,115,24,15
173,114,23,15
172,113,23,15
172,113,23,15
171,112,25,15
170,112,25,15
169,112,25,14
167,111,25,14
167,110,25,15
167,110,25,14
166,109,25,14
165,109,25,14
163,108,25,14
163,108,24,14
162,107,24,14
161,107,24,14
160,107,24,14
159,105,24,13
159,105,24,14
158,105,24,13
157,103,24,13
156,103,23,13
156,103,23,13
155,103,23,13
154,103,23,13
153,102,22,13
152,102,22,13
152,101,22,13
151,101,23,13
150,100,23,12
150,99,23,13
149,99,22,12
148,99,22,12
147,98,22,12
147,98,22,12
146,97,22,12
145,97,22,12
145,96,21,12
143,96,21,12
143,96,21,12
143,95,22,12
142,95,21,11
142,95,21,12
141,94,21,12
140,94,21,11
140,93,20,12
139,93,21,11
139,92,20,12
137,92,20,11
137,92,20,12
135,92,20,11
135,91,20,11
135,91,21,11
135,90,21,11
134,89,21,11
134,89,20,11
133,89,21,11
132,88,20,10
131,88,20,10
131,88,20,11
131,88,20,10
130,87,19,10
129,87,19,10
129,86,19,10
127,86,19,10
127,86,20,10
127,85,20,9
126,85,20,10
126,84,20,10
125,84,19,9
125,84,19,10
124,83,19,10
123,83,19,10
123,83,19,10
122,82,19,10
122,82,19,10
121,82,19,9
121,81,19,9
120,81,20,10
120,81,19,9
120,80,19,9
119,80,19,9
118,79,19,9
118,79,19,9
117,79,19,9
117,79,19,9
116,78,19,9
115,78,19,9
115,78,19,9
115,77,19,9
115,77,20,9
114,77,20,9
113,77,20,9
113,76,19,9
112,76,19,9
112,76,20,9
112,76,20,9
111,75,19,9
111,75,19,8
110,75,19,9
110,74,19,7
109,73,19,7
109,73,19,9
109,73,20,7
108,72,19,7
108,71,19,8
108,71,19,7
107,71,19,7
107,71,19,7
106,71,19,7
106,71,19,9
105,71,19,9
105,70,19,9
105,70,19,8
103,70,19,9
103,70,18,7
103,69,19,9
103,69,21,8
103,69,21,7
103,68,21,8
102,68,21,7
102,68,21,7
101,67,21,7
101,67,20,9
100,67,20,9
100,67,20,9
99,67,20,9
99,66,19,9
99,66,19,9
99,66,19,9
99,66,20,8
98,65,19,8
97,65,19,7
97,64,19,8
97,65,19,7
97,64,19,7
96,63,19,7
96,63,19,7
96,63,19,9
96,63,19,7
96,63,19,7
95,63,19,7
94,63,18,7
94,62,18,7
94,62,18,7
94,62,18,7
93,62,18,7
93,61,18,7
92,61,18,7
92,61,18,7
92,61,18,7
92,61,18,9
91,60,17,9
91,60,17,9
91,60,17,9
91,60,17,9
90,59,17,9
89,59,17,9
89,59,18,9
89,59,18,9
89,59,18,9
88,59,17,9
88,59,17,9
88,58,17,9
88,58,17,9
88,58,17,8
87,57,17,9
87,57,17,7
86,57,17,9
86,57,17,8
86,57,17,7
86,56,17,7
85,56,17,7
85,56,17,8
85,56,17,7
84,56,17,7
84,56,17,7
83,56,17,7
83,55,16,7
83,55,16,8
83,55,16,8
83,55,16,9
82,54,16,8
82,54,16,7
82,54,16,7
81,54,17,7
81,53,17,7
81,53,17,9
81,53,17,8
80,53,16,7
79,53,16,7
79,53,16,7
79,52,16,7
79,52,16,7
79,51,16,7
79,51,16,9
78,51,16,7
78,51,15,7
78,51,15,7
78,51,16,7
78,51,15,7
77,51,15,7
77,50,15,7
77,50,15,7
76,50,15,7
76,50,15,7
76,50,15,7
76,49,15,7
75,49,15,7
75,49,15,7
75,49,15,7
75,49,14,7
75,49,15,7
74,48,17,7
74,48,17,7
73,48,17,7
73,48,17,7
73,48,16,7
73,47,16,7
73,47,17,7
71,47,16,7
71,47,16,9
71,47,16,8
71,47,16,7
71,47,15,7
71,46,15,7
71,46,16,7
71,46,17,7
70,46,17,7
70,46,17,7
70,45,17,9
70,45,17,7
69,45,17,7
69,45,17,7
69,45,17,7
69,45,16,7
68,44,16,7
68,44,16,7
67,44,16,7
67,44,16,7
67,44,16,7
67,44,17,7
67,44,17,7
67,44,17,7
66,43,17,7
66,43,16,7
66,43,16,7
66,43,16,7
65,43,16,7
65,43,16,7
65,42,16,7
65,42,16,7
64,42,16,7
64,42,16,7
64,41,16,7
63,41,17,7
63,41,16,7
63,41,16,7
63,41,16,7
63,41,16,7
63,41,16,7
62,39,16,7
62,39,15,7
62,39,15,7
62,39,16,7
62,39,15,6
61,39,15,7
61,39,15,7
61,39,17,6
61,39,17,7
60,39,17,7
60,39,17,7
60,39,16,6
60,39,16,6
60,39,16,6
59,39,16,7
60,38,16,9
60,38,15,9
59,38,16,9
59,38,15,8
59,38,15,8
58,38,15,7
58,38,17,7
58,38,17,7
57,37,16,7
57,37,16,7
57,37,16,7
57,37,16,7
57,37,16,7
57,37,16,8
56,36,16,8
56,36,16,7
56,36,16,7
56,35,16,7
56,36,15,7
56,35,15,7
56,35,17,7
56,35,17,7
55,35,17,7
55,35,17,7
55,35,17,7
54,35,16,7
54,35,16,9
54,35,16,17
54,35,16,17
53,34,15,16
53,34,16,17
53,34,15,16
53,34,15,16
53,33,16,16
53,34,16,16
52,34,16,16
52,33,16,15
51,33,16,16
52,33,15,15
51,33,16,15
51,33,15,15
51,32,15,15
51,32,15,15
51,32,15,15
51,32,15,15
50,32,15,15
50,32,17,15
50,31,17,15
50,31,17,15
49,31,17,15
49,31,17,14
49,31,17,14
49,31,17,14
48,31,17,14
49,31,16,14
49,30,16,14
48,31,16,14
48,31,16,14
48,31,16,14
48,30,16,14
48,30,17,14
48,30,17,14
47,30,17,14
48,30,16,13
47,30,16,13
47,30,16,13
46,29,16,15
46,29,16,15
46,29,16,14
46,29,15,15
46,29,16,14
46,29,15,14
45,29,15,14
45,29,15,14
45,29,15,14
45,28,15,14
45,28,15,14
45,28,15,14
44,28,15,14
44,28,15,14
44,28,15,14
44,28,15,14
44,28,15,14
44,28,15,13
43,27,15,13
43,27,15,13
43,27,17,13
43,27,17,13
43,27,17,13
42,27,17,13
42,27,17,13
42,27,16,13
42,27,16,13
42,27,16,13
42,27,16,13
41,27,16,12
41,26,16,12
41,26,16,13
41,26,16,12
41,26,18,12
41,26,18,12
41,25,18,12
41,25,18,12
39,25,17,12
39,25,18,12
39,25,17,12
39,25,17,12
39,25,17,12
39,25,17,12
39,25,17,12
39,25,17,12
39,25,17,12
39,24,18,12
39,25,18,12
39,24,18,12
39,24,18,12
39,24,18,12
38,24,18,11
38,24,18,12
38,24,17,13
38,24,17,13
38,24,17,13
38,24,17,13
37,24,17,13
37,24,17,14
37,23,22,13
37,23,22,13
37,23,22,13
37,23,22,13
36,23,22,13
36,23,22,13
36,22,22,12
36,23,21,13
36,23,21,12
36,22,21,12
35,22,21,13
35,22,21,12
35,22,21,12
35,22,23,12
35,22,23,12
35,22,23,12
35,22,23,12
35,22,22,12
34,22,23,12
34,21,22,12
34,21,22,12
34,21,22,12
34,21,22,12
34,21,22,12
34,21,22,12
34,21,21,12
33,21,22,12
33,20,22,12
33,20,22,12
33,20,22,11
33,20,21,11
33,20,21,11
32,20,21,11
33,20,21,13
31,21,21,13
32,21,21,12
31,21,21,12
31,21,21,12
31,21,21,12
31,21,22,12
31,20,22,12
31,20,22,12
31,20,22,12
31,19,22,12
31,19,22,12
31,19,21,14
31,20,21,15
31,20,21,15
30,20,21,14
30,20,21,14
30,19,21,15
30,19,21,14
30,19,23,14
30,19,23,14
29,19,23,14
30,19,22,14
29,19,22,14
30,19,22,14
29,19,22,14
29,19,22,15
29,19,22,15
29,19,22,15
29,19,22,15
29,19,22,15
29,18,21,15
28,18,31,14
28,18,33,15
28,18,32,14
28,18,32,14
28,18,32,14
28,18,31,14
28,18,31,14
28,18,31,14
28,25,31,14
28,24,31,14
27,24,30,14
27,24,31,14
27,24,31,14
27,24,31,13
27,24,31,13
27,24,30,14
27,23,30,13
27,24,30,13
27,23,29,13
27,23,29,13
26,23,29,13
26,23,29,13
26,23,29,13
26,23,29,13
26,23,29,13
25,23,29,13
25,23,28,13
27,23,28,12
27,22,28,12
27,22,28,12
26,22,28,12
26,22,28,12
26,22,28,12
26,22,28,12
26,22,27,12
26,22,27,12
26,22,27,12
26,22,27,12
25,21,27,12
25,21,27,12
25,21,27,12
25,21,27,12
25,21,27,12
25,21,26,11
25,20,26,11
25,20,26,11
25,23,26,13
24,35,25,13
24,35,26,13
24,35,25,13
24,35,25,12
24,35,25,12
27,34,25,12
26,34,25,12
27,34,25,12
26,34,25,12
25,34,25,12
25,33,25,12
25,33,24,12
25,33,24,12
25,36,24,11
25,36,24,12
25,36,24,12
25,35,24,11
24,35,24,11
33,35,24,11
34,35,24,11
34,35,24,11
34,34,24,11
34,34,24,11
33,34,24,11
33,34,24,11
33,33,24,11
33,35,24,11
33,35,24,11
32,34,24,11
32,34,24,11
32,34,23,11
31,34,23,11
39,34,25,11
39,34,25,11
39,33,25,11
39,33,25,10
38,33,24,10
38,33,24,11
38,32,24,11
38,33,24,11
37,33,24,11
37,33,24,11
37,32,24,11
37,32,24,11
36,32,24,11
39,32,24,10
39,31,24,10
39,31,24,10
39,31,23,10
39,31,23,10
39,31,23,10
39,31,23,10
39,32,22,10
39,32,22,11
38,32,22,10
38,31,22,10
38,31,22,10
38,31,22,9
41,31,23,10
42,31,23,9
42,31,22,9
42,31,23,9
41,31,22,9
41,30,22,10
41,30,22,9
41,30,22,9
41,41,22,9
40,41,22,9
39,41,21,9
39,39,21,9
39,39,21,9
39,39,21,9
39,39,22,9
39,39,21,9
39,39,21,9
39,39,21,9
39,39,21,9
39,39,21,9
39,38,21,12
38,38,20,21
38,38,20,20
38,38,20,20
38,38,20,20
37,38,20,20
37,37,20,20
37,37,20,19
56,37,21,19
56,37,21,19
55,37,21,19
55,36,20,19
54,36,20,19
54,35,20,19
54,36,20,24
54,42,20,24
53,41,20,24
53,41,19,24
53,41,19,24
52,41,19,24
52,41,19,24
51,41,20,23
51,39,20,23
51,39,20,23
51,39,19,23
51,39,19,23
50,39,19,23
50,39,19,23
50,47,19,23
50,46,19,23
49,46,19,22
49,46,19,22
49,45,19,22
48,45,19,22
49,45,19,22
48,44,19,21
48,44,19,21
48,44,18,21
48,44,19,21
47,44,19,21
47,44,19,21
47,44,18,21
46,43,18,21
46,44,18,21
46,43,18,20
46,42,18,20
47,42,19,20
66,42,22,20
65,42,22,19
65,41,22,20
65,41,22,19
64,41,21,19
63,41,21,19
63,41,21,19
63,41,21,19
63,41,21,19
62,41,21,19
62,41,20,19
62,39,20,19
61,41,20,19
61,39,22,19
61,39,21,19
61,39,21,18
60,39,21,18
60,39,21,18
60,39,21,18
60,39,20,18
59,39,21,18
59,39,20,18
59,39,20,17
58,39,20,17
58,39,20,18
58,38,20,17
60,38,22,17
60,38,22,17
60,38,22,17
59,38,22,17
59,37,21,17
58,37,21,17
58,37,21,18
57,39,21,18
57,39,21,18
57,39,21,17
57,39,21,17
56,38,21,17
57,38,21,17
56,38,23,17
56,38,22,17
56,37,22,17
56,37,22,17
56,37,22,17
55,37,22,17
54,36,21,18
55,38,21,18
54,38,22,18
54,38,21,18
54,38,21,18
54,37,21,18
54,37,21,17
54,37,24,18
53,37,23,17
53,36,23,17
53,36,23,17
52,36,22,17
52,36,22,17
52,35,23,17
52,38,22,17
51,38,22,17
51,38,22,17
51,38,22,17
51,37,22,17
67,37,21,17
67,37,22,16
67,37,22,16
66,36,22,17
66,36,22,16
66,36,22,16
65,35,22,16
65,35,21,17
65,36,21,19
64,37,21,18
63,36,21,18
63,36,21,19
63,35,21,18
63,35,21,18
63,35,22,18
63,35,21,18
63,35,21,18
63,35,21,18
63,35,21,18
62,35,21,17
62,34,21,18
62,42,21,17
61,47,21,17
61,48,20,17
61,47,20,17
60,46,20,17
60,46,20,17
60,46,22,17
60,46,22,16
59,45,22,17
59,45,21,16
59,45,21,16
58,45,21,16
58,45,21,16
58,44,21,18
57,47,20,18
57,47,21,18
57,47,20,18
56,46,20,17
57,46,20,18
56,46,22,17
56,46,22,17
56,45,22,17
56,45,22,17
56,45,22,17
55,45,21,17
55,44,21,16
54,44,21,21
54,49,21,21
54,48,21,21
53,49,21,21
53,48,20,20
53,48,20,20
53,47,25,20
52,47,25,20
52,47,25,20
51,47,25,19
51,46,25,19
51,46,25,19
51,46,24,19
51,46,25,19
51,52,24,19
50,52,24,19
50,51,24,19
50,51,24,19
50,51,24,19
50,51,25,19
49,51,25,18
49,51,25,19
49,50,24,18
49,50,24,18
48,50,24,18
48,49,24,18
48,49,24,18
48,53,24,18
48,53,24,19
47,52,24,18
47,52,24,17
47,51,24,17
55,51,24,17
56,51,24,17
55,51,24,17
55,51,24,17
55,50,24,17
55,50,24,17
54,50,24,18
54,50,23,20
54,49,23,19
53,49,23,19
53,49,23,19
53,49,23,19
52,49,23,19
52,48,23,19
51,48,24,19
51,48,23,19
51,48,23,18
51,48,23,18
51,47,23,19
51,47,23,18
50,47,22,19
50,54,22,19
50,53,22,18
49,53,22,18
49,53,22,18
49,52,21,18
49,51,22,18
60,51,24,18
59,51,24,18
59,51,24,18
59,51,24,17
58,50,23,17
58,50,23,17
57,50,22,17
57,51,23,17
57,51,23,17
57,50,22,17
56,50,23,17
56,50,22,17
56,49,23,16
56,49,23,16
56,49,23,16
55,48,22,16
55,49,23,16
55,48,23,16
55,48,22,16
54,48,22,19
54,48,22,19
53,48,22,19
53,48,22,18
52,47,22,18
53,47,21,18
52,46,22,18
53,46,23,18
52,46,23,18
52,46,22,18
51,45,22,18
51,45,22,17
51,45,22,17
51,45,22,18
51,51,22,18
51,50,21,18
51,50,22,18
50,50,21,18
50,49,21,18
50,49,21,18
50,49,22,18
49,48,22,18
49,48,22,18
49,48,22,17
48,48,22,17
48,48,22,17
48,48,22,17
48,52,21,18
48,51,21,18
48,51,21,18
47,51,21,17
47,51,21,17
47,51,21,17
46,50,22,17
47,50,22,17
46,50,22,17
46,50,21,17
46,49,21,17
46,49,21,16
46,49,21,18
45,49,21,17
45,49,21,17
45,49,20,18
44,48,20,17
44,48,20,17
44,48,20,17
47,47,31,17
46,47,31,17
46,47,31,17
46,47,30,16
46,46,30,17
45,46,30,17
45,46,30,17
45,53,30,17
45,53,29,16
45,52,29,16
44,52,29,16
44,52,29,16
44,51,29,16
44,51,29,16
44,51,29,16
44,51,29,16
44,50,29,16
44,50,28,15
43,50,29,15
43,50,28,15
43,50,28,15
43,50,28,15
43,49,28,15
42,49,28,15
42,49,27,15
42,49,27,15
54,49,27,15
