99,108,2,1
99,108,2,1
99,107,2,1
98,107,2,1
98,106,2,1
97,114,2,1
97,122,2,1
96,122,2,1
96,121,2,1
96,120,2,0
95,120,2,1
95,120,2,1
94,119,5,1
94,118,6,2
94,118,6,1
93,117,6,1
93,117,6,1
92,115,6,1
92,115,6,1
92,115,6,1
92,121,6,1
91,120,6,1
91,120,6,1
90,119,6,0
90,119,5,1
89,118,5,2
89,117,6,1
89,117,6,1
88,116,6,1
88,115,6,1
88,115,6,1
88,115,6,1
87,114,6,1
87,120,6,1
87,120,6,1
86,119,6,1
86,118,5,1
86,118,6,1
85,117,6,1
85,117,5,1
84,115,6,1
83,115,6,1
83,115,5,1
83,114,5,1
83,113,5,1
82,113,5,1
82,113,5,1
84,126,5,1
83,126,5,1
83,125,5,1
83,125,5,1
82,124,5,1
82,123,5,1
82,123,5,1
81,122,5,1
81,121,5,1
81,121,5,0
80,120,5,1
80,120,5,1
79,120,4,1
79,119,5,2
81,127,5,1
81,126,5,1
80,125,4,1
79,125,5,1
79,124,4,1
79,124,5,0
79,123,5,1
79,122,5,1
78,122,5,1
78,121,5,1
77,121,4,1
77,121,5,1
76,120,4,1
76,120,4,1
78,124,4,1
77,123,4,1
77,122,5,1
76,121,4,1
76,121,4,1
76,121,4,1
76,120,4,1
76,120,4,2
75,119,4,1
75,118,4,1
74,118,4,1
74,117,4,1
73,117,3,1
73,117,4,1
83,127,4,1
82,127,3,1
81,126,3,1
81,125,4,1
81,125,4,1
81,124,3,1
79,124,3,2
79,123,3,1
79,122,3,1
79,121,4,1
78,121,4,1
78,121,3,1
78,120,3,1
78,120,3,1
79,124,3,1
79,123,3,1
79,123,3,1
79,122,3,1
78,121,3,1
78,121,3,1
78,120,3,1
77,120,3,1
76,120,3,1
76,119,3,1
76,118,3,1
76,118,3,1
75,117,3,1
83,118,3,1
92,120,3,1
91,119,3,1
90,118,3,1
90,118,3,1
89,118,3,1
89,117,3,1
88,116,3,1
88,115,3,1
88,115,3,1
88,115,3,1
87,114,3,1
87,114,3,1
86,113,3,1
89,112,3,1
88,112,3,1
88,112,3,1
87,111,3,1
87,110,3,1
86,110,3,1
86,110,3,1
86,109,3,1
85,108,3,1
85,108,3,1
84,108,3,1
83,107,3,1
83,107,3,2
83,106,3,1
83,188,3,1
83,205,3,1
82,204,3,1
82,202,3,1
81,201,3,1
81,199,3,1
81,199,3,1
80,197,3,1
79,196,3,1
79,195,3,1
79,195,3,1
79,194,3,1
78,193,3,1
79,192,3,1
88,191,3,1
88,190,3,1
88,189,3,1
87,243,2,1
86,347,2,1
86,352,3,1
85,349,3,1
85,347,3,1
84,344,3,1
84,342,3,1
84,340,3,1
83,338,3,1
83,335,3,1
162,376,3,1
179,477,3,1
178,472,3,1
177,467,2,1
176,465,2,1
175,462,2,1
174,459,3,1
173,455,3,1
172,453,3,1
171,449,3,1
170,447,3,1
169,444,3,1
167,441,2,1
198,439,2,1
231,435,3,0
230,433,2,1
229,431,3,1
227,428,3,1
227,425,2,1
225,423,3,1
224,421,3,1
223,419,3,0
222,415,3,1
220,413,3,1
220,411,3,1
219,409,3,1
217,407,3,1
218,404,3,0
217,402,3,1
217,399,3,1
216,397,3,1
215,396,3,0
213,393,3,1
213,391,5,1
211,389,4,1
210,387,4,1
209,384,4,1
208,382,4,1
207,380,4,1
207,378,4,1
205,376,4,1
204,375,4,1
204,373,4,1
203,371,4,0
202,369,4,1
199,367,4,1
199,365,4,1
199,363,3,1
198,361,4,1
197,359,3,1
196,358,4,2
195,467,3,1
194,599,3,1
194,748,3,1
192,790,3,1
192,782,3,1
192,775,3,1
190,768,3,1
189,760,3,1
188,753,5,1
188,747,5,1
187,741,4,2
186,732,4,1
185,726,5,1
184,719,4,1
184,714,4,1
183,709,4,1
182,859,4,1
181,881,3,1
180,871,4,1
179,862,4,1
179,854,4,1
178,845,5,3
177,837,6,2
176,829,6,2
176,822,5,2
175,812,6,2
174,804,6,2
173,797,5,2
173,790,5,2
172,783,5,2
171,776,5,2
170,770,5,2
169,763,5,3
169,757,5,2
167,750,5,2
167,743,5,2
167,738,5,2
166,732,5,2
165,724,5,2
164,719,5,2
163,713,5,2
222,707,5,2
220,702,5,2
219,696,5,3
218,691,5,2
217,686,5,2
216,681,5,3
215,675,5,3
214,671,5,3
213,666,5,3
211,661,5,3
211,655,5,3
210,650,5,3
208,646,5,3
261,641,5,4
261,637,5,3
259,632,5,3
258,627,4,3
257,624,4,3
255,619,4,4
254,615,5,4
252,611,5,5
251,607,5,4
249,603,5,4
249,597,5,4
248,593,5,3
246,590,5,4
245,586,4,4
243,582,5,4
242,578,4,3
241,575,4,4
240,571,4,3
239,568,5,4
238,563,6,5
236,560,6,4
236,556,6,5
235,553,6,4
233,550,6,4
231,545,6,4
231,542,6,4
230,539,6,4
229,536,5,4
227,532,6,4
227,529,6,4
226,526,5,4
225,523,6,4
224,519,6,12
223,517,6,13
222,513,6,12
220,509,6,12
220,507,6,12
219,504,6,12
217,499,6,12
216,497,6,12
216,494,6,12
215,492,5,12
213,487,6,12
212,485,5,12
211,482,5,12
210,480,5,12
209,476,5,12
207,473,5,11
207,471,5,11
206,469,5,11
206,465,5,11
205,463,5,11
204,460,5,11
203,457,5,11
202,455,5,11
199,452,5,11
199,449,5,11
199,447,6,11
198,444,6,10
197,441,6,10
196,440,6,10
195,437,5,10
195,434,5,10
193,432,5,10
193,430,5,9
192,428,5,9
191,425,5,10
190,423,5,10
189,420,5,10
188,418,6,10
188,415,6,10
186,414,6,9
185,411,6,10
185,409,6,10
184,408,6,9
184,469,6,9
183,575,6,9
182,570,5,9
181,566,6,9
180,561,5,9
179,557,5,9
179,551,5,9
178,548,7,9
177,545,9,9
176,541,9,9
176,537,9,9
175,534,9,9
174,530,8,9
173,527,8,9
172,524,8,9
172,519,7,9
171,517,7,9
171,622,8,9
169,615,7,9
169,610,7,9
167,605,9,9
167,601,9,10
167,596,9,9
166,591,8,9
166,588,7,9
165,583,8,9
164,579,7,9
163,575,7,9
163,664,7,9
162,678,7,9
161,670,7,9
161,665,7,9
159,659,7,9
159,655,7,9
159,649,9,9
158,644,9,9
158,639,9,9
157,635,9,8
156,630,9,7
156,625,9,8
155,621,9,7
155,615,9,7
153,611,8,7
153,607,8,7
152,601,7,7
152,597,8,7
151,593,9,7
151,589,9,7
150,585,9,7
149,581,9,7
149,577,9,7
148,574,9,7
147,569,9,7
167,566,8,7
231,562,9,7
231,559,8,7
229,555,9,7
227,550,7,7
227,547,7,7
226,543,9,7
224,540,12,7
224,536,12,7
222,532,12,7
221,528,12,7
220,525,12,7
219,522,11,7
220,519,12,7
242,530,11,7
240,525,11,7
238,521,11,7
237,518,11,7
236,515,11,7
235,510,11,6
233,507,11,7
231,504,11,6
231,501,10,6
230,497,10,7
229,494,11,6
293,491,10,6
391,487,10,6
388,484,10,6
386,481,10,6
384,479,10,6
380,476,10,6
378,472,10,6
376,470,10,6
374,467,10,6
371,465,10,6
369,462,10,6
367,459,9,6
365,455,9,6
364,454,9,6
361,451,9,5
359,449,9,6
358,446,9,5
355,444,9,6
354,441,9,6
352,439,9,6
351,435,9,5
348,434,9,5
347,432,9,5
345,429,9,5
344,427,9,5
342,423,9,5
340,423,9,5
338,419,9,5
337,418,9,5
335,415,9,5
333,414,7,4
332,412,9,5
330,409,9,5
327,407,8,4
327,404,8,4
325,403,7,5
323,400,9,4
322,399,9,4
319,397,8,4
319,519,7,5
318,659,7,4
316,654,7,4
315,647,7,4
313,643,7,4
312,638,7,5
310,633,7,4
309,626,9,4
307,621,9,4
305,617,9,4
304,611,9,4
303,608,9,4
302,603,9,4
321,600,9,4
319,595,9,4
318,591,9,4
316,587,7,3
315,583,9,3
313,579,9,4
312,575,8,4
310,569,7,4
308,566,8,3
307,562,7,3
305,558,8,3
304,555,7,4
302,551,7,3
301,547,7,3
299,543,7,3
298,540,7,3
295,537,7,3
295,534,7,3
294,530,7,3
292,527,7,3
291,523,7,3
290,519,7,3
287,515,7,3
287,513,7,3
286,509,7,3
285,542,7,3
310,604,7,3
308,599,7,3
307,594,7,3
305,590,7,3
304,585,7,3
302,581,7,3
300,577,7,3
299,573,7,3
297,568,7,3
295,563,7,3
294,560,7,3
293,556,7,3
291,575,7,3
290,740,7,3
391,857,7,3
387,847,7,3
440,839,7,3
435,830,7,3
432,822,7,3
429,815,7,3
427,807,7,3
423,798,7,2
422,790,7,3
419,783,7,2
417,776,7,2
415,770,7,2
412,768,7,2
409,762,7,2
408,755,6,2
406,749,6,3
455,743,6,2
481,737,6,2
477,731,7,2
474,725,6,2
472,717,6,2
468,711,6,2
465,706,6,2
463,700,6,2
460,696,6,2
457,690,6,2
455,684,6,2
451,679,6,2
449,674,6,2
447,669,6,2
444,664,5,2
442,659,7,2
440,655,9,2
436,648,9,2
434,643,9,2
432,639,9,2
429,635,9,4
427,631,8,7
425,639,7,6
423,702,7,6
423,696,7,6
551,690,7,6
639,684,7,6
793,679,7,6
891,673,7,6
905,668,7,6
902,664,7,6
890,655,7,6
880,651,7,6
871,647,7,6
863,814,7,6
855,889,7,6
847,878,7,6
839,869,7,7
831,860,7,51
824,852,7,77
816,841,7,92
809,833,7,119
801,825,8,121
793,816,7,120
787,807,9,119
779,801,9,118
772,792,7,117
765,785,7,116
759,775,7,115
752,769,7,115
745,760,7,114
739,754,7,114
732,747,7,113
726,739,7,113
719,733,8,112
714,726,7,111
708,719,7,111
702,714,7,110
697,707,7,110
691,701,7,109
686,695,7,108
681,689,7,108
675,682,7,108
670,677,7,107
665,671,7,107
659,666,8,106
655,660,11,105
649,654,10,105
644,649,10,103
639,643,10,103
634,637,10,103
630,633,10,103
625,627,10,102
620,623,10,102
615,617,10,101
611,611,10,100
606,608,10,100
601,602,11,99
598,598,11,99
593,593,10,99
589,589,10,98
585,585,10,98
582,580,10,97
577,705,10,96
574,701,10,96
569,696,10,96
566,689,10,95
562,682,10,95
558,677,11,94
555,669,13,94
551,664,13,93
547,657,13,93
543,652,13,93
541,647,13,92
537,639,13,92
534,636,12,92
531,630,12,91
527,625,12,90
524,621,13,90
521,615,12,89
517,611,21,89
514,604,22,89
511,601,22,88
508,595,22,88
504,591,21,88
502,587,21,88
499,582,21,87
495,577,21,86
492,572,21,86
489,569,20,85
487,566,21,85
483,561,20,85
481,557,20,84
478,552,20,83
476,549,20,83
473,545,19,83
470,541,19,82
467,538,19,82
464,534,19,82
462,531,19,81
460,526,19,81
457,524,19,81
454,520,19,80
451,516,19,79
449,513,19,79
447,508,19,79
444,505,19,79
442,502,19,78
440,499,18,78
437,496,18,78
434,492,18,77
432,489,18,77
430,487,18,77
428,483,18,76
425,480,18,76
423,477,18,75
420,475,18,76
418,471,17,75
415,469,18,74
414,465,17,74
412,463,17,74
409,460,17,73
408,457,17,73
405,455,17,73
403,451,17,71
401,449,17,71
399,446,17,71
396,443,17,71
395,441,16,71
391,438,16,70
391,435,16,70
388,433,16,70
387,431,16,70
384,428,16,69
383,425,16,69
380,423,16,69
379,420,15,68
377,418,15,68
375,415,15,68
373,413,15,67
371,411,15,67
369,408,15,67
368,407,15,66
366,403,15,66
364,401,15,66
362,399,15,66
359,397,15,65
359,395,15,65
357,393,15,65
355,391,15,64
353,387,14,64
352,386,14,63
350,384,15,63
348,382,15,63
346,380,14,63
345,377,14,63
343,376,14,62
341,374,14,62
339,371,14,62
338,370,14,61
336,368,14,61
335,366,13,61
333,364,14,61
332,361,17,60
330,359,17,60
327,358,17,60
327,356,17,60
325,354,16,59
323,352,16,59
322,351,16,59
320,349,16,58
319,347,15,58
318,345,16,58
316,344,15,58
315,342,22,57
313,339,24,57
312,338,24,57
311,335,23,57
309,335,23,56
307,333,23,56
306,331,23,56
304,330,22,56
303,327,22,56
302,327,22,56
300,324,22,55
299,323,21,55
297,321,22,54
295,319,22,54
295,319,22,54
294,316,22,53
292,315,21,53
291,313,21,53
289,312,21,52
287,311,21,53
287,308,21,52
285,307,21,52
284,305,20,51
283,304,20,51
281,303,22,51
280,301,22,51
279,300,21,51
278,298,21,51
277,297,21,50
275,295,21,50
274,294,21,50
273,293,21,49
271,291,20,49
270,290,20,49
269,287,21,49
268,287,20,48
267,285,20,48
265,284,20,48
263,283,19,48
263,281,19,48
262,280,19,48
261,279,19,47
259,278,19,47
258,276,19,47
257,275,19,46
256,273,19,46
255,271,19,46
254,271,19,46
253,270,19,46
252,268,19,45
251,267,18,45
250,265,18,45
249,265,18,45
248,263,18,44
246,262,18,44
245,261,18,44
244,259,18,44
243,259,18,44
242,257,18,44
241,255,18,44
240,255,17,43
239,254,17,43
238,252,17,43
237,251,17,43
236,250,17,42
235,249,17,42
234,248,17,42
231,247,16,41
231,245,16,41
231,244,16,41
230,243,16,41
229,242,33,41
228,241,33,41
227,240,32,39
226,239,32,39
225,238,31,39
224,239,31,39
223,397,31,39
222,402,31,39
221,399,31,39
220,396,31,39
220,393,30,39
219,390,31,39
217,387,30,39
217,385,30,39
216,383,30,38
215,380,30,38
214,377,30,38
213,376,29,38
211,372,29,37
211,371,29,38
210,368,29,37
209,366,28,37
207,364,29,37
207,361,28,37
207,359,28,36
206,356,28,36
205,355,28,36
204,353,28,36
204,351,27,35
203,411,27,35
201,509,27,35
201,505,27,35
199,502,27,35
199,497,27,35
198,494,27,34
197,489,26,34
197,486,26,34
195,482,25,34
195,479,26,34
194,476,25,34
193,472,25,34
193,491,25,33
192,521,25,33
191,517,25,33
190,513,25,33
189,508,25,32
188,505,25,32
188,501,24,32
187,497,24,32
186,493,24,32
185,490,24,31
185,487,24,31
184,483,24,31
183,480,24,31
183,476,24,31
182,473,23,31
181,471,23,31
180,467,23,31
179,463,23,30
179,460,22,31
178,458,22,30
177,454,22,30
176,451,22,30
176,449,22,30
175,445,21,30
174,443,22,30
173,440,22,29
173,437,22,29
172,434,21,29
172,431,21,29
171,429,21,29
170,425,21,29
169,423,20,29
168,420,20,28
167,418,20,29
167,415,20,28
167,413,20,28
166,411,20,28
165,408,20,28
165,405,19,28
163,403,19,28
163,399,19,27
163,398,19,27
162,395,19,27
161,393,19,27
161,391,19,27
159,388,19,27
159,387,19,26
158,384,19,27
158,382,19,26
157,379,18,26
157,377,18,26
156,375,18,26
155,373,18,25
155,371,18,25
154,368,18,25
153,367,18,25
153,364,18,25
153,363,17,25
152,359,17,25
152,358,17,25
151,356,17,24
150,354,17,24
150,352,17,24
149,350,17,24
148,348,16,24
147,347,16,24
147,344,16,24
147,343,16,24
146,340,16,24
145,339,16,24
144,337,16,24
144,335,16,23
143,333,15,24
143,331,16,23
142,329,15,23
142,327,15,23
141,326,15,23
141,325,15,22
140,323,15,22
140,321,15,22
139,319,15,22
138,318,14,22
137,316,14,22
137,314,14,22
137,313,14,21
135,311,14,21
135,309,14,22
135,307,14,21
135,306,14,21
134,305,14,21
133,303,14,21
133,301,14,21
132,300,14,21
131,298,14,20
131,297,14,20
183,295,14,21
181,294,14,20
179,291,13,20
179,291,13,20
177,289,13,20
177,287,13,20
176,286,13,19
174,284,13,19
174,283,13,19
173,281,13,19
172,281,13,19
171,280,13,19
170,278,12,19
169,276,12,19
167,275,12,19
167,273,12,19
167,271,12,19
166,271,13,18
165,270,13,18
164,268,13,18
163,267,13,18
162,265,13,18
161,263,12,18
161,263,12,18
159,262,12,18
159,261,12,18
158,259,12,18
158,258,12,17
157,255,12,17
156,255,12,17
155,254,12,17
155,252,12,17
153,252,12,17
153,250,12,17
152,249,11,17
152,248,11,17
151,247,11,16
150,246,11,16
149,244,11,16
148,243,11,16
147,242,11,16
147,241,11,16
146,240,11,16
145,238,11,16
145,238,11,15
143,236,10,15
143,235,10,15
190,235,10,15
210,233,10,15
209,231,10,15
207,231,10,15
206,230,10,15
205,229,10,15
204,227,12,15
203,227,12,15
201,226,12,14
199,225,12,14
199,224,12,14
198,223,12,14
197,222,11,14
196,221,11,14
195,220,12,14
194,219,11,14
193,217,11,14
192,217,11,14
191,216,11,14
190,215,11,14
189,214,11,14
188,213,11,14
187,212,11,14
186,211,11,13
185,210,10,13
184,209,11,13
183,207,10,13
182,207,10,13
182,206,10,13
180,206,10,13
179,205,9,13
178,204,10,13
178,203,10,13
177,202,9,13
176,201,9,12
175,199,9,13
174,199,9,12
173,199,9,13
172,198,9,13
172,197,9,12
171,195,9,12
170,195,9,12
169,194,9,12
167,193,9,12
167,193,9,13
167,192,9,12
167,192,9,12
166,190,9,12
165,190,8,12
163,189,8,12
163,188,7,12
162,187,8,11
161,186,7,11
161,186,8,11
159,185,7,11
159,184,7,11
158,184,7,11
158,183,7,11
157,182,7,11
156,181,7,11
156,181,7,11
155,180,7,11
155,179,7,11
153,179,7,11
153,177,7,10
152,177,7,11
152,176,7,11
151,176,7,10
150,174,7,10
150,174,7,10
148,173,7,10
148,172,7,10
147,172,7,10
147,171,7,10
146,171,7,10
146,169,7,9
145,169,7,10
143,167,7,9
143,167,7,9
143,167,7,10
142,167,7,9
142,166,7,9
141,165,7,9
141,165,7,9
140,163,6,9
140,163,6,9
139,162,6,9
138,162,7,9
137,161,6,9
137,161,6,9
137,159,7,9
135,159,6,9
135,159,6,9
135,158,6,9
135,158,6,9
134,157,6,8
133,157,6,9
133,156,6,7
132,155,6,7
131,155,6,8
131,154,6,9
131,153,6,8
130,153,6,7
130,152,6,7
129,152,5,7
129,152,6,7
127,151,6,7
127,150,5,7
127,150,5,7
127,149,5,7
126,148,5,7
125,147,5,7
125,147,5,7
125,147,5,7
124,146,5,7
124,145,5,7
123,145,5,7
123,145,5,7
123,143,5,7
122,143,5,7
121,143,5,7
121,142,5,7
120,142,5,7
120,141,5,7
120,141,5,7
119,140,4,7
119,140,5,7
118,139,5,7
118,138,5,7
118,138,4,7
117,137,4,7
117,137,5,7
116,137,4,7
115,135,4,7
115,135,4,6
115,135,4,6
114,135,4,7
114,134,4,7
113,133,4,6
113,133,4,6
113,132,4,6
112,132,4,7
112,131,4,6
112,131,4,6
111,131,4,6
111,130,4,6
111,129,4,6
110,129,3,6
109,128,4,6
109,127,3,6
109,127,3,6
108,127,3,6
108,126,3,6
108,126,3,7
107,125,3,6
107,125,3,6
106,124,3,6
106,124,3,6
105,124,3,5
105,123,3,6
105,123,3,5
104,123,3,6
103,121,3,5
103,121,3,5
103,121,3,6
103,120,3,5
103,120,3,5
102,120,3,5
102,119,3,5
101,119,3,5
101,118,3,5
100,118,3,5
100,117,3,5
99,117,3,5
99,116,3,5
99,115,3,6
99,115,3,5
98,115,3,5
98,115,3,4
98,114,3,5
97,114,3,5
97,113,3,4
97,113,3,4
96,112,3,4
96,112,3,5
96,112,3,4
96,112,3,5
95,111,3,5
95,110,3,4
94,110,3,4
94,110,3,5
94,110,3,4
94,109,3,4
93,109,3,4
92,109,2,4
92,108,3,4
92,108,3,4
92,107,3,4
92,107,2,4
92,107,3,4
91,106,2,4
91,106,2,4
91,105,3,4
90,105,3,3
90,105,2,4
89,103,2,4
89,103,2,4
89,103,3,4
88,103,2,4
88,103,3,4
88,102,2,3
88,102,2,4
88,102,2,3
87,101,2,3
87,101,2,3
86,101,2,3
86,99,2,3
86,100,2,3
86,99,2,3
85,99,2,3
85,99,2,3
85,98,2,4
84,98,2,3
84,98,2,3
84,98,2,3
83,97,2,3
83,97,2,3
83,97,2,3
83,96,2,3
82,96,2,3
82,96,2,3
82,95,2,3
82,95,2,3
81,95,2,3
81,94,2,3
81,94,1,3
81,94,2,3
80,93,2,3
79,93,2,3
79,93,1,3
79,93,2,3
79,92,1,3
79,92,2,3
79,92,1,3
79,91,2,3
78,91,1,3
78,91,1,3
78,91,1,3
77,90,1,3
77,90,1,3
77,89,1,3
77,89,1,3
77,89,1,3
76,88,1,3
76,88,1,3
76,88,1,3
76,88,1,2
75,88,1,3
75,88,1,3
75,87,1,3
75,87,1,3
75,86,1,2
74,86,1,2
73,86,1,3
73,85,1,2
73,85,1,2
73,85,1,2
73,84,1,2
72,84,1,2
71,84,1,2
71,83,1,2
71,83,1,2
71,83,1,3
71,83,1,2
71,83,1,2
71,82,1,2
71,82,1,2
71,82,1,2
70,81,1,2
70,81,1,2
70,81,1,2
70,81,1,2
70,80,1,2
69,80,1,2
69,79,1,2
69,79,1,2
68,79,1,2
68,79,1,2
68,79,1,2
68,78,1,2
67,78,1,2
67,78,1,2
67,78,1,2
67,77,1,2
67,77,1,2
67,77,1,2
66,77,1,2
66,77,1,3
66,76,1,2
66,76,0,2
65,76,1,2
65,76,0,1
65,75,1,2
65,75,1,2
64,75,1,2
64,75,1,1
63,75,1,2
63,74,1,2
63,73,1,2
63,73,1,1
63,73,1,1
63,73,1,2
63,73,0,2
63,72,1,2
62,71,1,2
62,71,1,1
62,71,1,1
62,71,1,2
61,71,1,2
61,71,1,1
61,71,1,1
61,71,0,1
61,70,0,2
61,70,1,2
60,70,0,1
60,70,1,1
60,69,0,1
60,69,0,1
59,69,0,1
59,69,1,1
59,69,1,1
59,68,1,1
59,68,1,1
59,67,1,1
58,67,1,1
58,67,0,1
57,67,1,1
57,67,1,1
57,67,0,1
57,67,0,1
57,67,1,1
57,66,1,1
56,66,1,1
57,66,0,1
56,65,1,1
56,66,1,1
56,65,1,1
56,65,1,1
56,65,1,1
56,64,1,1
56,64,1,1
55,64,0,1
55,63,0,1
55,63,0,1
54,63,0,1
54,63,1,1
54,63,0,1
54,63,1,1
54,63,0,1
53,62,1,2
53,62,1,1
53,62,0,1
53,62,0,1
53,62,1,1
53,61,1,1
52,61,0,1
52,61,0,1
52,61,0,1
52,61,0,1
51,61,0,1
51,60,0,1
51,60,0,1
51,60,1,1
51,60,0,1
51,59,0,1
51,59,0,1
51,59,1,1
50,59,1,1
50,59,1,1
50,58,1,1
50,58,0,1
50,58,1,1
49,57,1,1
49,57,0,1
49,57,0,2
49,57,1,1
49,57,0,1
49,57,1,1
48,56,0,1
48,56,1,1
48,56,0,1
48,56,0,1
48,56,1,1
48,56,1,1
48,56,0,1
47,56,1,1
47,56,1,1
47,55,1,1
47,55,0,1
47,54,0,1
46,54,0,1
46,54,0,1
46,54,1,1
46,54,0,1
46,53,0,0
46,53,1,1
45,53,1,0
45,53,1,0
45,53,0,1
45,52,0,2
45,52,1,1
45,52,1,0
45,52,1,0
44,51,1,1
44,51,0,0
44,51,0,0
44,51,0,0
44,51,0,1
44,51,0,1
44,51,0,1
43,50,0,1
43,50,0,0
43,50,0,1
43,50,0,1
43,56,0,1
43,55,0,0
42,55,0,0
42,55,0,0
42,54,0,1
42,54,0,0
41,54,0,0
41,54,0,0
42,54,1,0
41,53,0,0
41,53,0,1
41,52,0,0
41,52,0,0
41,52,0,0
41,52,0,1
41,52,0,0
39,51,0,1
39,51,0,0
39,51,0,0
39,51,0,0
39,51,0,0
39,51,0,0
39,50,1,0
39,50,0,0
39,50,0,0
39,50,0,0
39,49,1,0
39,49,1,0
39,49,1,0
38,49,0,0
39,48,0,0
38,48,0,0
38,48,0,0
38,48,0,0
38,48,0,0
38,48,0,0
38,48,1,0
38,48,1,0
37,47,0,0
37,47,0,0
37,47,0,0
37,47,0,0
37,46,0,0
37,46,1,0
37,46,0,0
37,46,0,0
36,46,0,0
36,46,0,1
36,46,0,0
35,46,0,0
35,45,0,0
35,45,0,0
35,45,0,0
35,45,0,0
35,45,0,0
35,44,0,0
35,45,0,0
35,44,0,0
35,44,0,0
35,44,0,0
35,44,0,0
35,44,0,0
35,43,0,0
34,44,0,1
34,43,0,0
34,43,0,0
34,43,0,0
34,43,1,0
34,43,0,0
34,43,0,0
33,42,0,0
33,43,1,0
33,42,1,1
33,42,0,0
33,42,0,0
33,42,0,0
33,42,0,0
33,42,0,0
33,42,1,0
32,41,0,0
32,41,0,0
32,41,0,0
31,41,1,0
31,41,1,0
31,41,1,0
31,40,1,0
31,39,1,0
31,40,1,0
31,39,1,0
31,39,1,0
31,39,1,0
31,39,1,0
31,39,1,0
31,39,1,0
30,39,1,0
30,39,1,0
30,39,1,0
31,39,1,1
30,39,1,0
30,39,1,0
30,38,1,0
30,38,1,0
30,38,1,0
30,38,1,0
30,39,1,0
30,38,1,0
30,39,1,0
29,38,1,0
29,38,1,0
29,38,1,0
29,38,1,0
29,37,1,0
29,37,1,0
28,37,1,0
29,37,1,0
29,37,1,0
29,37,1,0
29,37,1,0
28,42,1,0
28,44,1,0
28,44,1,0
28,43,0,0
28,43,0,0
28,43,1,0
28,43,1,0
28,43,1,0
28,42,1,0
27,42,0,0
27,42,1,0
27,41,1,0
27,41,1,0
27,41,1,0
27,41,1,0
30,55,1,0
30,56,1,1
30,56,1,0
30,56,0,0
30,56,1,0
30,56,1,0
29,55,1,0
29,55,4,0
29,55,5,0
29,54,5,0
29,54,4,0
29,54,4,0
29,53,4,0
28,53,4,0
28,53,4,0
28,60,4,0
28,59,4,0
28,59,3,0
28,59,3,0
28,59,4,0
28,58,4,0
27,58,4,0
27,57,4,0
27,57,4,0
27,57,4,0
27,57,3,0
27,57,3,1
27,57,3,0
27,56,3,0
27,56,3,0
27,56,3,0
26,56,3,0
27,56,3,0
26,56,3,0
26,55,3,0
26,55,3,0
26,54,3,0
26,54,3,0
25,54,3,0
25,54,3,0
25,53,3,0
25,53,3,0
25,53,3,0
25,53,3,0
25,55,3,0
25,99,3,0
25,98,3,0
25,97,3,0
25,97,3,0
24,97,3,0
24,96,3,0
24,96,3,1
24,96,3,0
24,95,3,0
24,94,3,0
24,94,3,0
24,93,3,0
24,93,3,0
24,93,3,0
24,92,3,0
24,92,2,0
24,92,3,0
24,91,3,0
24,91,3,0
24,91,3,0
24,90,2,0
23,89,2,0
23,89,3,0
23,89,3,0
23,88,3,0
23,88,2,0
22,88,3,0
22,87,2,0
29,87,2,0
31,87,2,0
31,86,2,0
31,86,2,0
31,85,2,0
31,85,2,0
31,84,2,0
31,84,2,0
31,83,2,0
30,83,2,0
30,83,2,0
30,83,2,0
30,82,2,0
30,82,2,0
30,82,2,0
30,81,2,0
30,81,2,0
30,81,2,0
29,80,2,0
29,79,2,0
29,79,2,0
29,79,2,0
29,79,2,0
29,79,2,0
29,78,2,0
28,78,2,0
28,78,2,0
28,77,2,0
28,77,2,0
28,76,2,0
29,77,2,0
30,76,1,0
30,76,1,0
30,76,2,0
30,76,2,0
30,76,2,0
30,75,2,0
30,75,2,0
30,74,2,0
29,74,2,0
29,74,2,1
29,74,2,0
28,73,1,0
28,73,1,0
29,71,1,0
28,87,2,0
28,86,1,0
28,85,2,0
28,85,2,0
28,85,1,0
28,84,1,0
28,84,2,0
28,83,2,0
27,83,2,0
28,83,2,0
27,82,2,0
27,82,2,0
27,81,1,0
27,81,1,0
28,81,2,0
31,80,2,0
31,79,1,0
31,79,2,0
31,79,2,0
31,79,2,0
31,79,1,1
30,78,2,0
30,78,2,0
30,78,2,0
30,78,2,0
30,77,2,0
30,77,2,0
30,76,2,0
29,76,2,0
31,77,2,0
33,76,2,0
32,76,2,0
32,76,2,0
32,75,2,0
31,75,2,0
31,75,2,0
31,74,2,0
31,74,2,0
31,73,2,0
31,73,2,0
31,73,2,0
31,72,2,0
30,71,2,0
30,71,1,0
31,83,1,0
31,83,2,1
31,82,2,0
31,82,2,0
31,81,2,0
31,81,2,0
31,81,1,0
31,80,1,0
31,79,2,0
30,79,2,0
31,79,1,0
31,79,2,0
30,78,1,0
30,78,2,0
30,80,1,0
45,83,1,0
44,83,1,0
44,83,1,0
44,82,1,0
44,82,1,0
44,81,1,0
43,81,1,0
43,81,1,0
43,80,2,0
43,79,1,0
42,80,1,0
42,79,1,0
42,79,1,0
42,79,1,0
41,79,1,0
42,82,1,0
42,82,1,0
42,81,1,0
41,81,1,0
41,81,2,0
41,79,1,0
41,80,1,0
41,79,1,0
40,79,1,1
39,79,1,0
39,79,1,0
39,78,1,0
39,78,1,0
39,78,1,0
39,79,1,0
39,78,1,0
39,78,1,0
39,77,1,0
39,77,1,0
39,77,1,0
39,76,1,0
38,76,2,0
38,76,2,0
38,76,2,0
38,75,2,0
37,75,2,0
37,75,2,0
37,74,2,0
37,83,2,0
39,101,2,0
39,100,2,0
38,99,1,0
38,99,2,0
38,99,1,1
38,98,1,0
38,98,1,0
37,97,2,0
37,97,1,0
37,96,1,0
37,96,1,0
37,96,1,0
36,95,1,0
36,95,1,0
41,96,1,0
47,96,1,0
46,95,1,0
46,95,1,0
46,94,1,0
45,94,1,0
45,94,1,0
45,93,1,0
45,93,1,0
45,92,1,0
44,92,1,0
44,92,1,0
44,91,1,0
44,91,1,0
44,91,1,0
49,99,1,0
51,98,1,0
51,97,1,0
51,97,1,0
50,97,1,0
50,96,1,0
50,96,1,0
50,96,1,0
49,95,1,0
49,94,1,0
49,94,1,0
49,93,1,0
48,93,1,0
48,93,1,0
48,93,1,0
48,108,1,0
48,107,1,0
48,106,1,0
48,105,1,0
48,105,1,0
47,104,1,0
47,103,1,0
46,103,1,0
46,103,1,0
46,102,1,0
46,102,2,0
46,102,1,0
46,101,1,0
45,101,1,0
46,103,1,0
46,102,1,0
45,102,1,0
45,101,1,0
45,101,1,0
45,100,1,0
44,99,1,0
44,99,2,1
44,99,1,0
44,98,1,0
44,98,2,0
44,97,1,0
43,97,1,0
43,97,2,0
43,98,1,0
43,98,1,0
42,98,1,0
42,97,1,0
42,97,1,0
42,97,1,0
42,96,1,0
41,96,1,0
41,95,1,0
41,95,1,0
41,94,1,0
41,94,1,0
41,93,1,0
39,93,1,0
39,96,1,0
43,102,1,0
44,101,1,0
44,100,1,0
43,100,1,0
43,99,1,0
43,99,1,0
43,99,1,0
42,98,2,0
42,98,2,0
42,98,1,0
42,97,2,0
41,96,2,0
41,96,2,0
41,96,2,0
46,105,1,0
46,103,1,0
46,103,1,0
46,103,1,0
45,103,2,0
45,102,1,0
45,101,1,0
45,101,2,0
45,100,1,0
44,100,2,0
44,99,2,0
44,99,1,0
44,99,1,0
44,99,1,0
44,120,2,0
44,119,1,0
44,118,1,0
43,117,1,0
43,117,1,0
43,116,1,0
43,115,1,0
42,115,1,0
42,114,1,0
42,113,1,0
42,113,1,0
41,112,1,0
41,112,2,0
41,112,1,0
41,112,1,0
41,112,1,0
41,111,1,0
41,111,1,0
41,110,1,0
40,110,1,0
39,109,1,0
39,108,1,0
39,108,1,1
39,108,1,0
39,107,1,0
39,107,1,0
39,106,1,0
39,105,1,0
39,105,1,0
39,105,1,0
39,103,1,0
38,103,1,0
38,103,1,0
38,103,1,0
38,102,1,1
38,102,2,0
37,102,1,0
37,101,1,0
37,101,1,0
37,100,1,0
37,99,1,0
37,101,1,0
37,101,1,0
37,100,1,0
36,100,1,0
36,99,1,0
36,99,1,0
35,98,1,0
35,98,2,0
35,98,2,0
35,97,1,0
35,97,2,0
35,97,2,0
35,96,2,0
35,96,2,0
34,95,2,0
34,124,2,0
41,142,2,0
41,141,2,1
41,140,2,0
39,139,2,0
40,138,2,0
39,138,2,0
39,137,2,0
39,135,2,0
39,135,2,0
39,135,2,0
39,135,2,0
39,134,2,0
39,133,2,0
39,134,2,0
39,133,2,0
39,132,1,0
39,131,1,0
39,131,2,0
38,131,2,0
38,130,2,0
38,129,2,0
38,129,2,0
38,128,2,0
38,127,2,0
37,127,2,0
37,126,2,0
37,126,2,0
42,126,2,0
43,125,2,0
43,125,2,0
42,124,2,0
42,124,2,0
42,123,2,0
41,123,2,0
41,122,2,0
41,121,2,0
41,121,2,1
41,120,2,0
39,120,2,0
39,120,2,0
39,119,2,0
51,120,2,0
50,120,2,0
50,119,2,0
50,118,2,0
50,117,2,0
49,117,2,0
49,117,2,0
49,116,2,0
49,115,2,0
48,115,2,0
48,115,2,0
48,114,2,0
48,113,2,0
48,113,1,0
48,113,2,0
48,113,2,0
47,112,1,0
47,112,1,0
47,111,1,0
