41,19,4,33
41,19,4,33
41,18,4,33
41,19,4,32
41,19,3,32
41,18,4,32
40,18,4,31
39,19,4,31
41,18,4,31
41,18,4,31
40,18,4,31
39,18,4,31
39,18,4,31
39,18,4,31
39,18,4,31
39,18,4,31
39,17,4,31
39,17,4,30
39,17,3,30
39,17,4,30
39,17,3,30
39,17,4,30
39,17,5,30
38,17,5,30
38,16,5,30
38,16,4,29
37,17,4,29
37,16,4,29
37,16,5,29
37,16,4,29
37,17,4,28
37,16,4,29
36,17,4,28
36,16,4,28
36,17,5,28
35,16,4,28
39,16,5,28
39,16,5,28
39,16,5,28
39,16,5,28
39,15,5,28
39,15,4,27
39,15,5,27
39,15,4,27
38,16,5,27
39,17,4,27
38,16,5,26
38,16,4,26
38,16,4,26
38,19,4,26
38,19,4,26
38,19,5,25
38,19,4,25
37,18,4,25
37,18,4,25
37,19,4,25
37,18,4,27
37,18,4,39
36,18,4,39
36,17,4,39
36,18,4,38
35,17,4,38
35,18,4,38
35,17,4,38
37,17,4,37
36,17,4,37
36,17,4,37
36,17,4,37
36,17,4,36
35,16,4,36
35,17,3,36
35,17,3,36
35,16,4,36
35,16,3,35
35,16,3,35
35,16,3,35
34,16,3,35
34,16,3,35
56,15,3,35
55,15,3,35
55,15,3,34
54,15,3,34
54,15,3,34
54,15,3,34
53,15,3,34
53,15,3,33
53,15,3,33
53,15,3,33
52,15,3,33
52,15,3,33
52,15,3,33
51,14,3,32
51,14,3,32
51,14,3,32
51,14,3,32
51,14,3,32
51,14,3,31
50,14,3,31
50,14,3,31
49,14,3,31
49,14,3,31
49,14,3,31
49,14,3,31
49,14,3,31
48,13,3,31
49,13,3,31
51,13,3,31
51,13,3,30
51,13,3,30
50,13,3,30
50,13,3,30
50,13,3,30
50,13,3,30
49,13,3,30
49,13,3,29
49,12,3,29
49,12,3,29
49,13,3,29
48,12,3,29
48,12,3,29
48,12,3,28
48,12,3,28
48,12,3,28
48,12,3,28
47,12,3,28
47,12,3,28
46,12,3,28
46,12,3,28
46,12,3,28
46,11,3,28
46,12,3,27
46,11,3,28
48,12,3,28
50,11,3,27
49,12,3,27
49,11,3,27
49,11,3,27
48,11,3,27
48,11,3,27
48,11,3,39
48,11,3,57
47,12,3,56
48,13,3,56
47,13,3,56
47,13,3,55
47,13,3,56
46,18,4,55
46,17,3,54
46,17,3,54
46,17,3,54
46,17,3,54
45,17,3,53
45,17,3,53
45,16,3,53
45,16,4,53
45,16,3,52
45,16,3,52
44,16,3,51
44,16,3,51
44,16,3,51
44,16,3,51
47,15,4,51
47,16,4,51
47,15,4,50
46,15,4,50
46,15,4,50
46,15,4,49
45,15,4,50
45,15,3,49
45,15,4,49
45,15,3,48
44,15,3,49
44,15,3,48
44,15,4,48
44,14,5,48
46,14,5,48
46,14,5,48
45,14,5,47
45,14,5,47
45,14,5,47
44,14,5,47
44,14,5,46
44,14,4,46
44,14,4,46
44,14,4,46
43,14,4,46
43,13,4,45
43,13,4,45
43,14,5,45
42,13,5,45
43,13,4,45
43,13,5,44
42,13,4,45
42,13,4,44
41,13,4,44
41,13,4,43
41,13,4,44
41,12,4,43
41,12,4,43
41,13,4,43
41,12,4,43
39,12,4,43
39,12,5,42
42,12,5,42
41,12,5,41
41,12,5,42
41,12,5,41
41,12,5,41
41,12,5,41
40,12,5,41
39,12,5,41
39,11,5,41
39,12,5,39
39,12,5,39
39,11,5,39
39,11,5,39
39,11,5,39
39,11,5,39
39,11,5,39
39,11,5,39
38,11,5,39
39,11,5,39
38,11,5,39
38,11,5,38
38,11,5,38
38,11,4,38
38,11,5,38
37,11,4,38
37,10,4,37
37,11,5,37
37,10,5,37
37,10,5,37
36,10,5,37
36,11,5,37
36,10,5,37
36,10,5,37
35,10,5,36
35,10,5,36
35,10,5,36
35,10,4,35
35,10,4,35
35,10,4,35
35,10,4,35
35,10,5,35
36,10,5,35
35,9,5,35
35,9,4,34
35,9,4,34
35,9,4,34
35,9,4,34
35,10,4,35
35,9,4,37
35,9,4,37
35,22,4,37
34,22,4,36
34,22,4,36
34,21,4,36
34,21,5,35
34,21,4,35
34,21,4,35
34,21,4,35
34,21,5,35
34,20,4,35
34,20,4,35
34,20,4,34
33,20,4,34
33,21,4,34
33,21,4,34
33,21,4,34
32,21,4,34
32,20,3,33
32,20,4,33
33,19,4,33
32,20,4,33
32,20,4,33
32,19,4,32
31,19,4,33
31,19,4,32
31,19,4,32
31,19,4,32
31,19,4,31
31,19,4,31
31,19,4,31
31,19,3,31
31,34,4,31
30,44,4,31
31,44,4,31
31,43,4,31
31,43,4,31
31,43,4,30
30,42,4,31
30,41,4,31
30,41,4,30
30,41,3,30
30,41,3,30
30,41,4,30
30,41,4,29
30,39,3,29
29,39,3,29
29,39,3,29
29,39,4,29
29,39,3,29
29,39,3,29
29,39,3,29
29,39,3,29
28,39,3,29
28,39,3,28
28,38,3,28
28,38,3,28
28,38,3,28
28,38,3,28
28,38,3,28
28,37,3,28
28,38,3,27
29,37,3,27
28,37,3,27
28,37,3,27
28,37,3,27
28,36,3,27
28,36,3,27
27,36,3,26
27,36,3,27
27,35,3,26
27,35,3,26
27,35,3,26
27,35,3,26
27,35,3,26
27,35,4,25
27,35,5,25
27,34,4,26
27,34,4,25
26,34,4,25
26,34,4,25
26,33,4,25
26,33,4,25
26,33,4,25
26,33,4,25
26,33,3,24
25,33,4,24
25,33,3,24
25,32,5,24
27,32,5,24
28,32,6,24
27,32,5,24
28,31,5,24
27,31,5,24
27,31,5,24
27,31,5,24
27,31,5,23
26,31,5,23
26,31,5,23
27,31,5,23
26,31,5,22
26,30,5,23
26,30,5,22
25,30,5,23
25,30,5,22
25,30,5,22
25,30,5,22
25,30,5,22
25,29,4,21
25,29,5,22
25,29,4,28
25,29,5,28
25,29,5,28
24,29,5,28
24,29,4,28
24,28,5,28
24,28,5,28
25,28,4,27
26,28,5,27
25,28,4,27
25,28,4,27
25,28,4,26
25,27,4,26
25,27,4,27
25,28,4,29
24,27,4,29
25,27,4,29
24,27,4,29
24,27,4,28
24,27,4,28
24,27,4,28
25,26,4,28
25,26,4,28
25,26,5,28
25,26,5,27
24,26,4,27
25,26,5,27
24,25,4,28
24,25,4,31
24,44,4,31
24,43,4,31
24,43,4,31
24,42,4,31
24,42,4,31
24,42,4,30
25,42,5,30
25,41,5,30
24,41,5,30
24,41,4,30
24,41,4,30
24,39,4,29
24,41,4,29
24,39,4,30
24,39,4,30
24,39,4,29
23,39,4,30
24,39,4,29
23,39,4,29
24,39,4,29
31,39,4,29
31,39,4,29
31,39,4,28
31,38,4,28
30,38,4,28
30,38,4,28
30,38,4,28
30,38,4,28
30,37,4,28
30,37,4,28
29,37,4,27
29,37,3,27
29,37,4,27
29,36,4,27
30,36,4,27
30,35,4,27
30,35,4,27
29,36,4,26
30,35,3,26
30,35,4,26
30,35,4,26
29,35,4,26
29,35,3,26
29,35,4,25
28,34,3,25
28,34,3,25
28,34,3,25
29,34,3,25
31,34,3,25
30,33,3,25
30,33,3,24
30,33,4,24
30,33,3,24
30,33,4,24
30,33,3,24
29,33,3,25
29,32,3,24
29,31,3,24
29,31,3,24
29,31,3,24
28,31,4,24
28,31,6,24
28,31,6,24
28,31,6,24
28,30,6,23
28,31,6,22
28,31,5,23
27,30,5,22
28,30,6,23
27,30,5,22
27,30,5,23
27,30,5,22
27,29,5,22
27,30,5,22
27,30,5,22
27,30,5,22
27,29,5,22
27,29,5,21
27,29,5,21
27,29,5,21
27,29,5,21
27,29,5,21
26,29,5,21
26,28,5,20
26,29,5,21
26,28,5,20
25,28,5,21
25,28,5,20
25,28,5,20
28,28,5,19
27,28,5,20
27,28,5,20
27,27,5,19
27,27,4,19
27,27,5,19
27,27,5,19
27,27,4,19
27,27,4,19
26,27,4,19
26,26,4,19
26,26,4,19
26,27,4,19
26,26,5,19
26,26,4,19
25,26,4,19
25,26,4,18
25,26,4,18
25,26,5,18
25,25,4,18
25,25,4,18
25,25,4,18
24,25,4,18
24,25,3,18
24,24,3,18
24,25,4,18
24,25,4,17
30,24,3,17
30,24,4,17
29,24,4,17
29,24,4,17
29,24,4,17
29,24,4,17
29,24,3,17
29,24,3,17
29,23,3,17
28,24,4,18
28,23,3,17
28,23,3,17
28,23,3,17
28,24,3,17
28,23,4,17
28,23,4,17
28,22,4,17
28,22,4,17
28,22,4,17
28,22,4,16
28,22,3,17
28,22,4,17
27,22,3,16
27,22,4,16
27,22,4,16
27,21,4,16
27,21,3,16
27,21,4,15
26,21,3,16
27,21,4,15
26,21,3,15
26,21,3,15
26,21,4,15
25,20,3,15
26,20,3,15
25,20,3,15
25,20,3,15
25,20,3,15
25,20,3,15
25,19,3,15
25,19,3,15
25,24,4,15
26,24,4,15
26,24,4,15
26,24,4,14
26,24,4,15
25,24,3,15
25,24,3,14
25,24,4,14
25,24,4,14
25,24,3,14
25,23,3,14
25,24,3,14
25,23,3,14
25,23,3,14
25,23,4,14
43,23,4,14
43,22,4,14
42,22,4,14
43,22,4,13
42,22,5,14
42,22,3,13
41,22,5,13
41,22,4,13
41,22,4,14
41,21,4,13
41,21,4,14
39,21,4,13
39,21,3,14
39,21,4,13
39,21,4,13
39,21,4,13
39,20,4,13
39,20,4,13
39,20,3,13
39,20,4,13
39,20,3,13
39,20,3,13
39,39,3,12
38,41,3,13
39,41,3,12
38,41,4,12
38,41,3,12
38,39,3,12
41,39,3,12
41,39,4,12
39,39,3,12
39,39,3,12
39,39,3,12
39,39,3,12
39,39,3,12
39,39,3,12
39,38,3,12
39,38,3,12
39,38,3,12
39,38,3,11
39,37,4,11
39,38,5,12
41,37,4,11
41,37,5,11
41,37,5,11
40,36,4,11
39,37,4,11
39,36,4,11
39,36,5,11
39,35,4,11
39,35,4,11
39,35,4,11
39,35,4,10
39,35,4,10
39,35,4,10
39,34,5,10
38,35,4,10
38,34,5,10
38,34,4,10
38,34,4,10
38,34,4,10
37,34,4,10
37,33,4,11
37,33,4,10
37,33,4,10
36,33,4,10
36,33,4,10
36,33,4,11
36,33,4,10
35,32,4,10
36,32,4,10
35,31,4,10
35,31,3,9
35,31,4,10
35,31,4,9
35,31,4,9
35,31,3,10
35,31,3,10
35,31,3,10
34,31,3,9
34,31,3,10
34,30,3,9
34,30,4,9
34,30,4,9
34,30,5,9
34,30,4,9
34,30,4,9
33,30,4,9
33,29,5,9
33,29,4,9
33,29,4,9
33,29,5,9
33,29,5,9
32,29,4,9
32,29,4,9
32,28,4,9
32,28,5,9
31,28,7,9
33,28,7,9
33,28,7,9
32,28,6,9
32,28,7,9
32,27,7,9
32,28,7,8
31,28,6,8
31,27,6,7
31,27,6,9
31,27,7,7
31,27,6,7
31,27,6,7
31,26,6,7
31,27,6,7
31,26,6,7
43,26,6,7
43,26,6,7
42,26,6,7
42,26,6,7
42,26,6,7
41,26,6,7
41,25,6,7
41,25,6,7
41,25,5,7
41,25,6,7
39,25,6,7
39,25,5,7
39,25,5,7
39,24,5,7
39,24,5,7
39,24,5,7
39,24,5,7
39,24,6,7
39,24,5,7
39,24,5,7
39,24,5,7
39,24,5,7
39,24,5,9
38,24,5,10
38,24,5,9
38,23,5,9
37,24,5,9
38,23,5,9
37,23,5,9
37,23,5,9
37,23,5,9
37,23,5,9
37,22,5,9
36,22,5,9
36,22,5,9
36,22,5,9
36,22,4,9
36,22,5,14
35,22,5,14
35,21,5,14
35,21,5,14
35,22,4,14
35,21,5,14
35,22,4,14
37,21,5,14
36,21,5,14
37,22,5,14
36,20,5,14
36,20,5,14
36,21,4,13
35,20,5,13
35,20,4,13
35,20,5,13
35,20,5,13
35,20,4,13
35,20,4,13
34,19,5,12
35,19,4,13
35,19,4,13
34,19,4,13
34,19,4,12
34,19,4,12
34,19,4,12
33,19,4,12
33,19,4,12
33,19,4,12
33,19,4,12
33,19,3,12
33,18,4,12
33,19,4,12
32,18,3,12
32,18,3,12
32,18,3,12
32,18,3,11
32,18,3,11
32,19,4,12
31,28,3,11
31,27,3,11
31,27,3,11
31,27,3,11
31,26,3,11
31,27,3,11
31,27,3,11
31,26,3,11
31,26,3,10
31,26,3,11
33,26,3,11
32,26,3,10
33,25,3,10
32,25,3,11
32,25,3,11
31,25,3,11
31,25,3,21
31,25,3,21
31,25,3,21
31,25,3,21
31,24,3,21
31,24,3,20
31,24,3,20
35,24,3,20
35,24,4,20
34,24,3,20
34,24,3,20
34,24,3,19
34,24,3,19
33,24,3,19
34,24,3,19
34,23,3,19
34,23,3,19
33,23,3,19
33,23,3,19
33,22,3,19
32,23,3,19
33,23,3,19
33,23,3,19
33,22,3,19
33,22,3,18
33,22,3,18
32,22,3,18
32,22,3,18
31,22,3,18
31,24,3,18
31,24,3,18
31,24,3,18
31,24,3,17
31,24,3,17
31,24,3,17
31,24,3,17
31,24,3,17
31,24,2,17
31,24,3,17
31,23,3,17
31,23,3,17
31,24,3,16
31,23,3,17
30,23,3,16
30,23,2,16
30,23,3,16
30,22,3,16
30,22,2,16
30,22,3,15
31,22,3,16
31,22,3,16
31,22,3,16
31,22,3,16
31,22,3,15
31,21,3,15
31,21,3,16
31,21,3,27
30,21,3,27
30,21,2,26
30,21,3,26
30,20,3,26
30,20,3,25
31,20,3,25
33,20,3,25
33,20,3,25
32,19,3,25
33,20,3,25
31,19,2,25
32,19,2,25
31,19,3,25
31,19,2,24
31,19,2,24
31,19,3,24
31,19,3,24
31,19,2,24
31,19,2,24
31,19,3,24
31,19,3,24
31,18,2,24
31,18,2,23
31,18,3,23
31,18,2,24
30,18,2,22
31,18,2,23
30,18,2,23
30,18,2,23
30,17,2,22
29,17,2,22
30,18,2,22
29,38,3,22
49,38,3,22
51,38,3,22
51,37,3,22
51,37,3,22
50,37,3,22
50,36,3,22
50,36,3,21
49,36,3,21
49,36,3,21
49,35,3,20
48,35,3,21
48,35,3,21
48,35,3,20
48,35,3,20
48,35,3,20
47,35,3,20
47,35,3,20
47,34,3,20
46,34,3,19
47,34,3,19
46,34,3,19
46,34,3,19
46,33,3,19
46,33,3,19
46,33,3,19
45,33,3,19
45,33,3,19
45,33,3,19
44,32,3,19
44,32,3,19
44,32,3,18
44,31,3,18
44,31,3,19
44,31,3,18
43,31,3,18
43,31,3,23
43,31,3,23
43,31,3,23
43,31,3,22
42,31,3,22
42,30,3,22
41,30,4,22
41,30,4,22
41,30,4,22
41,30,4,22
41,30,4,21
41,29,3,22
41,29,4,21
41,29,4,22
39,29,4,22
39,29,3,21
39,28,3,21
39,29,3,21
39,28,3,21
39,28,3,20
39,28,4,21
41,28,4,20
40,28,4,20
39,28,4,20
39,28,4,19
39,27,3,19
39,27,4,19
39,27,4,19
39,27,3,19
39,36,4,19
39,43,3,19
39,43,3,19
38,43,3,19
38,42,3,19
38,42,4,19
38,42,4,19
38,42,4,18
37,41,4,18
38,41,4,18
37,41,4,18
37,41,4,18
37,40,4,18
37,39,4,18
36,39,4,18
36,39,3,18
36,39,4,18
36,39,4,17
35,39,4,17
35,39,4,17
35,39,4,18
35,39,5,18
35,39,4,17
35,38,4,17
35,39,4,17
35,38,3,17
34,38,4,17
35,38,4,17
34,37,4,17
34,37,4,16
34,37,4,17
33,37,4,16
34,43,5,16
33,43,4,16
33,42,4,16
33,42,4,16
33,41,4,15
33,42,4,15
33,59,5,16
33,151,4,15
33,243,4,15
31,254,4,15
32,251,4,15
31,250,4,15
31,248,4,15
31,247,5,15
61,246,5,15
131,244,5,15
131,242,5,15
129,241,5,14
129,243,5,14
127,344,5,14
127,380,5,15
127,377,5,33
126,375,4,32
125,372,4,32
124,369,4,32
124,367,5,32
214,365,5,31
280,363,5,31
277,359,4,31
275,359,5,31
273,357,4,31
271,355,5,31
270,352,4,30
268,351,4,30
267,349,4,30
265,347,4,30
263,344,4,30
263,343,4,30
261,341,4,29
263,339,4,29
262,337,4,29
260,335,4,29
259,334,5,29
257,332,4,29
255,330,4,28
255,327,4,28
253,327,4,28
252,326,4,28
251,323,4,28
249,322,4,28
248,384,4,27
247,494,5,28
246,663,5,27
245,697,5,28
243,691,5,27
242,685,5,27
241,679,5,27
240,671,5,27
239,667,5,27
238,662,5,27
236,656,4,26
235,650,5,26
234,646,5,25
233,641,5,26
231,691,7,26
231,684,7,25
230,679,7,25
229,691,7,25
227,685,7,25
226,678,6,25
225,671,6,25
224,668,6,25
224,662,6,24
222,655,6,24
221,651,6,24
221,647,6,24
219,717,6,24
218,888,7,24
217,905,6,24
216,911,7,24
216,914,6,23
214,917,6,23
213,918,6,23
212,918,6,23
211,914,6,23
210,892,6,23
209,882,6,22
209,874,6,22
207,866,7,22
207,856,9,22
206,847,9,22
205,839,9,22
204,831,9,22
203,824,9,22
202,816,9,22
201,809,9,27
216,803,9,26
215,793,9,26
214,787,9,26
212,781,9,26
212,775,9,25
210,766,10,25
209,760,10,25
207,754,10,25
207,747,9,25
206,741,9,25
205,735,9,25
204,728,9,25
203,722,9,25
202,717,9,25
201,711,9,24
199,705,9,24
199,700,9,24
199,695,9,24
197,690,9,24
196,752,9,24
195,745,9,24
195,739,9,24
193,733,9,24
193,725,9,24
192,719,9,29
191,713,9,28
190,707,9,28
189,700,8,28
188,696,8,28
188,690,9,28
187,685,10,28
185,679,9,27
185,673,9,27
185,669,9,27
184,665,9,27
183,659,9,27
182,654,9,27
181,649,9,27
180,645,9,26
179,639,9,26
179,636,9,26
178,632,9,25
177,627,12,26
176,622,11,25
176,618,12,25
175,612,11,25
174,609,11,25
173,605,11,25
172,600,11,25
172,657,11,25
171,746,11,24
170,739,11,25
169,731,10,24
167,725,12,24
167,719,14,24
167,711,14,24
167,706,14,24
165,699,14,24
165,694,13,23
164,688,13,23
163,681,13,28
163,676,13,28
161,670,13,27
161,665,13,27
161,659,13,27
159,654,14,27
159,649,14,27
158,643,14,27
157,638,14,26
157,664,14,26
156,760,14,26
156,862,14,26
155,905,14,26
154,910,14,25
153,915,13,25
153,916,14,25
152,915,13,25
152,909,14,25
151,891,14,25
150,879,14,25
149,871,14,24
149,860,14,24
148,852,14,24
147,901,14,24
147,910,14,24
146,911,14,24
145,899,14,24
145,887,13,24
143,875,13,24
144,867,14,24
144,859,13,23
143,847,14,23
142,841,13,23
142,830,13,23
141,824,13,22
141,817,13,22
140,807,13,22
140,801,13,22
139,792,13,22
138,785,12,22
137,777,13,22
137,771,12,21
135,764,13,21
135,756,13,21
135,750,13,21
134,743,12,21
134,737,12,21
133,732,12,21
133,724,12,21
132,719,12,20
131,711,12,20
131,707,12,20
130,700,12,20
130,695,12,20
129,690,12,19
128,684,12,19
134,679,12,19
139,671,12,19
140,668,12,19
147,664,12,19
231,657,11,19
327,653,12,19
417,647,11,19
412,643,11,19
409,637,11,19
406,632,11,19
403,628,11,19
400,623,11,19
398,619,11,19
396,614,11,18
393,610,11,18
391,606,10,18
434,601,11,18
431,598,11,18
428,591,10,18
425,589,11,18
520,583,11,17
515,580,11,18
511,575,11,17
507,572,11,17
503,569,11,17
499,564,11,17
496,561,11,17
493,558,10,17
489,553,10,17
486,550,10,17
483,546,10,16
542,543,11,16
566,539,10,16
561,536,10,16
556,532,10,16
551,529,10,16
548,526,10,15
543,521,9,16
540,519,10,15
537,515,9,15
533,512,9,15
529,509,9,15
526,506,9,15
522,504,9,15
519,499,9,15
515,497,9,15
512,495,9,15
509,492,9,15
506,489,9,15
503,486,9,14
499,483,9,15
496,481,9,21
494,478,9,21
490,475,7,21
487,473,9,20
484,471,9,21
481,467,9,20
479,465,8,20
476,463,7,20
473,460,7,20
470,457,7,19
467,455,7,19
465,453,7,19
462,450,7,19
460,448,7,19
457,445,7,19
455,443,7,19
451,441,7,19
449,439,35,19
447,435,41,19
444,433,41,19
441,431,41,19
440,429,39,18
436,426,39,18
434,423,39,18
432,422,39,18
429,419,39,18
427,417,41,18
423,415,53,17
422,413,56,17
419,411,86,17
417,408,84,17
415,407,84,17
413,403,83,17
410,402,83,17
408,399,82,17
406,398,82,17
403,396,81,17
401,393,81,17
399,391,80,18
397,389,80,17
395,387,79,17
393,386,79,17
390,384,79,17
388,382,78,17
387,380,78,17
384,377,77,16
382,376,77,16
380,374,77,16
378,372,76,16
376,370,76,16
375,368,76,15
372,366,75,19
370,364,75,19
368,363,75,19
366,368,74,19
365,437,73,19
363,433,73,19
361,431,73,19
359,428,71,19
405,425,71,26
494,423,71,27
548,419,71,27
543,417,71,26
539,413,70,26
536,411,70,26
531,409,70,26
527,406,70,26
524,404,69,26
519,401,69,25
517,399,68,25
513,396,68,25
510,394,67,25
506,391,67,25
503,389,67,25
499,387,67,25
496,384,66,25
493,382,66,25
489,380,66,24
487,377,65,24
483,376,65,24
480,374,64,24
477,371,64,24
474,369,63,24
472,367,63,24
468,365,63,24
465,363,63,24
463,361,62,23
460,359,62,23
457,358,62,23
455,355,62,23
451,354,61,23
449,352,61,22
446,350,61,22
444,349,61,22
441,347,60,22
438,345,60,22
435,344,60,22
433,342,60,21
431,340,59,21
428,339,58,21
425,337,58,21
423,335,58,21
421,334,57,20
419,332,57,20
415,331,57,21
414,329,57,56
412,327,57,59
409,326,56,59
407,324,56,58
405,323,56,57
402,321,56,57
400,319,56,57
398,318,55,56
396,316,54,56
393,315,54,56
391,314,54,56
389,312,54,56
387,311,54,55
385,309,53,55
384,308,53,54
381,307,53,54
379,305,52,54
377,304,52,54
375,302,51,53
373,301,51,53
371,299,51,53
369,298,51,53
367,297,50,52
365,295,51,51
364,294,50,51
361,292,50,51
359,291,50,51
358,290,49,51
355,289,49,50
354,287,49,50
352,286,49,50
350,285,48,50
349,284,48,49
347,283,48,49
345,281,48,49
344,280,48,49
342,279,47,48
340,277,47,48
339,276,47,48
337,275,47,48
335,273,46,47
333,273,46,47
332,271,46,47
330,270,45,46
327,268,45,46
327,268,45,46
326,266,45,46
323,265,45,45
323,263,44,45
321,263,44,45
319,262,44,45
318,261,44,45
316,259,44,44
315,259,43,44
313,257,43,44
312,255,43,44
310,255,43,43
309,254,42,43
307,253,42,43
305,252,42,43
305,251,41,42
303,249,41,42
302,248,41,42
300,248,41,42
298,247,41,41
297,245,41,41
295,244,40,41
294,243,39,41
293,242,39,40
291,241,39,40
290,240,39,39
289,239,39,39
287,238,39,39
286,237,39,39
285,236,39,39
284,235,38,39
282,233,39,39
281,233,38,39
280,231,38,39
279,231,38,39
277,230,38,38
275,229,38,38
275,228,37,38
273,227,37,38
272,226,37,37
271,225,37,37
270,224,36,37
268,223,37,37
267,222,36,36
266,221,36,36
263,220,36,36
263,220,35,36
262,219,35,35
261,218,35,35
260,217,35,35
259,216,35,39
257,215,35,39
256,215,35,39
255,213,34,39
254,213,34,39
253,211,34,39
252,211,33,39
251,210,33,38
250,209,33,38
249,207,33,38
248,207,33,38
247,206,33,38
245,206,32,37
244,205,32,37
243,204,32,37
242,203,31,37
241,202,31,36
240,201,31,36
239,199,31,36
238,199,31,35
236,199,31,35
236,198,31,35
235,197,31,35
234,197,31,35
231,195,30,35
231,195,30,35
231,194,30,35
230,193,30,35
229,192,30,34
227,192,30,34
226,191,30,34
226,190,29,33
225,189,29,33
224,188,29,33
223,188,29,33
222,187,29,33
221,186,29,32
220,185,28,32
219,185,28,32
218,184,28,32
217,184,28,31
216,183,28,31
216,182,28,31
214,181,28,31
213,180,27,31
212,179,27,31
211,179,27,31
211,178,27,31
210,177,27,30
209,176,27,31
207,176,27,30
207,176,26,30
206,174,26,30
205,174,26,30
204,173,26,30
204,172,25,29
203,172,25,29
202,171,25,29
201,170,25,29
199,170,25,29
199,169,25,29
199,167,25,29
198,167,25,28
197,167,25,28
196,167,24,28
195,166,24,28
194,165,24,28
194,164,24,27
193,163,24,28
192,163,24,27
191,163,24,27
190,162,24,27
190,161,24,27
189,160,24,27
188,159,23,26
187,159,23,27
186,159,23,26
185,158,23,25
185,158,22,26
184,157,22,25
184,156,23,25
183,156,22,25
182,155,22,25
181,154,22,25
180,153,22,25
179,153,21,25
179,152,22,24
178,152,22,25
177,151,21,25
177,151,21,24
176,150,21,24
175,149,20,24
175,149,21,24
174,148,20,25
173,147,20,25
172,147,20,32
172,147,20,32
171,146,19,31
170,145,20,31
169,145,19,31
169,143,19,31
167,143,19,31
167,143,19,31
167,143,19,31
166,142,19,31
165,141,19,30
164,141,19,30
164,140,19,30
163,140,19,29
162,139,19,29
162,138,18,29
161,138,18,29
160,137,18,29
159,137,18,29
159,137,18,29
159,135,18,29
158,135,18,29
157,135,18,28
157,134,17,28
156,134,17,28
155,133,17,28
155,133,17,28
155,132,17,27
153,131,17,28
153,131,17,27
153,131,17,27
152,130,16,27
152,129,17,27
151,129,17,27
150,129,17,26
149,128,16,26
148,127,16,26
147,127,16,26
147,126,16,26
147,126,15,25
146,125,16,25
145,125,16,25
145,125,15,25
144,124,15,25
143,123,16,25
143,123,15,24
143,123,15,24
142,122,15,24
141,121,15,24
141,121,15,24
141,121,15,24
140,120,15,24
139,120,14,24
139,120,14,24
138,119,14,24
137,118,14,23
137,118,14,23
135,117,14,23
135,117,14,23
135,116,14,23
135,116,14,23
134,115,14,22
134,115,14,22
133,114,14,22
133,114,13,22
132,114,14,22
131,113,13,21
131,113,13,22
130,112,13,21
130,112,13,21
129,111,13,21
129,111,13,21
128,111,13,21
127,110,13,21
127,110,13,21
127,109,13,20
126,109,13,20
126,109,12,20
125,108,12,20
125,108,12,20
125,107,12,19
124,107,12,19
124,106,12,19
123,106,12,19
122,106,12,19
122,105,12,19
121,105,12,19
121,103,12,19
121,103,12,19
121,103,12,19
120,103,11,19
120,103,11,18
120,102,11,18
119,102,11,18
118,102,11,18
118,101,11,18
117,101,11,18
117,100,11,18
116,100,11,18
163,99,11,18
162,99,10,17
161,99,11,18
160,99,11,17
159,98,10,17
158,98,11,17
158,97,10,17
157,97,10,17
156,96,10,17
155,96,10,17
155,96,10,17
153,96,10,17
153,95,10,17
152,95,9,16
152,94,10,16
151,94,10,16
150,94,9,16
150,93,9,16
149,93,9,15
148,93,9,16
147,92,9,17
147,92,9,17
146,92,9,17
145,91,9,17
145,91,9,16
143,91,9,17
143,91,9,16
143,91,9,16
142,90,9,16
141,90,9,16
141,89,9,16
140,89,9,16
140,89,9,16
139,88,9,15
138,88,7,15
137,88,7,15
137,88,7,15
135,87,8,15
135,87,7,15
135,87,7,15
135,86,7,15
134,86,7,15
134,86,7,15
133,85,7,15
132,85,7,14
131,85,7,15
131,84,7,14
131,83,7,14
130,83,7,14
129,83,7,14
129,83,7,14
128,83,7,14
158,83,7,14
158,82,7,14
157,82,7,14
156,82,7,14
156,81,7,14
155,81,7,14
154,81,7,14
153,80,7,13
153,79,7,13
152,80,7,13
152,79,7,13
151,79,7,13
150,79,7,14
149,79,7,13
148,78,9,13
147,78,7,13
147,78,7,13
147,78,7,13
146,77,7,13
145,77,7,13
144,77,7,13
143,77,7,13
143,76,7,13
142,76,7,13
142,76,7,12
141,76,7,12
140,75,7,12
140,75,7,12
139,75,7,12
139,75,7,12
138,74,7,12
137,74,7,12
137,73,7,12
135,73,7,11
135,73,7,12
135,73,7,12
134,71,7,11
134,73,7,11
133,71,7,11
133,71,7,11
132,71,7,11
131,71,7,11
131,71,7,11
130,71,7,11
129,70,7,11
129,70,7,11
128,70,7,11
127,70,6,10
127,70,7,10
127,69,6,11
126,69,6,10
126,69,6,10
125,69,7,11
125,69,7,11
124,68,7,10
124,67,7,10
124,67,7,10
123,67,7,10
122,67,7,9
122,67,7,9
121,67,7,10
121,66,7,9
121,66,7,10
120,66,7,9
119,66,6,9
135,66,6,9
162,65,7,9
160,65,7,9
159,65,7,9
159,64,6,9
158,64,7,9
157,63,6,9
156,63,6,9
156,63,6,9
155,63,6,9
155,63,6,9
153,63,6,9
153,63,6,9
152,63,6,9
152,62,7,9
152,62,7,9
150,62,7,9
150,62,7,9
149,61,7,9
148,61,7,9
147,61,7,9
147,61,7,9
147,61,7,9
145,61,7,9
145,60,7,9
144,60,7,8
143,60,7,9
143,60,6,8
143,60,7,9
142,60,7,8
141,59,6,7
141,59,6,9
140,59,7,8
140,59,6,7
139,58,6,7
139,58,6,7
138,58,6,7
137,58,6,7
136,57,6,9
135,57,6,7
135,57,7,7
135,57,6,7
135,57,6,7
134,56,6,7
133,56,6,7
133,56,6,7
132,56,6,7
131,56,6,7
131,56,6,7
131,56,6,7
130,55,6,7
129,55,6,7
129,55,6,7
128,55,6,7
127,54,6,7
127,54,6,7
126,54,5,7
126,54,5,7
126,54,5,7
125,53,6,7
125,53,5,7
124,53,5,7
124,53,5,7
123,53,5,7
123,53,5,7
121,52,5,7
121,52,5,7
121,51,5,7
120,51,5,6
120,51,5,7
120,51,5,7
119,51,5,7
118,51,5,6
118,51,5,7
118,51,5,6
117,50,5,6
117,50,5,6
116,50,5,6
115,50,5,6
115,49,5,7
115,49,4,6
114,49,5,6
114,49,5,6
114,49,4,6
113,49,4,6
113,49,5,6
112,48,4,6
112,49,5,6
112,48,4,6
111,48,4,6
111,48,4,6
110,48,4,6
110,48,3,6
110,47,3,5
109,47,4,6
109,47,4,5
109,47,4,5
108,47,4,5
108,47,3,6
107,46,3,5
107,46,4,5
107,46,4,5
106,46,3,5
106,46,3,5
105,45,3,5
105,46,3,5
104,45,3,5
103,45,3,5
103,45,3,6
103,45,3,5
103,44,3,5
103,44,3,5
103,44,3,5
102,44,3,5
102,44,3,5
101,44,3,5
101,44,3,5
101,44,3,5
101,43,3,5
100,43,3,5
100,43,3,6
99,43,3,4
99,43,3,4
99,43,3,4
99,43,3,4
98,42,3,5
98,42,3,4
98,42,3,4
97,42,3,4
97,42,3,4
96,41,3,4
96,41,3,4
96,41,3,4
96,41,3,4
95,41,2,4
95,41,3,4
95,41,3,4
94,41,3,4
94,39,3,4
94,39,3,4
94,40,2,4
93,39,3,4
93,39,3,4
93,39,3,3
92,39,3,4
92,39,2,3
92,39,3,4
91,39,3,4
91,39,2,3
91,39,3,3
91,39,2,3
90,39,2,4
90,39,2,3
89,39,3,3
89,38,3,3
89,38,2,3
89,38,2,4
89,38,2,5
88,38,2,3
88,38,2,3
88,37,2,3
87,37,2,3
88,37,2,3
87,37,2,3
86,37,2,3
86,37,2,3
86,37,2,3
86,36,2,3
85,37,2,3
85,36,2,3
84,36,2,3
85,35,2,3
84,36,2,3
83,35,2,3
83,35,2,3
83,35,2,3
83,35,2,3
83,35,2,3
82,35,2,3
82,35,2,3
82,35,2,3
82,35,1,3
81,35,2,4
81,35,2,3
80,35,1,3
81,34,2,3
80,34,2,3
79,34,2,3
79,34,2,3
79,34,2,3
79,34,2,2
79,33,2,2
79,34,2,3
78,33,2,3
78,33,1,3
78,33,2,3
78,33,1,2
77,33,1,3
77,33,2,3
77,33,1,3
77,33,1,2
77,33,1,3
76,32,1,3
76,31,1,2
76,31,2,3
75,31,1,2
75,31,2,2
75,31,1,3
75,31,1,3
74,31,1,2
74,31,2,2
74,31,1,2
73,31,1,2
73,31,1,3
73,31,1,2
73,31,2,2
73,31,1,2
71,30,1,2
71,30,1,2
71,30,1,2
71,31,1,2
71,30,1,3
71,30,1,6
71,30,1,6
71,30,1,6
70,30,1,6
70,30,1,6
70,29,1,5
70,29,1,5
70,29,2,5
70,29,2,5
69,29,1,5
69,29,1,5
69,28,1,5
68,29,1,5
69,29,1,5
68,28,1,5
68,29,1,5
67,28,1,5
67,28,1,5
67,28,1,5
67,28,1,5
67,28,1,5
67,28,1,5
66,28,1,5
66,28,2,5
66,28,1,5
