41,154,2,3
45,163,1,3
45,162,2,3
45,161,2,3
45,159,2,3
44,159,2,3
44,159,2,3
44,158,2,3
44,157,2,3
44,157,2,4
43,156,2,3
43,155,2,3
42,154,2,3
43,153,2,3
42,155,2,3
44,156,2,3
44,155,1,3
44,155,1,3
43,153,1,3
43,153,2,3
43,152,2,3
43,152,1,3
43,151,1,4
43,151,2,3
42,150,2,3
42,149,1,3
42,148,2,5
41,147,2,3
41,158,1,3
46,159,1,3
46,158,1,3
45,157,1,3
45,156,1,3
45,156,1,3
44,155,1,3
45,154,2,3
44,153,2,3
44,152,2,3
44,152,2,4
44,151,2,3
43,151,2,3
43,150,2,3
44,163,1,3
45,164,2,3
45,163,2,3
45,163,1,3
45,161,1,3
44,161,2,3
44,159,2,3
44,159,2,3
44,158,2,3
44,158,2,3
43,157,2,3
44,156,2,3
43,155,2,3
43,155,1,3
46,161,1,3
46,161,2,3
46,159,1,3
46,159,1,3
46,158,2,3
45,158,2,3
46,157,1,5
45,156,1,6
45,155,2,5
44,155,1,6
44,154,1,6
44,153,1,5
44,152,1,5
44,152,2,5
44,161,1,5
44,159,1,5
44,159,1,5
43,159,1,6
43,158,1,5
43,157,1,5
43,156,1,6
42,155,2,6
42,154,1,5
42,154,2,6
41,153,1,5
41,152,2,6
41,152,2,5
41,151,2,5
47,158,1,5
46,158,1,5
46,157,1,6
46,156,1,5
45,155,1,5
45,155,1,5
45,153,1,6
45,153,1,6
45,152,1,6
44,152,1,6
44,151,1,6
44,150,2,6
44,149,2,6
44,152,1,6
45,161,1,6
45,160,1,5
44,159,1,6
44,159,1,6
44,158,1,6
44,157,1,6
44,157,1,6
43,156,1,6
43,155,1,6
43,155,1,6
43,153,1,6
42,153,1,6
42,152,1,5
42,157,1,5
43,164,1,5
43,164,1,6
43,163,1,5
43,162,1,5
43,161,1,5
43,161,1,5
43,159,1,6
42,159,1,6
42,159,1,5
41,158,1,5
41,157,2,5
41,156,1,5
41,156,1,5
44,163,1,5
45,166,1,5
45,165,1,5
44,163,1,5
44,163,1,5
44,163,1,5
44,161,1,5
44,161,2,5
43,159,2,6
43,159,1,6
43,158,1,5
43,158,1,5
43,157,2,5
42,156,1,5
43,165,1,5
45,163,1,5
45,163,1,5
44,162,1,5
44,161,1,5
44,161,1,5
44,159,1,5
44,159,2,6
43,159,1,6
43,157,1,6
43,156,1,5
43,156,1,5
42,155,1,5
42,154,1,6
44,158,1,5
45,157,1,5
44,156,1,6
45,156,1,5
44,154,1,5
44,154,1,5
44,153,1,5
44,152,1,5
44,152,1,5
43,151,1,5
43,150,1,5
43,150,1,5
42,149,1,5
42,149,1,5
46,216,1,5
46,214,1,5
46,212,1,5
46,211,1,5
46,210,1,5
45,209,1,5
45,207,1,5
45,207,1,5
44,206,1,5
45,205,1,5
44,204,1,4
44,203,1,5
44,202,1,5
44,201,1,5
48,199,1,5
49,199,1,5
48,198,1,5
48,198,1,4
48,196,1,4
48,195,1,4
48,195,1,5
47,194,1,5
47,193,1,5
46,192,1,6
46,191,1,4
46,190,1,5
46,189,1,5
47,188,1,5
94,188,1,5
96,187,1,5
95,186,1,4
94,185,1,4
93,184,1,5
93,184,1,5
92,183,1,5
92,182,1,5
92,181,1,5
91,180,1,5
91,179,1,5
90,178,1,5
90,178,1,5
89,177,1,5
89,176,1,5
89,175,1,5
88,175,1,5
88,174,1,5
88,173,1,5
88,172,1,5
87,172,1,5
86,171,1,6
86,170,1,5
85,169,1,5
85,167,1,5
84,167,1,5
84,167,1,5
84,205,1,5
84,237,1,5
84,236,1,5
83,234,1,6
83,233,1,5
83,231,1,5
82,231,1,5
82,230,1,6
82,228,1,6
81,227,1,6
81,245,1,5
81,353,1,5
80,467,1,5
80,550,1,5
158,544,1,5
207,540,1,5
205,536,1,5
204,531,1,5
203,528,1,5
201,525,1,5
199,521,2,5
199,518,1,5
198,514,1,5
197,510,1,5
196,506,1,5
195,504,1,5
194,499,1,5
193,497,2,5
192,494,1,5
192,491,1,5
191,487,1,5
190,485,1,5
189,482,1,5
188,479,1,5
187,476,1,5
185,473,1,5
185,470,1,4
184,467,1,6
184,464,1,4
182,462,1,5
182,459,1,5
182,511,1,5
181,526,1,4
180,523,1,5
179,519,1,5
178,515,1,4
177,511,1,5
177,508,1,5
176,505,1,6
175,500,1,5
174,497,1,5
173,494,1,5
173,493,1,4
172,502,1,5
184,498,1,5
183,495,1,4
182,492,1,4
181,488,1,5
179,486,1,4
179,483,1,6
178,480,2,6
177,477,2,5
176,474,1,6
176,470,1,6
175,467,1,5
174,569,2,5
173,714,1,5
172,862,2,6
171,903,1,5
171,910,1,5
171,913,1,5
169,915,1,5
167,913,2,7
167,905,2,7
167,888,2,7
166,879,2,7
165,867,2,7
165,859,2,7
163,851,2,7
163,843,2,7
162,899,2,7
162,908,2,7
161,913,2,7
161,915,2,7
159,916,2,7
159,915,3,9
159,907,4,10
158,887,3,10
157,877,4,9
156,869,3,10
156,861,4,9
155,896,3,9
154,890,3,10
153,877,3,9
153,869,3,9
152,860,3,9
152,851,3,9
151,844,3,10
150,836,3,11
149,829,3,11
149,819,3,11
147,812,3,11
147,805,3,11
147,798,3,10
146,789,3,10
145,782,3,11
145,775,3,10
144,769,3,10
143,760,3,10
143,754,3,10
142,748,3,10
141,742,4,10
141,734,4,10
140,728,4,10
140,723,4,9
140,717,4,9
139,711,3,9
137,707,3,9
137,701,3,9
135,696,3,9
135,723,3,9
135,715,3,9
135,710,3,9
134,704,5,9
134,697,6,9
133,692,6,9
133,687,6,9
132,682,6,9
131,677,5,9
131,671,5,9
131,755,5,9
130,782,5,7
129,775,5,9
129,768,5,7
129,759,5,9
127,751,5,7
127,745,5,8
126,739,5,7
126,733,5,7
125,727,5,7
125,721,5,7
125,715,5,7
124,710,5,7
124,704,5,7
123,698,5,7
123,693,4,7
121,687,5,7
121,682,5,7
121,675,4,7
120,670,5,7
120,665,5,9
120,660,5,8
119,655,4,8
119,651,4,7
118,647,5,7
118,642,4,7
117,638,5,7
116,633,4,7
115,629,4,8
115,624,4,7
115,620,4,7
114,615,4,7
114,611,4,7
113,606,4,9
113,603,4,9
112,599,4,8
112,595,4,7
112,591,4,8
111,587,4,7
111,583,4,7
110,579,4,8
110,575,4,7
109,573,4,7
109,569,3,7
109,564,3,7
108,561,4,12
107,558,3,17
108,554,3,17
107,551,3,17
106,546,4,16
105,543,3,16
105,540,3,15
105,536,3,16
103,532,3,16
103,529,3,15
103,526,3,15
103,523,3,15
101,519,3,16
102,516,3,19
102,513,3,18
101,510,3,18
101,506,3,18
100,503,3,18
99,500,3,18
99,497,3,18
99,495,3,17
103,492,3,18
190,487,3,17
266,486,3,17
263,483,3,17
261,480,3,18
259,478,3,19
258,474,3,18
255,472,3,18
254,469,3,18
253,467,3,18
252,463,3,18
250,461,3,17
249,459,3,17
248,455,3,17
247,453,2,17
245,451,3,17
244,448,3,17
243,446,3,17
241,443,3,17
240,440,3,17
239,439,3,17
238,435,3,17
237,433,3,17
235,431,3,16
235,429,3,17
233,427,3,16
231,423,3,16
231,422,3,16
230,419,3,16
229,417,3,17
227,415,3,17
226,412,3,17
225,411,3,17
224,409,3,17
223,406,3,17
222,404,3,17
221,402,3,17
220,399,3,16
219,398,3,16
217,396,3,16
217,393,3,16
216,391,3,16
215,389,3,16
214,387,3,16
213,385,3,16
211,384,3,16
211,381,3,15
209,379,3,15
304,377,3,15
411,376,3,16
448,374,3,15
447,371,3,15
482,370,3,15
478,368,3,15
475,366,3,15
472,364,3,15
468,363,3,15
465,361,3,15
463,359,2,15
459,357,3,15
455,355,3,15
454,354,3,15
451,352,2,14
448,350,3,14
445,348,2,14
443,347,3,14
440,345,2,14
437,344,3,14
435,342,3,14
432,340,3,14
430,339,3,14
427,337,3,13
425,335,3,14
422,334,3,13
419,332,3,13
417,330,3,13
415,329,3,13
412,327,3,13
411,326,3,13
408,324,5,13
406,323,5,12
403,321,5,13
401,319,5,13
399,318,5,12
397,317,5,12
395,316,5,12
391,314,5,12
391,312,5,12
388,311,5,13
387,310,5,12
384,308,5,12
382,306,5,12
380,305,6,12
378,304,6,12
376,302,6,12
375,301,5,12
372,300,6,12
371,298,6,12
369,297,5,12
366,295,5,11
365,294,5,11
363,293,5,11
361,291,5,11
359,290,7,12
357,289,7,14
355,287,7,14
354,286,7,14
352,284,7,14
350,283,7,14
349,282,7,14
347,281,7,14
345,280,7,13
344,278,7,13
342,277,7,13
340,275,7,13
339,274,7,14
336,273,7,14
335,272,7,14
333,271,7,14
332,270,7,14
331,269,7,14
329,268,7,14
327,266,7,13
391,265,7,13
387,263,7,13
385,263,7,13
384,262,7,13
380,260,7,13
379,259,7,15
376,258,7,15
374,257,7,16
371,255,7,15
369,254,7,15
368,253,7,15
365,252,7,15
364,251,7,15
361,250,7,15
359,249,7,15
358,248,7,14
355,248,7,15
353,246,7,14
352,244,10,14
350,243,10,14
348,242,9,14
345,241,9,14
344,240,9,14
342,239,9,14
340,238,9,14
339,237,9,14
337,236,9,13
335,235,9,14
333,234,9,13
332,233,9,13
329,231,11,13
327,231,12,13
327,230,11,13
325,229,11,13
323,228,11,13
321,227,11,13
319,226,11,13
318,225,11,12
317,224,11,12
315,223,11,12
313,222,10,13
312,221,11,12
310,220,11,12
309,219,11,12
307,218,11,12
306,217,11,12
304,216,11,12
303,216,11,12
301,214,11,12
300,213,11,11
298,212,10,11
297,211,11,11
295,210,10,12
294,210,11,11
293,209,12,11
291,207,12,11
289,207,12,11
287,206,12,11
287,205,12,11
286,204,11,11
284,203,11,11
283,203,11,11
281,201,11,10
280,199,11,10
279,199,11,10
277,199,11,10
340,198,11,11
473,197,12,11
621,196,11,10
684,195,11,10
677,195,11,10
671,194,11,10
665,192,10,10
659,192,11,10
653,191,11,11
647,190,10,12
643,190,10,48
638,189,11,62
632,188,12,61
627,187,11,61
623,186,11,60
619,185,11,60
613,185,11,59
609,184,11,59
604,184,11,59
600,182,11,59
595,181,11,58
591,180,11,57
587,179,11,57
583,179,11,57
579,178,10,57
574,177,10,56
570,177,10,56
566,176,10,56
562,175,10,56
558,175,10,55
555,174,9,55
551,173,9,55
547,172,9,55
543,172,9,54
540,171,9,54
537,170,9,54
534,169,9,53
531,169,9,53
527,167,9,53
524,167,9,52
521,167,9,52
518,166,9,52
515,166,9,52
511,165,9,51
508,164,9,51
505,163,9,51
502,163,8,50
499,162,9,50
496,161,8,50
493,161,8,50
491,159,7,49
487,159,8,49
485,159,7,49
482,158,7,49
479,158,7,49
476,157,7,48
474,156,7,48
472,156,7,48
468,155,7,48
466,155,7,48
463,154,7,47
461,153,7,47
458,153,7,47
455,152,7,47
453,152,7,47
451,151,7,46
448,150,7,46
446,150,7,46
444,149,7,45
441,148,7,45
439,147,7,45
435,147,7,44
433,147,10,44
431,146,10,44
429,145,9,44
427,145,9,44
423,143,9,44
422,143,9,43
419,143,9,43
418,143,9,43
415,142,9,43
413,141,9,42
412,141,9,42
409,140,9,51
408,140,9,71
405,139,9,77
403,139,9,77
401,138,9,76
399,137,9,76
397,137,9,75
395,135,9,75
393,135,7,74
391,135,9,74
389,135,7,73
387,134,9,73
385,134,7,72
383,133,7,71
381,133,9,71
379,131,9,71
377,131,8,71
376,131,7,71
374,130,7,71
371,130,7,70
370,129,7,70
368,129,7,69
366,128,7,69
364,127,7,69
363,127,7,68
361,127,7,68
359,126,7,67
358,126,7,67
356,125,7,67
354,125,7,67
352,124,7,66
351,124,7,66
349,123,7,66
347,123,7,65
346,122,7,65
344,122,7,65
343,121,7,64
341,121,7,64
339,120,7,63
338,120,7,63
335,120,7,63
335,119,7,63
333,119,7,63
332,118,7,62
330,117,7,62
327,117,7,62
327,116,7,61
326,116,6,61
324,115,6,61
322,115,6,60
321,114,6,60
319,114,6,60
318,113,6,60
316,113,6,60
315,113,6,59
313,112,6,59
312,112,6,59
312,111,6,58
310,111,6,57
308,110,6,57
307,110,6,57
305,110,6,57
304,109,6,56
303,109,6,57
301,108,7,56
300,108,7,56
299,108,7,56
297,107,7,56
295,107,7,56
295,107,7,55
293,106,7,55
292,105,7,54
291,105,7,54
289,105,7,54
287,103,7,54
287,103,7,53
286,103,10,53
284,103,10,53
283,103,10,52
282,102,10,52
280,102,10,51
280,101,10,52
278,101,10,51
276,100,9,51
275,99,10,51
274,99,9,50
273,99,9,51
271,99,10,50
271,99,11,50
270,98,11,50
268,98,11,50
267,97,10,49
266,97,10,49
265,96,10,49
263,96,10,48
263,96,10,48
262,95,10,48
261,95,10,48
259,95,9,48
258,94,10,47
257,94,10,47
255,93,9,47
255,93,9,47
254,93,9,47
253,92,9,46
252,92,9,46
251,92,9,46
250,92,9,46
249,91,9,46
248,91,9,45
247,90,9,45
246,90,9,45
245,89,9,45
243,89,9,44
243,89,9,44
242,88,8,44
241,88,7,44
240,88,8,44
239,88,9,43
238,88,7,44
237,87,7,43
236,87,7,43
236,86,7,43
235,86,7,43
233,86,7,42
231,85,7,42
231,85,7,42
231,85,7,41
230,84,7,42
229,84,7,41
228,83,7,41
227,83,7,41
226,83,7,41
225,83,7,39
225,82,7,39
224,82,7,39
223,82,7,39
222,82,7,39
221,81,7,39
220,81,7,39
220,80,7,39
219,80,7,39
217,79,7,39
217,79,7,38
216,79,7,38
216,79,7,38
214,79,7,38
214,78,7,38
213,78,7,38
212,78,7,38
211,78,6,38
210,77,7,38
209,77,7,37
209,77,6,37
207,76,6,37
207,76,7,37
206,76,6,36
206,76,6,36
205,75,6,36
204,75,6,35
203,75,6,35
203,75,6,35
201,74,6,35
201,74,6,35
199,73,6,35
199,73,6,35
199,73,6,35
198,73,6,35
197,71,6,34
196,71,6,34
195,71,5,34
195,71,6,34
194,71,5,34
193,71,5,34
192,71,6,33
192,71,6,33
191,70,5,33
191,70,5,33
190,70,5,33
189,70,5,33
188,70,5,32
188,69,5,32
187,69,5,32
186,69,5,32
185,68,5,32
185,67,5,31
184,67,5,31
184,67,5,31
183,67,5,31
182,67,4,31
181,67,4,31
181,67,5,31
180,66,5,31
179,66,4,31
179,66,5,30
178,65,5,30
177,65,4,30
176,65,4,30
176,64,4,30
175,64,4,30
175,64,4,30
174,63,4,29
174,63,4,29
173,63,4,29
172,63,4,29
172,63,4,29
171,63,5,29
170,62,4,29
169,62,4,29
169,62,5,29
167,62,4,28
167,62,4,28
167,61,4,28
166,61,4,28
166,61,4,28
166,60,4,27
165,60,4,27
163,60,4,28
163,60,6,27
163,60,7,27
162,60,7,27
161,59,6,26
161,59,6,27
161,59,6,26
159,59,7,27
159,58,6,26
158,58,6,26
158,58,6,26
158,58,6,26
157,57,6,25
156,57,6,25
156,57,6,25
155,57,6,25
155,57,6,25
154,56,6,25
153,56,6,25
153,56,6,25
152,56,5,24
152,55,6,24
151,56,6,24
151,56,5,24
150,55,6,24
150,55,5,24
149,55,5,24
148,54,6,24
148,54,5,24
147,54,5,24
147,54,5,24
146,53,5,24
145,53,5,24
145,53,5,23
145,53,5,24
144,52,5,23
143,52,5,23
143,52,5,23
142,51,5,22
142,51,5,22
142,51,4,22
141,51,6,22
140,51,6,22
140,51,6,22
139,51,6,22
139,51,6,22
139,51,5,22
138,50,5,21
137,50,5,21
137,50,5,21
135,50,5,21
135,49,5,21
135,49,5,21
135,49,5,21
135,48,5,21
134,48,5,21
133,49,5,21
133,48,5,20
132,48,5,20
132,48,5,20
131,48,5,20
131,48,5,19
131,47,5,19
130,47,5,19
129,47,5,19
129,47,5,19
128,46,5,19
128,46,4,19
127,46,4,19
127,46,4,19
127,46,5,19
126,45,4,19
125,46,5,19
125,45,4,19
124,45,4,18
124,45,4,19
124,45,4,18
124,45,4,18
123,44,4,19
122,44,4,18
122,44,4,18
121,44,4,18
121,44,4,18
121,44,4,17
120,43,4,17
120,43,4,17
120,43,3,17
119,43,3,17
119,43,3,17
118,42,3,17
118,42,3,17
117,42,4,17
117,42,3,16
116,42,3,17
115,42,3,17
115,41,3,16
115,41,3,16
115,41,3,16
114,41,3,16
114,40,3,16
113,39,3,16
113,40,3,16
112,40,3,15
112,39,3,15
112,39,3,16
111,39,3,15
111,39,3,15
111,39,3,15
110,39,3,15
110,39,3,15
109,39,3,15
109,39,3,15
108,39,3,15
108,39,3,15
108,38,3,15
107,38,3,15
107,38,2,15
106,38,3,15
106,38,3,14
105,38,2,14
105,38,2,14
105,37,3,15
103,37,3,14
103,37,3,14
103,37,3,14
103,37,2,14
103,37,2,14
103,36,3,14
102,36,2,14
102,36,2,13
102,36,2,14
101,35,2,14
101,35,2,14
101,35,3,13
100,35,2,13
99,35,2,14
99,35,2,13
99,35,2,13
99,35,2,13
98,35,2,13
98,35,2,13
97,34,2,13
97,34,2,12
97,34,2,13
97,34,2,13
96,34,2,12
96,34,2,13
96,33,2,12
96,34,2,12
95,33,2,12
94,33,2,12
95,33,2,12
94,33,2,12
94,33,2,12
94,33,2,12
93,33,2,12
93,32,2,12
92,32,2,12
92,32,2,11
92,32,2,12
92,31,2,12
91,31,2,12
91,31,2,11
90,31,2,11
90,31,2,11
90,31,2,11
89,31,2,11
89,31,1,12
89,31,2,11
88,31,1,11
88,31,1,11
88,31,1,11
88,31,1,11
88,31,1,10
87,31,1,10
87,31,2,11
87,31,2,11
86,31,2,10
86,31,1,10
85,30,1,10
85,30,1,10
85,30,1,10
85,30,1,10
84,30,1,10
84,30,1,10
84,30,1,10
83,30,1,9
83,29,1,9
83,29,1,10
82,29,1,10
83,29,1,9
82,29,1,9
82,29,1,9
82,29,1,9
81,29,1,9
81,31,1,9
81,31,1,9
80,31,1,9
80,31,1,9
79,31,1,9
79,31,1,9
79,31,1,9
79,30,1,9
79,30,1,9
79,30,1,9
79,30,1,9
78,30,1,8
78,30,1,9
78,29,1,9
78,41,1,9
77,42,1,9
77,42,1,7
77,41,1,8
77,41,1,8
76,41,1,9
76,41,2,7
76,39,2,7
76,39,2,7
75,39,2,7
75,39,2,7
75,39,2,7
74,39,2,7
74,39,2,7
74,39,2,7
73,39,2,7
73,39,2,7
73,39,2,7
73,39,2,7
72,38,2,8
71,38,2,7
71,38,2,7
71,38,2,7
71,37,2,7
71,38,2,7
71,37,2,7
71,37,2,7
71,37,2,7
71,37,2,7
70,36,2,7
70,36,2,7
70,36,2,7
70,36,2,7
69,35,2,7
69,35,2,7
69,35,2,7
69,35,2,7
69,35,2,7
68,35,2,7
68,35,2,7
68,35,1,7
67,35,2,7
67,34,2,7
67,34,1,7
67,35,1,7
67,36,2,7
67,36,2,7
66,36,1,7
66,35,1,6
66,35,1,7
65,35,1,7
65,35,1,6
65,35,2,6
65,35,2,6
65,34,1,6
64,34,1,6
64,34,1,7
63,34,1,6
63,53,1,6
63,70,1,6
63,70,1,6
63,69,1,6
63,69,1,6
63,68,1,6
62,68,1,6
62,67,1,6
62,67,1,6
62,67,1,6
61,67,1,6
62,66,1,5
61,66,1,6
61,65,1,6
61,65,1,6
62,65,1,5
76,65,1,5
77,64,1,5
77,63,1,5
76,63,1,5
76,63,1,5
76,63,1,5
75,63,1,5
75,62,1,6
75,62,1,5
74,62,1,5
74,62,1,5
73,61,1,5
73,61,1,5
73,61,1,5
73,60,1,5
71,60,1,5
71,60,1,5
71,60,1,5
71,60,1,5
71,59,1,5
71,59,1,5
71,59,1,5
70,58,1,5
70,58,1,5
69,58,1,5
69,57,1,4
69,57,1,5
69,57,1,4
68,57,0,5
68,57,1,4
67,56,1,4
67,56,1,4
67,56,1,5
67,56,1,4
66,56,0,4
66,56,1,4
66,55,1,4
66,55,0,4
65,54,1,4
65,54,0,4
65,54,0,4
64,54,1,4
64,53,0,4
64,54,1,3
63,53,1,4
63,53,1,4
63,53,0,3
63,52,0,4
63,52,1,4
63,52,0,3
63,52,0,3
62,51,0,3
62,51,0,3
62,51,0,3
61,51,0,3
61,50,0,3
61,51,0,3
60,50,0,3
60,50,1,3
60,50,0,3
60,49,1,3
60,49,0,3
60,49,0,3
60,49,0,3
59,49,0,3
59,48,0,3
59,48,0,3
58,48,0,3
59,48,0,3
58,48,0,3
58,48,0,3
58,47,0,3
57,47,0,3
57,47,0,3
57,46,0,3
57,46,0,3
57,46,0,3
57,46,0,3
56,46,0,3
56,45,0,3
56,45,0,3
56,45,0,3
56,45,0,3
56,45,0,3
56,44,0,3
55,44,0,3
55,44,0,3
55,44,0,3
54,44,0,3
55,44,0,3
54,44,0,3
54,43,0,3
54,43,0,3
54,43,0,3
53,43,0,4
53,43,0,3
53,42,0,3
53,42,0,3
53,42,0,3
52,41,0,3
52,41,0,3
52,41,0,2
52,41,0,3
51,41,0,3
51,41,0,3
51,40,0,2
51,39,0,3
51,39,0,3
51,39,0,3
51,39,0,3
51,39,0,3
50,39,0,2
50,39,1,3
50,39,0,2
49,39,0,2
49,39,1,2
50,39,0,2
120,39,0,2
140,38,0,2
138,38,0,2
137,38,0,2
135,38,0,2
135,37,0,3
135,38,0,2
135,37,1,2
134,37,1,2
133,37,0,2
133,37,1,2
131,37,0,2
131,37,0,2
131,36,0,2
130,36,0,2
129,36,0,2
129,36,0,2
128,35,0,2
127,35,0,2
127,35,1,2
126,35,0,2
126,35,1,2
125,35,0,2
125,35,0,2
124,34,0,2
124,34,1,2
123,34,0,2
123,34,0,2
122,34,0,2
121,34,0,2
121,33,0,2
120,33,0,2
120,33,0,2
120,33,0,2
119,33,0,2
118,32,0,2
118,32,0,2
117,33,0,3
117,32,0,2
116,32,0,2
116,31,0,2
115,31,0,2
115,31,0,2
114,31,0,2
113,31,0,2
113,31,0,1
113,31,0,2
112,31,0,2
112,30,0,2
111,31,0,2
111,30,0,2
110,31,0,1
110,30,0,2
110,30,0,2
109,30,0,1
137,30,0,2
184,30,0,2
182,30,0,1
181,29,0,2
180,29,0,1
179,29,0,1
178,29,0,1
177,29,0,2
176,29,0,1
176,29,0,1
175,28,0,2
174,29,0,2
173,28,0,1
172,28,0,2
172,101,0,2
173,138,0,1
172,137,0,1
172,135,0,1
170,135,0,1
170,134,0,1
169,133,0,1
167,132,1,2
167,131,0,1
167,131,0,2
166,130,0,1
165,130,0,2
164,129,0,2
163,190,0,1
163,199,0,3
162,198,0,1
161,197,0,2
161,195,0,2
159,194,0,1
159,193,0,2
158,192,0,2
158,192,1,2
157,191,1,2
156,190,1,2
156,189,0,2
155,188,0,3
154,186,1,2
153,185,1,2
152,184,1,2
152,184,0,2
152,183,0,2
151,182,0,2
150,181,1,2
150,180,1,2
148,179,2,2
148,178,1,2
147,178,1,3
147,177,1,2
146,176,2,2
145,175,1,2
145,174,1,2
144,173,1,2
143,172,1,2
143,172,1,2
142,171,1,2
142,170,1,2
141,169,1,1
141,167,1,3
140,167,2,2
139,167,1,2
139,166,1,2
138,165,1,2
137,164,1,2
137,163,1,2
135,163,1,2
135,162,1,1
135,161,1,1
135,161,1,1
134,159,1,3
133,159,1,1
133,159,1,1
132,158,1,2
131,157,1,1
131,157,1,2
130,156,1,2
130,155,1,2
129,155,1,2
129,153,1,1
127,153,1,1
127,152,1,2
127,152,1,2
126,151,1,2
126,150,1,1
125,149,1,2
125,149,1,1
124,148,1,1
124,147,1,1
123,147,1,1
123,146,1,2
122,145,1,1
121,145,1,1
121,143,1,1
120,143,1,1
120,143,1,1
120,142,1,1
119,141,1,1
118,141,1,1
118,140,1,1
118,139,1,1
117,139,1,1
116,139,1,1
115,137,1,1
115,137,1,1
115,135,1,1
114,135,1,1
114,135,1,1
113,135,1,1
113,134,1,1
113,134,1,1
112,133,1,1
112,132,1,1
111,132,1,1
110,131,1,1
110,131,1,1
110,130,1,1
109,130,1,1
109,129,1,1
108,127,1,1
108,127,1,1
108,127,1,1
107,127,1,1
107,126,1,1
106,125,1,1
106,125,1,1
105,125,1,1
105,124,1,1
103,123,1,1
103,123,1,1
103,122,1,1
103,121,1,1
103,121,1,1
102,120,1,1
102,120,1,1
101,120,1,1
101,119,1,1
100,119,1,1
100,118,0,1
99,118,1,1
99,117,1,1
99,116,1,1
98,115,1,1
98,115,0,1
97,115,1,0
97,115,1,1
97,115,0,1
97,114,1,1
96,113,0,2
96,112,1,1
95,112,1,1
95,112,1,1
95,111,0,1
94,111,1,1
94,110,1,1
93,110,0,0
93,109,1,1
92,109,1,1
92,110,0,0
92,109,0,1
92,108,0,1
91,108,1,0
91,108,0,1
91,107,0,1
90,107,0,1
90,107,0,1
90,106,1,1
89,105,0,1
89,105,0,0
88,105,1,1
88,103,1,1
88,137,0,0
88,135,1,1
87,135,0,1
87,135,0,1
86,134,0,1
86,133,1,1
86,133,0,1
85,132,0,1
85,131,0,0
84,131,0,1
84,130,0,0
84,129,0,1
83,129,0,2
83,128,0,1
83,129,0,1
83,128,0,1
83,127,0,1
82,127,0,0
82,126,0,1
81,126,0,0
81,125,0,1
81,125,0,1
80,124,0,1
80,124,0,1
79,123,0,2
79,122,1,1
79,121,0,0
79,121,1,1
78,137,0,1
79,135,0,1
78,135,1,1
78,135,0,1
77,134,0,0
77,133,0,0
77,133,1,1
76,132,0,1
76,131,0,1
76,131,0,1
76,131,0,1
75,130,0,1
75,129,1,1
75,128,0,1
75,127,0,1
74,127,0,1
74,127,1,1
73,126,0,1
73,125,0,1
73,125,0,1
73,124,1,2
71,124,0,2
71,124,1,2
71,123,0,2
71,122,1,2
71,121,0,2
71,121,0,2
71,131,1,2
70,147,0,2
70,146,1,2
70,145,0,2
70,144,0,2
69,143,0,1
69,143,1,2
69,142,1,3
68,142,1,3
68,141,0,3
68,140,1,3
67,140,1,3
67,139,1,3
67,138,1,3
67,140,1,2
67,152,1,3
66,151,1,3
66,150,1,3
66,149,1,3
66,148,1,3
65,147,0,3
65,147,1,3
65,146,1,3
65,145,1,3
64,145,1,3
64,144,1,3
63,143,1,3
63,143,1,3
63,142,1,3
63,141,1,3
63,141,1,3
62,140,1,3
62,140,1,3
62,139,1,3
62,139,1,3
61,137,1,4
61,137,1,4
61,135,1,4
61,135,1,5
61,135,1,6
60,134,1,4
60,134,1,4
60,133,1,4
59,132,1,4
59,132,1,4
59,131,1,4
59,131,1,4
59,130,1,4
59,130,1,4
59,129,2,4
58,129,2,4
58,127,1,3
57,127,1,4
57,127,1,4
57,126,1,4
57,126,1,3
57,125,1,3
56,125,1,4
56,124,1,3
56,124,1,4
56,123,1,3
56,123,1,4
56,121,2,4
55,121,2,5
55,121,2,4
55,120,2,5
54,120,2,4
54,119,1,4
54,119,2,5
54,118,1,4
54,118,1,4
54,117,2,4
53,117,2,4
53,115,1,4
53,115,2,4
52,115,1,5
52,115,2,4
52,114,2,4
52,114,2,4
51,113,2,4
51,113,2,4
51,112,2,4
51,112,2,4
51,112,2,4
51,112,2,3
51,112,2,4
51,111,2,5
51,111,2,3
50,110,2,4
50,110,2,4
50,109,2,4
50,109,2,4
50,108,2,4
50,108,2,4
49,107,2,4
49,107,3,4
49,107,2,4
49,140,2,4
51,177,2,3
51,176,2,3
51,174,2,3
51,173,2,3
51,172,2,3
51,171,2,3
51,171,2,5
50,169,2,5
50,169,2,4
50,167,2,4
49,167,2,4
49,167,3,4
49,166,2,4
49,167,2,4
48,167,2,4
49,167,2,4
48,166,2,4
48,165,2,4
48,164,2,4
48,164,2,4
48,163,3,4
47,163,2,4
47,161,2,4
47,161,2,5
46,159,2,4
46,159,2,4
46,159,2,4
52,158,2,4
58,157,2,4
58,157,2,3
58,156,2,3
57,156,2,3
57,155,2,4
57,154,2,4
56,153,2,4
56,153,2,4
56,152,2,3
56,152,2,4
56,151,2,4
55,150,2,4
55,149,2,3
57,149,2,3
56,147,2,4
56,147,2,3
56,146,2,3
56,146,2,3
56,145,2,3
55,144,2,4
55,143,2,4
55,143,3,3
54,143,2,3
54,142,2,3
54,141,2,3
54,141,2,3
53,140,2,3
53,140,2,3
53,139,2,3
53,138,2,3
52,137,2,4
52,137,2,3
51,135,2,3
51,135,3,3
51,135,2,4
51,135,2,4
51,134,2,3
50,134,2,4
50,133,2,4
50,132,2,3
50,137,2,3
50,150,2,3
49,149,2,4
49,148,3,3
49,148,2,3
49,147,2,4
48,147,2,3
48,146,2,3
48,145,2,3
48,144,2,3
48,143,2,3
48,143,2,3
47,142,2,3
47,142,2,3
47,141,2,3
47,140,2,3
46,140,2,3
46,139,2,3
46,139,2,3
46,137,2,3
45,137,2,3
45,137,2,3
45,135,2,3
45,135,2,3
45,135,2,3
45,134,2,3
45,134,2,3
44,133,2,3
44,133,2,3
44,135,2,3
44,135,2,3
44,134,1,3
44,134,2,3
44,133,2,3
43,132,1,3
43,131,1,3
43,131,1,3
43,131,1,4
43,130,1,3
42,129,1,2
42,129,1,3
42,128,1,3
42,135,1,3
41,137,1,3
41,135,1,3
41,135,1,3
41,134,1,3
41,134,1,2
41,134,1,3
40,133,1,3
40,132,1,3
39,131,1,3
39,131,1,3
39,130,1,3
39,129,1,3
39,129,1,3
39,131,1,3
39,130,1,3
39,130,1,3
39,129,1,3
39,128,1,2
39,127,1,2
39,127,1,3
39,126,1,3
39,126,1,3
38,126,1,3
38,125,1,3
38,124,1,3
38,124,1,3
38,123,1,3
38,132,1,3
38,131,1,3
38,131,1,3
38,130,1,3
38,129,1,2
37,129,1,3
37,127,1,2
37,127,1,3
37,127,1,3
37,126,1,2
37,126,1,3
37,125,1,2
37,124,1,2
36,124,1,2
39,126,1,2
44,125,1,2
44,125,1,2
44,125,1,2
43,124,1,2
43,123,1,2
43,123,1,2
43,122,1,3
42,121,1,2
42,121,1,2
41,120,1,3
41,120,1,2
41,120,1,2
41,119,0,2
79,120,1,2
78,119,1,2
78,119,1,2
77,118,1,2
77,117,1,2
76,117,1,2
76,116,1,2
76,115,1,2
75,115,1,2
75,115,1,2
74,114,1,2
74,114,0,2
73,113,1,2
73,113,1,2
73,121,1,2
71,121,0,2
71,120,1,2
71,120,0,2
71,119,0,2
71,118,0,2
71,118,1,2
71,118,1,3
70,117,1,2
70,116,1,3
70,115,0,3
69,115,1,2
69,115,1,2
69,115,1,2
68,115,1,3
68,115,1,2
67,114,1,2
67,114,1,2
67,113,1,3
67,113,1,2
66,112,1,2
66,112,1,2
66,111,1,2
66,110,1,2
65,110,1,2
65,110,1,2
65,109,1,2
64,117,1,2
64,116,1,2
63,115,0,2
63,115,0,2
63,115,0,2
63,114,1,2
63,113,1,2
62,113,1,2
62,112,1,2
62,112,1,2
62,111,0,2
61,111,1,2
61,110,1,2
61,110,0,2
60,121,1,2
60,121,0,3
60,121,0,2
60,120,1,2
60,120,1,2
59,119,0,2
59,118,0,2
59,118,0,2
59,117,0,2
58,116,1,2
57,116,0,2
57,115,0,2
57,115,0,2
57,115,1,2
57,119,0,2
56,118,1,2
56,118,1,2
56,117,0,2
56,117,0,2
56,116,0,2
56,115,0,2
55,115,0,2
55,115,1,2
55,113,0,2
54,113,0,2
54,113,0,2
54,112,0,2
54,115,0,2
56,115,1,2
55,115,0,2
55,114,1,2
55,113,0,2
55,113,0,2
54,112,1,2
54,112,1,2
54,111,1,2
54,111,1,3
53,110,1,2
53,110,1,2
53,109,1,2
53,109,1,2
53,109,1,2
63,110,1,2
62,109,1,2
62,109,1,2
62,108,1,2
61,108,1,2
61,107,1,2
61,107,1,3
61,106,1,2
60,106,1,2
60,105,1,2
60,105,1,2
59,105,1,2
59,103,1,2
59,106,1,2
59,107,1,2
58,107,1,2
58,107,1,2
58,105,1,2
57,105,1,1
57,105,1,2
57,103,1,2
57,103,1,2
56,103,1,2
56,103,1,2
56,103,1,2
56,102,1,2
55,102,1,2
56,103,1,2
55,103,1,2
54,103,1,2
54,103,1,2
54,103,1,2
54,102,1,1
53,102,1,2
53,101,1,2
53,101,1,2
53,101,1,2
53,100,1,2
52,99,0,2
52,99,1,2
51,99,1,2
51,131,1,3
52,131,1,2
51,130,0,2
51,130,0,2
51,129,0,2
51,129,1,2
51,127,1,3
50,127,1,3
50,126,0,3
50,126,1,2
50,125,1,2
49,125,1,3
