46,97,7,0
46,97,7,1
46,96,7,0
46,96,7,0
45,95,7,0
45,95,7,0
45,94,7,0
45,94,7,0
45,94,7,0
44,93,7,0
44,93,7,0
45,93,7,0
49,93,7,0
49,93,7,0
48,92,7,0
48,92,7,0
48,92,7,0
48,91,7,0
48,90,7,0
48,90,7,0
48,90,7,0
47,89,7,0
47,89,7,0
47,89,6,0
47,88,6,0
46,88,6,0
46,89,6,1
46,89,6,0
46,89,6,0
46,88,6,0
45,88,6,0
45,88,6,0
45,87,6,0
45,87,6,0
45,86,6,0
44,86,6,0
44,86,6,0
44,85,6,0
44,85,6,0
44,84,6,0
43,84,6,0
45,93,6,0
46,93,6,0
45,92,6,0
45,92,6,0
45,92,6,0
45,91,5,0
44,91,5,0
44,90,6,0
44,90,6,0
44,89,5,0
44,89,5,0
44,88,6,0
43,88,5,0
43,88,5,0
43,88,5,0
46,92,5,0
46,91,5,0
45,91,5,0
45,91,5,0
45,89,5,0
45,89,5,0
45,89,5,0
45,88,5,1
44,88,5,0
44,88,5,0
44,88,5,0
44,87,5,0
44,87,5,0
44,86,5,0
45,88,5,0
50,93,5,0
50,92,5,0
50,92,5,0
49,91,5,0
49,91,5,0
49,91,5,0
49,90,5,0
48,89,5,0
48,89,4,0
48,89,5,0
48,88,5,0
48,88,4,0
47,88,5,0
47,88,5,0
48,95,4,0
48,95,5,0
48,94,4,0
48,94,5,1
48,94,4,0
48,93,4,0
47,92,4,0
47,92,4,0
46,92,4,0
46,91,4,0
46,91,4,0
46,90,4,0
46,90,4,0
46,89,4,0
45,89,4,0
50,92,4,0
50,92,4,0
49,91,3,0
49,91,3,0
49,91,4,0
49,90,3,0
48,90,4,0
48,89,4,0
48,89,4,0
48,88,4,0
48,88,4,0
47,88,4,0
47,88,4,0
47,87,4,1
47,87,4,0
47,94,4,0
46,93,4,0
46,93,3,0
46,92,3,0
46,92,3,0
46,91,3,0
46,91,4,0
45,91,4,0
45,90,3,0
45,89,3,0
44,89,4,0
44,89,3,0
44,89,3,0
44,88,3,0
44,91,3,0
44,93,3,0
44,92,3,0
44,92,3,0
44,92,3,0
44,91,3,0
43,91,3,0
43,90,3,0
43,90,3,0
43,89,3,0
42,89,3,0
42,89,3,0
42,88,3,0
42,88,3,0
42,88,3,0
53,89,3,0
53,89,3,0
53,89,3,0
52,89,3,0
52,88,3,0
52,88,3,0
51,88,3,0
51,87,3,0
51,87,3,0
51,87,3,0
51,86,3,0
50,86,3,0
50,85,3,0
50,85,3,0
50,87,3,0
51,97,3,0
50,97,3,0
50,96,3,0
50,96,3,0
49,95,3,0
50,95,3,0
49,94,3,0
49,94,3,0
49,93,3,0
49,93,3,0
48,92,3,0
48,92,3,0
48,92,3,0
48,91,3,0
48,92,3,0
49,94,3,0
48,93,3,1
49,93,3,0
48,92,3,0
48,92,3,0
48,92,3,0
48,91,3,0
47,90,3,0
47,90,3,0
46,90,3,0
47,89,3,0
46,89,3,0
46,89,3,0
46,88,3,0
46,90,3,0
46,89,2,0
46,89,2,0
46,89,2,0
45,88,3,0
45,88,2,0
45,88,3,0
45,88,3,0
45,87,3,0
44,87,3,0
44,86,2,0
44,86,3,0
44,85,2,1
44,85,2,0
44,85,2,0
56,92,3,0
56,91,2,0
56,91,2,0
56,90,2,0
56,90,2,0
56,89,2,0
55,89,3,0
55,89,3,0
54,88,3,0
55,88,3,0
54,88,2,0
54,87,2,0
54,87,2,0
53,86,2,0
53,135,2,0
53,194,2,0
53,192,2,0
52,190,2,0
52,189,2,0
51,188,2,0
51,188,2,0
51,187,2,0
51,185,2,0
51,184,2,0
50,184,2,0
50,183,2,0
50,182,3,0
50,181,2,0
50,180,2,0
54,179,2,0
54,178,2,0
53,178,2,0
53,177,2,0
53,176,2,1
53,175,2,0
53,174,3,0
51,173,3,0
51,173,3,0
51,172,2,0
51,171,2,0
51,170,2,0
51,169,2,0
93,169,2,0
92,167,2,0
92,167,2,0
91,167,2,0
91,166,2,0
91,165,2,0
90,164,3,0
89,163,3,0
89,163,3,0
89,162,3,0
88,161,2,0
88,161,3,0
88,177,2,0
88,281,2,0
87,387,3,0
86,386,3,0
86,383,3,0
85,381,2,0
85,378,2,0
85,376,2,0
84,375,2,0
84,372,2,0
83,370,3,0
83,368,3,0
83,366,2,0
82,364,3,0
82,361,3,0
81,359,3,0
81,472,2,0
81,556,2,0
81,697,3,0
79,755,2,0
79,747,2,0
79,739,2,0
79,733,3,0
79,726,3,0
78,719,3,0
78,714,3,0
77,708,3,1
77,702,3,0
77,699,3,0
77,693,2,0
76,688,2,0
130,683,3,0
159,677,3,0
159,671,3,0
158,665,2,0
157,659,2,0
156,655,3,0
155,650,3,1
155,646,3,0
153,639,3,0
153,636,3,0
152,632,3,0
152,627,3,0
151,623,3,0
150,618,3,0
149,614,3,0
148,610,3,0
147,604,3,0
147,600,3,0
146,595,3,0
145,592,3,0
145,588,3,0
143,584,3,0
143,581,3,0
143,577,3,0
142,573,3,0
161,569,3,0
265,566,3,0
306,562,3,0
303,559,3,0
301,555,2,0
299,551,3,0
297,547,3,0
295,543,4,0
295,540,3,0
292,537,3,0
291,534,3,0
289,530,3,0
288,527,3,0
287,543,3,0
285,668,3,0
284,662,3,0
282,656,3,0
281,651,3,1
280,644,3,2
278,639,4,3
276,635,4,4
275,630,4,5
274,625,5,5
273,620,4,6
271,615,4,6
270,611,4,6
269,608,4,6
267,603,4,7
266,599,4,7
265,595,4,14
263,589,3,20
262,585,4,33
261,581,5,35
259,577,5,35
258,572,5,35
257,568,5,35
255,564,5,35
254,560,4,34
253,556,5,34
252,551,5,33
251,549,5,33
249,545,4,33
248,541,4,33
247,537,4,33
246,534,4,33
244,531,4,33
243,526,4,33
242,523,4,32
241,519,4,32
240,517,4,31
239,513,4,31
238,509,4,31
237,516,3,31
236,677,3,31
235,692,4,31
233,686,4,31
231,681,4,31
231,675,5,31
230,668,5,31
229,664,5,31
228,658,5,30
227,653,5,30
226,647,5,30
225,709,5,30
224,810,5,30
223,823,5,30
222,814,5,29
221,803,5,29
220,796,5,29
218,790,6,28
217,782,6,29
217,773,6,29
216,766,7,28
215,760,6,28
214,753,7,28
213,745,7,28
227,880,6,28
227,905,6,28
225,908,6,28
224,899,6,27
222,887,6,27
222,878,6,27
220,869,7,27
219,858,7,27
217,850,7,26
217,842,7,27
216,834,7,26
215,824,7,26
213,816,7,26
212,809,7,25
211,802,7,25
211,793,7,25
209,786,7,25
208,779,7,25
207,773,9,25
207,764,9,25
206,757,9,24
205,751,9,25
204,745,9,24
203,737,9,24
202,731,9,24
201,725,7,24
201,719,7,24
199,711,7,24
199,707,7,24
198,702,8,24
197,696,9,24
195,689,10,24
195,684,10,23
194,679,10,23
193,671,10,23
192,667,10,22
192,661,9,23
190,656,9,22
190,652,9,23
189,647,9,22
188,641,9,22
187,636,9,22
187,632,14,22
185,626,18,21
184,622,18,21
184,617,18,21
183,612,18,21
182,608,18,21
181,603,18,21
180,600,17,21
179,595,17,21
179,590,17,21
178,586,17,20
177,581,17,20
176,577,19,20
176,572,19,20
175,569,19,20
174,566,19,20
173,560,18,20
172,572,18,19
247,798,18,19
246,896,18,19
244,893,18,19
243,879,18,19
241,870,18,19
240,859,18,19
239,851,19,19
237,839,19,18
236,831,19,19
234,824,19,18
233,814,19,18
231,807,19,18
239,884,19,18
359,875,18,18
429,865,18,18
425,854,18,17
422,846,18,18
419,836,18,17
415,828,26,17
413,817,25,17
411,811,25,17
408,803,25,17
406,793,25,17
403,787,25,16
400,777,25,17
398,771,25,17
396,764,25,16
393,756,24,16
391,749,25,16
388,741,25,16
387,736,28,16
384,728,28,16
382,722,27,16
380,716,28,15
377,709,27,15
375,704,27,15
373,696,27,15
371,691,27,15
369,684,26,15
367,679,26,15
365,674,26,15
363,668,26,15
361,664,26,15
359,656,25,15
357,652,25,15
355,647,25,15
353,641,25,14
351,636,25,14
349,631,25,14
347,626,24,14
345,621,24,14
344,615,24,14
342,612,24,14
339,607,24,14
338,603,24,14
335,597,24,14
335,593,24,14
333,589,24,13
331,584,23,13
329,581,23,13
368,575,23,13
366,572,23,13
363,568,23,13
361,563,22,14
359,560,22,13
357,556,22,13
355,551,22,13
352,547,22,13
350,544,22,12
348,541,22,12
347,536,21,12
344,533,21,12
342,529,21,12
340,526,21,13
338,522,21,12
336,519,21,12
334,516,20,12
333,511,21,12
331,509,21,11
329,505,21,12
327,502,21,12
325,499,20,11
323,495,20,11
322,567,20,12
319,561,20,11
319,557,19,11
317,551,19,11
316,548,19,11
313,543,19,11
312,539,19,11
311,536,19,10
309,531,19,11
307,527,19,10
306,524,19,11
305,641,19,11
303,807,19,11
301,819,18,10
300,811,19,10
299,801,18,10
295,793,18,10
295,787,19,10
294,777,18,9
293,770,18,10
291,764,18,10
289,755,18,9
288,748,18,9
287,742,17,9
286,734,18,9
284,728,17,9
283,722,17,9
282,717,17,9
280,709,17,9
280,703,17,9
329,697,17,9
327,692,17,9
324,685,16,9
322,679,17,9
320,675,16,9
319,670,16,8
317,828,16,9
315,886,16,8
314,876,16,9
312,867,15,8
311,856,15,7
308,847,16,7
316,839,15,7
315,831,15,8
313,821,15,8
311,814,15,7
309,807,15,7
307,799,15,7
306,790,15,7
304,783,15,7
302,776,15,7
301,769,15,7
299,763,14,7
297,754,14,7
295,748,15,7
295,742,15,7
294,736,14,7
291,728,14,7
290,722,14,7
289,717,14,7
287,711,14,7
286,704,14,7
285,698,14,7
284,693,14,7
281,688,14,7
280,681,14,7
280,675,13,7
278,671,14,7
276,666,14,7
275,659,13,6
273,655,13,7
272,650,13,7
271,646,13,6
270,639,13,7
269,635,13,6
268,631,13,7
267,626,13,7
329,621,13,6
444,615,12,6
487,611,12,6
482,608,13,6
479,603,13,6
476,599,12,6
472,595,12,6
469,591,12,6
466,585,12,6
463,582,12,6
460,578,12,6
457,574,12,5
455,569,12,6
451,566,12,6
449,562,12,6
447,559,12,6
543,555,12,6
695,551,12,6
845,547,12,6
901,543,12,6
909,540,11,5
913,536,12,6
914,533,11,5
911,529,11,5
901,525,11,5
886,523,11,5
876,519,11,5
867,516,11,5
860,512,11,5
851,508,11,5
843,506,11,5
835,504,10,5
827,499,10,5
819,496,10,5
812,493,10,5
804,491,10,5
797,487,10,5
791,484,11,5
783,481,9,5
777,479,10,4
771,476,10,5
764,473,9,4
758,471,10,5
752,467,9,4
745,465,9,4
740,463,9,4
735,460,9,4
729,458,9,4
723,455,9,5
718,453,9,4
711,451,9,4
707,448,9,4
702,445,9,4
697,443,9,4
691,441,9,4
688,439,9,4
683,436,9,4
678,434,9,4
673,432,9,5
668,430,9,23
664,428,9,35
659,425,9,45
654,423,9,51
649,420,9,50
645,419,9,54
639,415,8,54
636,413,9,53
632,411,8,53
627,409,9,52
623,407,7,52
619,404,8,52
614,403,7,51
610,401,7,51
606,398,7,51
602,396,7,51
598,394,7,50
594,391,7,50
590,390,7,50
587,387,8,50
583,386,7,62
579,384,7,67
575,382,7,91
572,380,7,121
568,378,7,126
563,376,7,132
560,374,7,133
556,371,7,131
553,369,7,131
549,368,7,130
545,366,7,129
542,364,7,129
539,361,7,127
536,359,7,127
532,359,7,126
528,356,7,126
526,354,7,125
521,352,7,124
519,351,7,124
515,349,7,123
512,347,7,122
509,345,7,122
506,344,7,121
503,342,7,120
499,339,7,120
497,338,6,120
494,337,7,119
491,335,6,118
487,333,7,117
485,331,6,117
482,329,6,116
480,327,6,116
476,326,6,115
473,325,6,115
472,323,6,114
468,321,6,113
466,319,6,113
463,318,6,112
460,317,6,112
458,315,6,111
455,313,6,111
453,312,6,110
451,311,6,110
448,309,6,109
445,307,6,108
443,306,6,108
440,304,6,108
438,303,6,107
435,302,6,107
433,300,6,106
431,299,6,105
429,297,6,105
427,295,6,103
423,294,6,103
422,293,5,103
419,291,5,103
417,290,5,103
415,289,6,102
413,287,7,102
411,286,7,101
408,285,7,100
406,284,7,100
403,281,7,99
402,280,7,99
399,280,7,99
398,278,6,98
396,277,7,98
394,275,7,97
391,274,7,97
390,273,7,96
388,271,7,96
387,270,7,96
385,269,7,96
383,268,7,95
381,267,7,94
379,266,7,94
377,265,7,94
376,263,7,93
374,262,6,93
371,261,7,92
370,259,7,92
368,259,6,92
367,258,7,91
365,257,7,91
363,255,7,90
361,254,7,90
359,253,7,89
358,252,7,89
356,251,7,89
355,250,7,89
353,248,7,88
351,248,7,88
350,246,7,87
348,245,7,87
347,244,7,87
345,243,7,86
344,242,7,85
342,241,7,85
340,240,7,85
339,240,7,84
337,238,7,84
335,237,7,83
334,236,7,83
332,235,7,83
331,234,7,83
329,233,7,82
327,231,7,82
327,231,7,82
325,230,7,81
323,229,6,81
322,228,7,80
321,227,7,80
319,226,7,79
318,225,7,79
316,224,6,79
315,223,7,78
313,222,6,78
312,221,6,78
311,220,6,78
310,220,7,78
308,218,7,77
307,217,7,77
305,217,7,76
304,216,7,76
302,215,7,76
302,214,7,75
300,213,7,75
299,212,7,75
297,211,7,75
295,210,7,74
295,209,7,74
294,209,7,73
292,207,9,73
291,207,9,73
290,206,9,73
288,205,9,71
287,204,9,71
286,204,9,71
285,203,9,71
284,201,9,71
283,201,7,71
281,199,9,70
280,199,7,70
279,199,7,70
278,198,9,70
276,197,9,69
275,195,9,68
274,195,9,68
273,194,9,68
271,193,9,67
271,193,9,67
269,192,9,67
268,191,9,67
267,190,9,67
266,189,9,67
265,189,9,67
263,188,9,66
263,187,9,66
262,187,9,65
260,185,9,65
259,185,9,65
258,184,9,64
257,184,7,64
255,183,9,63
255,182,7,63
254,181,7,63
253,180,7,63
252,179,7,62
251,179,7,63
249,178,7,62
248,177,7,62
248,177,8,62
246,176,7,61
246,176,7,61
245,175,7,61
243,174,7,60
243,173,7,61
241,172,7,60
240,172,7,60
240,171,7,60
239,171,7,59
238,169,8,59
236,169,10,59
236,167,9,59
235,167,9,58
233,167,9,58
233,166,9,57
231,166,9,57
231,165,9,57
230,164,9,57
229,163,9,57
228,163,9,56
227,162,9,56
226,162,9,56
225,161,10,56
224,160,10,56
224,159,10,56
222,159,10,55
221,158,10,55
221,158,10,55
220,201,10,54
219,199,10,54
217,199,9,54
217,198,9,54
216,197,9,53
216,195,9,53
215,195,9,53
214,193,9,53
213,192,9,52
211,192,9,52
211,191,9,51
210,281,9,51
209,393,9,51
209,415,9,51
207,413,9,51
207,409,9,51
206,407,9,50
205,403,11,50
204,401,12,50
204,398,12,49
203,396,11,50
202,393,11,49
201,391,11,49
199,387,11,49
199,385,11,48
199,384,11,48
198,380,11,48
197,378,11,48
195,376,11,48
195,373,11,47
194,371,10,47
193,368,10,47
193,367,11,47
192,364,10,46
192,362,10,47
191,457,10,46
190,588,10,46
189,596,10,46
188,590,10,46
187,585,9,45
186,581,10,45
185,575,10,45
185,571,9,45
184,566,9,45
184,562,9,44
183,558,9,44
183,555,9,44
181,550,9,44
181,546,9,44
179,542,9,44
179,539,9,44
179,534,9,43
178,531,9,43
177,527,8,42
177,524,9,43
176,519,9,42
176,516,9,42
175,513,9,41
174,509,9,42
173,505,9,41
172,502,9,41
172,499,9,41
171,496,9,41
170,492,9,40
170,489,8,40
169,487,7,39
167,483,7,39
167,480,8,39
167,477,7,39
167,474,7,39
166,472,7,39
165,469,7,39
164,465,7,39
163,462,7,39
163,460,7,39
163,457,7,39
162,454,7,38
161,451,7,38
161,449,7,38
161,447,7,38
159,443,7,38
159,441,7,38
159,439,7,37
158,436,7,37
157,433,7,37
156,430,7,37
156,428,7,37
156,426,7,36
155,423,7,36
154,420,7,36
153,419,7,36
153,415,7,35
152,414,7,35
152,411,7,35
152,409,7,35
151,407,7,35
150,403,7,35
150,402,7,35
149,399,7,35
149,398,7,35
147,395,6,35
147,393,6,34
147,391,6,34
146,389,6,34
145,387,7,34
145,384,7,34
144,383,7,33
143,380,7,33
143,378,7,33
143,376,7,33
142,375,7,33
142,372,6,33
141,370,7,33
141,368,7,32
140,367,6,31
140,364,6,31
139,362,6,31
139,359,6,31
138,359,6,31
137,357,6,31
137,355,6,31
135,353,6,31
135,352,6,31
135,350,6,31
135,348,6,31
134,346,6,31
134,344,6,30
133,343,6,30
133,340,6,30
132,339,6,30
131,337,6,30
131,335,7,30
131,334,6,29
130,332,6,29
130,331,6,29
129,329,6,29
129,327,6,29
128,326,6,29
127,324,6,29
127,323,6,29
126,321,6,28
126,319,6,28
126,318,6,28
125,316,5,28
125,315,6,28
124,313,6,28
124,312,5,28
124,310,5,27
123,308,5,27
123,307,6,27
121,305,5,27
121,304,5,27
121,303,5,27
120,301,5,27
120,300,6,26
120,299,5,27
120,297,5,26
119,295,5,26
118,294,5,26
118,292,5,26
118,291,5,26
117,289,5,25
116,287,5,25
116,287,5,25
115,286,5,25
115,284,5,25
115,283,6,25
115,281,5,25
114,280,5,25
113,279,5,25
113,277,5,24
112,276,5,24
112,275,5,24
112,273,5,24
112,271,5,24
111,271,5,24
110,270,5,24
110,268,5,24
109,267,5,24
109,266,6,24
109,265,5,24
108,263,5,24
108,263,5,23
108,261,4,23
107,260,5,23
107,259,5,23
106,257,5,22
106,256,5,22
105,255,5,23
105,254,5,22
105,253,5,22
103,252,5,22
103,251,5,22
103,249,5,22
103,248,5,22
103,248,5,22
102,246,5,21
102,245,5,21
101,243,5,21
101,243,5,21
101,242,5,21
100,241,4,21
100,240,5,21
99,238,5,20
99,238,5,20
99,236,5,20
99,235,5,20
98,235,5,21
98,233,5,20
97,231,5,20
97,231,5,20
97,231,5,20
96,230,5,19
96,228,5,20
96,227,4,19
96,227,5,19
96,225,5,19
95,224,5,19
94,224,4,19
94,223,5,19
93,222,4,19
93,221,5,19
93,220,4,19
93,220,4,19
93,219,4,19
110,217,4,19
109,216,4,18
109,216,4,18
108,215,4,18
108,214,4,18
107,213,4,18
106,211,3,18
106,211,4,18
105,210,4,18
105,209,4,18
103,207,4,17
103,207,4,18
103,206,3,17
103,206,4,17
103,205,4,17
102,204,4,17
101,203,6,17
100,202,6,17
100,201,6,17
99,199,6,16
99,199,6,17
99,199,6,17
99,198,6,16
98,197,6,17
97,196,6,16
97,195,6,16
97,195,6,16
96,194,5,16
96,193,5,16
95,192,6,15
95,192,5,16
95,191,5,15
94,190,6,15
94,189,5,15
93,188,5,16
92,188,5,15
93,187,5,15
92,186,5,15
92,185,5,15
91,185,5,15
91,184,5,15
91,184,5,15
90,182,5,15
90,182,5,14
89,181,5,15
89,180,5,15
89,179,5,15
89,179,5,14
88,178,5,14
88,177,5,14
88,177,5,14
88,176,5,14
87,175,5,14
87,175,5,14
86,174,4,14
86,173,5,14
86,173,5,14
86,172,5,14
85,171,4,14
84,171,4,14
84,170,4,13
84,169,4,13
83,169,5,13
83,167,4,13
83,167,4,13
83,166,4,13
83,166,4,13
82,165,4,14
82,164,4,13
82,163,4,13
81,163,4,13
81,163,4,13
81,162,4,13
81,162,4,13
80,161,4,12
79,159,4,12
79,159,4,12
79,159,3,12
79,158,3,12
79,158,3,12
78,157,3,12
78,156,3,12
78,156,3,12
78,156,3,12
78,155,3,12
77,154,3,12
77,153,3,12
76,153,3,12
76,152,3,12
76,152,3,11
75,152,3,12
76,150,3,12
75,150,3,12
75,150,3,11
74,149,3,11
74,148,3,11
74,148,3,11
74,147,3,11
73,147,3,11
73,146,3,11
73,145,3,11
73,145,3,10
71,145,3,10
71,143,3,10
71,143,3,10
71,143,3,10
71,142,3,10
71,141,3,10
71,141,3,10
71,141,3,10
70,140,3,10
70,140,3,10
70,139,3,10
69,139,3,9
69,138,3,10
69,137,3,10
69,137,3,10
68,135,3,10
68,135,3,9
68,135,3,10
67,135,3,9
67,135,3,9
67,134,3,9
67,133,3,9
67,133,3,9
66,132,3,9
66,132,3,9
66,131,3,9
127,131,3,9
130,131,3,9
129,130,3,9
129,130,3,9
127,129,3,9
127,128,3,9
126,128,3,10
125,127,3,8
125,127,3,8
124,126,3,9
124,126,3,7
123,126,2,9
122,125,2,7
122,125,2,8
121,124,2,8
121,124,3,8
120,123,3,7
120,123,2,9
119,122,2,7
119,122,3,7
118,121,3,7
117,121,2,7
117,120,3,7
116,120,2,7
115,120,2,7
115,120,2,7
114,119,2,7
114,118,2,7
113,118,2,7
113,118,2,7
112,117,2,7
112,116,2,7
112,116,2,7
111,115,2,7
110,115,2,7
110,114,2,7
110,114,2,7
109,114,2,7
109,113,2,7
108,113,2,7
107,112,2,7
107,112,2,7
107,112,2,7
106,111,2,7
106,111,2,7
105,111,2,7
103,110,2,7
103,110,2,7
103,109,2,7
103,108,2,7
103,108,2,7
102,108,2,7
102,108,2,6
102,107,2,6
101,107,2,6
101,107,2,6
100,106,2,6
99,106,2,6
99,105,2,7
98,105,2,6
99,103,2,6
98,103,2,6
97,103,2,6
97,103,1,6
96,103,1,6
96,103,2,6
96,102,1,6
96,102,2,6
95,101,2,5
94,101,2,6
94,101,2,6
94,101,2,6
93,99,2,6
93,100,2,6
93,99,2,6
92,99,1,5
92,99,1,6
92,99,1,5
91,98,1,5
91,98,1,6
91,97,1,5
90,97,1,5
90,97,1,5
89,96,1,5
89,96,1,5
89,96,1,5
88,96,1,5
88,95,2,5
88,95,1,5
88,94,1,5
87,94,1,5
87,94,1,5
86,94,1,5
86,94,1,5
86,93,1,5
85,93,1,5
85,93,1,5
85,92,1,5
84,92,1,6
84,92,1,5
83,91,1,5
83,91,1,5
83,91,1,4
83,90,1,4
82,90,1,4
82,89,1,4
82,89,1,5
81,89,1,4
81,89,1,4
81,89,1,4
81,88,1,5
79,88,1,4
79,88,1,5
79,88,1,4
79,88,1,4
79,87,1,4
79,87,1,4
78,86,2,4
78,86,2,4
78,86,2,4
78,85,1,4
77,85,1,4
77,85,1,4
77,84,1,5
76,84,1,4
76,83,1,3
76,83,1,4
75,83,1,4
75,83,1,4
75,83,1,3
75,83,1,3
74,82,1,3
74,82,2,3
74,81,1,3
73,81,1,4
73,81,1,3
73,81,1,3
72,80,1,3
71,80,1,3
71,79,1,3
71,79,1,3
71,79,1,3
71,79,1,3
71,79,1,3
71,78,1,3
71,78,1,3
70,78,2,3
70,78,1,3
70,77,1,4
69,77,1,3
69,77,1,3
69,77,1,3
69,76,1,3
68,76,1,3
68,76,1,3
68,76,1,3
67,76,1,3
67,76,1,3
67,75,1,3
67,75,1,3
67,74,1,3
67,75,2,3
66,74,1,3
66,73,1,3
66,73,2,3
65,73,1,3
65,73,1,3
65,73,1,3
65,73,1,3
64,71,1,3
64,71,1,3
64,71,1,3
63,71,1,3
63,71,1,3
63,71,1,3
63,71,1,3
63,71,1,2
63,71,1,3
63,70,1,3
62,70,1,3
62,70,1,2
62,70,1,2
62,69,1,3
61,69,1,3
62,68,1,2
61,69,1,3
61,68,1,3
61,68,1,3
61,67,1,2
60,67,1,3
60,67,1,2
60,67,1,3
60,67,1,3
60,67,1,3
59,66,1,2
59,66,1,2
59,66,1,2
59,66,1,2
58,66,1,2
58,65,1,2
59,65,1,2
58,65,1,2
58,65,1,2
57,65,1,2
57,64,1,2
57,64,2,2
57,63,2,2
57,63,2,2
57,63,2,2
57,63,2,2
56,63,2,3
56,62,2,2
56,62,2,2
56,63,2,2
56,62,2,2
56,62,2,2
56,61,2,2
55,61,2,2
55,61,2,2
55,61,2,2
55,61,2,2
55,60,2,2
54,60,2,2
54,60,2,2
54,60,2,2
54,60,1,2
53,60,2,2
53,60,2,2
53,59,2,2
53,59,2,2
53,59,2,2
52,59,1,2
52,58,1,2
52,58,1,2
51,58,2,2
52,58,1,2
51,57,2,1
51,57,2,1
51,57,2,2
51,57,2,1
51,57,1,2
51,57,2,1
51,56,1,2
50,57,1,2
50,56,1,1
50,56,2,1
50,56,2,1
49,56,2,1
49,56,1,1
49,56,1,1
49,55,1,1
49,55,2,1
49,55,1,1
49,54,2,1
48,55,1,1
48,54,1,2
48,54,1,2
48,54,2,1
48,54,1,1
48,53,1,1
47,53,1,2
48,53,2,1
47,53,2,1
47,52,1,1
47,52,1,1
46,52,1,1
46,52,1,2
46,51,1,1
46,51,1,1
46,51,1,1
46,51,1,1
46,51,1,2
45,51,1,1
45,51,1,1
45,51,1,1
45,50,1,1
45,50,1,1
45,50,1,1
45,50,1,1
44,50,1,1
44,49,1,1
44,49,1,1
44,49,1,1
44,49,1,1
44,49,1,1
44,49,1,1
45,48,1,1
46,48,1,1
45,48,1,1
45,48,1,1
45,48,1,1
45,48,1,1
45,48,1,1
45,48,1,1
44,47,1,1
44,47,1,1
44,47,1,1
44,47,1,2
44,47,1,1
44,46,1,1
44,46,1,1
43,46,1,1
43,46,1,1
43,46,1,1
43,46,1,1
43,45,1,1
43,45,1,1
42,45,1,1
42,45,1,1
42,44,1,1
42,44,1,1
41,44,1,1
41,44,1,1
41,44,1,1
41,44,1,1
41,44,1,0
44,44,1,1
44,44,1,1
44,43,1,1
44,43,1,1
44,43,1,0
43,43,1,1
43,43,1,2
43,43,1,1
43,42,1,1
43,42,1,0
43,42,1,1
42,41,1,1
42,42,1,1
42,41,1,1
41,42,1,0
41,45,1,0
41,45,1,0
41,45,1,1
41,45,1,0
41,45,1,0
41,44,1,1
39,44,1,1
39,44,1,1
39,44,1,1
39,44,1,0
39,44,1,1
39,43,1,0
39,43,1,0
39,43,1,1
39,43,1,0
39,43,1,1
39,43,1,1
39,42,1,1
39,42,1,0
39,41,1,0
39,42,1,1
38,41,1,0
38,41,1,1
38,41,1,1
38,41,1,0
38,41,1,0
38,39,1,0
38,39,1,0
38,39,1,0
37,51,1,0
37,51,0,0
37,51,0,0
37,50,1,0
37,50,1,0
37,50,1,0
37,49,1,1
36,49,1,0
36,49,1,0
36,49,1,0
36,49,1,0
35,49,1,1
36,48,1,0
35,48,1,0
35,48,1,0
35,48,1,0
35,48,1,0
35,47,1,1
35,47,1,0
35,47,1,0
35,46,1,0
34,46,1,0
34,46,1,0
34,46,1,0
34,46,1,0
34,45,1,0
34,45,1,0
34,45,1,0
33,45,1,0
34,45,1,0
34,51,1,0
34,51,1,0
33,50,1,0
33,50,1,0
33,50,1,0
33,50,2,0
33,49,3,0
33,49,2,0
33,49,2,0
32,49,2,0
32,48,3,0
32,48,2,0
32,48,2,0
32,48,2,0
32,48,2,0
32,48,2,0
31,48,2,0
31,48,2,0
31,47,2,0
31,47,2,1
31,47,2,0
31,46,2,0
31,46,3,0
31,46,2,0
31,46,2,0
31,46,2,0
31,45,2,0
31,45,2,0
30,45,2,0
31,53,2,0
30,52,2,0
30,51,2,0
30,51,2,0
30,51,2,0
30,51,2,0
30,51,2,0
30,51,2,0
30,50,2,0
30,50,2,0
29,50,2,0
29,49,2,0
29,49,2,0
29,49,2,0
29,49,2,0
29,49,2,1
29,48,2,0
29,48,2,0
29,48,2,0
28,48,2,0
29,48,2,0
28,47,2,0
28,47,2,0
28,47,2,0
28,47,2,0
28,47,2,0
28,46,2,0
28,46,2,0
28,46,2,0
28,57,2,0
28,58,2,0
28,57,2,0
28,57,2,0
28,57,2,0
27,57,2,0
27,56,2,0
27,56,2,0
27,56,2,0
27,56,2,0
27,56,2,0
27,55,2,1
27,55,2,0
27,54,2,0
26,54,2,0
27,54,2,0
27,54,2,0
27,54,2,0
27,53,2,0
26,53,2,0
26,53,1,0
26,53,2,0
26,52,2,0
25,52,2,0
26,51,2,0
26,51,2,0
25,51,2,0
25,51,2,0
25,51,2,0
25,51,2,0
30,51,2,0
30,51,2,0
30,51,2,0
30,50,2,0
30,50,2,0
30,50,2,0
30,50,2,0
30,49,2,0
29,49,2,0
29,49,2,0
29,49,2,0
29,48,2,0
29,48,2,0
29,48,2,0
28,65,2,0
28,63,2,0
29,63,2,0
28,63,2,0
28,63,2,1
28,63,2,0
28,63,2,0
28,62,2,0
27,62,2,0
27,61,2,0
27,61,2,0
27,61,2,0
27,60,2,0
27,60,2,0
27,60,2,0
27,61,2,0
27,61,2,0
27,60,2,0
27,60,2,0
26,60,2,0
26,60,2,0
26,60,2,0
26,59,2,0
26,59,2,0
26,59,2,0
25,59,2,0
25,58,2,0
25,57,2,0
25,58,2,0
25,57,2,1
25,62,2,0
25,62,2,0
25,62,2,0
25,62,2,0
25,61,2,0
25,61,2,0
24,61,2,0
24,61,2,0
24,60,2,0
24,60,2,0
24,60,2,0
24,59,2,0
24,59,2,0
24,59,2,0
24,67,2,0
24,66,2,0
24,66,2,0
24,65,2,0
24,65,2,0
24,65,2,0
24,65,2,0
24,64,2,0
23,64,2,0
23,63,2,0
23,63,2,1
23,63,2,0
23,63,2,0
22,63,2,0
22,62,2,0
24,62,2,0
24,62,2,0
23,62,2,0
23,61,2,0
23,61,2,0
23,60,2,0
23,60,2,0
23,60,3,0
22,60,2,0
22,60,3,0
22,59,2,0
22,59,3,0
22,59,2,0
22,59,2,0
22,58,3,0
22,58,2,0
22,58,2,0
21,58,2,0
21,57,3,0
21,57,3,0
22,57,2,0
21,56,2,0
21,56,2,0
21,56,2,0
21,56,2,0
21,56,2,0
21,56,3,0
21,56,3,0
21,56,2,0
21,58,2,0
29,59,2,0
30,58,2,0
30,58,2,0
30,57,2,0
29,57,2,0
29,57,2,0
29,57,2,0
29,56,2,0
29,56,2,0
29,56,2,0
28,56,2,0
28,56,2,0
28,56,2,0
28,55,2,0
28,76,2,0
28,77,2,0
28,76,2,0
28,76,2,0
28,75,2,0
28,75,2,0
27,74,2,0
27,74,2,0
27,73,2,0
27,73,3,0
27,72,2,0
27,73,3,0
27,71,2,0
26,71,2,0
26,71,2,0
34,76,2,0
34,76,2,0
34,75,3,0
34,75,2,0
33,74,2,0
33,74,2,0
33,73,2,0
33,73,2,0
33,73,2,0
33,73,2,0
33,71,2,0
33,71,2,0
32,71,3,0
31,71,2,0
31,78,2,0
31,78,2,0
31,78,2,0
31,77,2,0
31,76,2,0
31,76,2,0
31,76,2,0
31,76,2,0
31,75,3,0
30,75,3,1
31,74,2,0
30,74,2,0
30,73,3,0
30,73,3,0
30,73,2,0
30,73,3,0
33,71,2,0
33,71,2,0
32,71,2,0
33,71,2,0
33,71,2,0
32,71,3,0
31,71,3,0
31,70,3,0
31,70,2,0
31,70,2,0
31,69,2,0
31,69,2,0
31,69,3,0
31,68,2,0
33,79,2,0
34,79,2,0
34,79,2,0
34,79,2,0
33,78,2,0
33,78,2,0
33,78,2,0
33,77,2,0
33,77,3,0
32,77,2,0
32,76,2,0
32,76,2,0
31,76,3,0
31,76,2,0
31,75,2,0
31,75,2,0
31,75,2,0
31,74,2,0
31,74,2,0
31,74,2,0
31,73,2,0
31,73,2,0
31,73,2,0
31,71,2,0
30,71,2,0
30,71,2,0
30,71,2,0
30,71,2,0
30,71,2,0
30,73,2,0
44,82,2,0
43,82,2,0
43,81,2,0
43,80,2,0
43,80,2,0
42,79,2,0
42,79,2,0
42,79,2,0
42,79,2,0
41,78,2,0
41,78,2,0
41,77,2,0
41,78,2,0
41,77,2,0
41,79,2,0
41,85,2,0
41,84,2,0
39,84,2,0
39,83,2,0
39,83,2,0
39,83,1,0
39,82,2,0
39,82,2,0
39,81,2,0
39,81,2,0
39,80,2,0
38,80,2,0
38,80,2,0
38,79,2,0
38,81,2,0
39,81,2,0
38,80,2,0
38,79,2,0
38,79,2,0
38,79,2,0
37,79,2,0
37,78,2,0
37,78,2,0
37,78,2,0
37,78,2,0
36,77,2,0
36,77,2,0
36,76,2,0
36,76,2,0
38,85,2,0
37,84,2,0
37,83,1,0
37,83,2,0
36,83,2,0
37,82,2,0
36,82,2,0
36,82,2,0
36,81,2,0
35,81,2,0
35,80,2,0
35,80,2,0
35,79,2,0
35,79,2,0
35,79,2,0
35,93,2,0
35,93,2,0
34,92,2,1
34,92,2,0
34,91,2,0
34,91,2,0
34,90,3,0
34,89,3,0
33,89,3,0
33,89,3,0
33,88,3,0
33,88,3,0
33,88,3,0
33,87,3,0
32,87,3,0
33,88,3,0
32,88,3,0
32,88,3,0
32,87,3,0
31,86,3,0
32,86,3,0
31,86,3,0
31,85,3,0
31,85,3,0
31,85,3,0
31,84,3,0
31,83,3,0
31,83,3,0
31,83,3,0
