17,112,2,28
17,111,2,28
18,111,2,28
17,110,2,28
17,109,2,28
17,109,2,28
17,109,2,27
17,108,2,27
17,107,2,27
16,107,2,27
16,107,1,27
16,106,2,27
16,113,2,27
19,113,2,27
19,112,2,27
19,112,2,27
19,111,2,26
19,110,2,26
19,110,2,26
18,109,2,26
18,109,2,26
18,108,2,25
18,108,2,26
18,107,2,26
18,106,2,29
19,121,2,30
19,120,2,30
19,120,3,30
19,120,2,30
19,118,2,29
19,118,2,29
19,117,2,29
19,116,2,29
19,115,2,29
18,115,2,29
18,115,2,28
18,114,2,29
18,113,2,28
18,117,2,28
18,116,2,28
18,115,2,28
18,115,2,28
18,115,2,28
18,114,2,27
17,113,2,27
18,113,2,27
17,112,2,27
17,112,2,28
17,111,2,26
17,110,1,26
17,110,2,27
17,123,2,28
19,123,2,28
19,123,2,28
18,121,1,28
18,121,2,28
18,120,2,28
18,120,1,27
18,119,2,27
18,119,2,27
18,118,1,27
17,117,2,27
17,117,1,27
18,116,2,27
17,119,2,28
19,119,1,28
19,118,2,28
18,118,1,27
18,117,2,28
18,116,1,27
18,115,1,27
18,115,1,27
18,115,2,27
18,114,1,27
17,113,1,26
17,113,1,27
17,112,1,26
17,112,1,27
18,113,1,27
18,112,1,26
18,112,1,26
18,111,1,26
18,111,1,26
18,110,2,26
17,110,1,26
17,109,1,25
17,109,1,25
17,108,1,25
17,108,1,25
17,107,1,25
17,109,1,24
18,110,1,25
18,110,1,24
18,110,1,24
18,109,1,24
18,108,1,24
17,108,1,24
17,107,1,24
17,107,1,24
17,106,1,24
17,106,1,24
17,105,1,24
17,104,1,24
17,110,1,23
16,120,1,23
17,120,1,24
16,119,1,23
16,118,1,23
16,117,1,23
16,117,1,23
16,115,1,22
16,115,1,22
16,115,1,22
16,114,1,22
16,114,1,22
15,113,1,22
15,113,2,25
19,116,1,25
20,115,1,25
19,115,2,25
19,114,1,25
19,113,2,25
19,113,1,25
19,112,1,24
19,112,1,24
19,111,1,24
19,110,2,24
18,110,1,24
19,110,1,24
18,110,1,24
19,113,1,24
20,112,1,24
20,112,1,24
20,111,1,24
20,110,1,23
19,110,1,23
19,110,1,23
19,109,1,23
19,108,1,23
19,108,1,23
19,107,1,22
19,107,1,22
19,108,1,23
19,114,1,22
19,113,1,22
19,113,1,22
18,112,1,22
18,111,1,22
18,111,1,22
18,110,1,22
18,110,1,22
18,109,1,21
18,108,1,22
18,108,1,21
17,108,1,21
18,107,1,27
17,111,1,27
18,110,1,27
17,110,1,27
17,109,1,27
17,109,1,27
17,108,1,27
17,107,1,26
17,106,1,26
17,106,1,26
16,106,1,26
17,105,1,26
16,105,1,25
16,103,1,26
17,108,1,25
17,107,1,25
17,107,1,25
17,106,1,25
17,105,1,25
17,105,1,25
16,103,1,24
16,103,1,24
16,103,1,25
16,103,1,24
16,102,1,24
16,102,1,24
15,102,1,24
15,122,1,24
16,121,1,24
15,121,1,24
15,120,1,24
15,119,0,24
15,119,1,23
15,118,1,23
15,118,1,23
15,117,1,23
15,116,1,24
15,115,1,23
15,115,1,23
15,115,2,23
15,115,7,24
18,114,7,23
17,113,7,24
17,113,7,23
17,112,7,23
17,112,7,23
17,111,6,23
17,110,7,23
17,110,6,22
17,109,7,22
16,109,6,22
16,108,6,22
16,108,6,23
16,111,6,28
17,111,6,28
17,110,6,28
17,109,6,28
16,109,6,28
16,108,6,28
16,108,6,28
16,107,6,27
16,107,6,27
16,106,6,27
16,106,6,27
16,105,6,26
15,105,6,26
15,111,6,28
23,111,6,28
23,110,5,28
23,110,5,28
23,109,5,27
22,109,6,27
22,108,5,27
22,108,5,27
22,108,5,27
22,106,5,26
22,106,5,26
22,105,5,26
21,105,5,26
21,113,5,30
21,114,5,31
21,113,5,30
21,112,5,30
21,112,5,30
21,111,5,29
21,111,5,29
21,110,5,29
20,110,5,29
20,109,4,29
20,108,5,28
20,108,5,29
20,108,5,35
19,108,5,62
19,107,5,61
19,107,5,61
19,106,5,61
19,106,5,60
19,105,5,60
19,105,5,60
19,103,5,60
19,103,5,59
19,103,5,59
18,103,5,58
18,102,5,58
18,102,4,58
18,106,5,57
18,107,5,57
18,107,5,57
18,106,4,57
18,105,4,56
17,105,5,56
18,105,4,56
17,103,4,56
17,103,4,56
17,103,4,56
17,102,4,56
17,102,4,55
17,101,4,55
16,120,4,54
18,122,4,54
17,121,4,54
17,120,3,53
17,120,4,53
17,119,4,53
17,119,4,53
17,118,3,52
17,118,3,52
17,117,4,51
16,116,4,51
16,115,3,51
16,115,3,51
16,115,3,51
17,114,3,51
16,113,3,50
16,113,4,50
16,112,4,50
16,112,4,50
16,112,3,49
16,111,3,49
15,110,3,49
16,110,3,49
15,109,3,48
16,109,3,48
15,108,3,48
15,108,3,48
16,112,3,48
16,111,4,47
16,111,3,47
15,111,3,47
15,110,3,47
15,109,3,46
15,109,3,46
15,108,3,46
15,108,3,46
15,107,3,46
15,106,3,45
15,106,3,45
15,106,3,45
15,115,3,45
15,115,3,45
15,114,3,44
15,113,3,44
15,113,3,44
15,112,3,44
15,112,3,44
15,111,3,44
15,111,3,43
14,110,3,43
14,109,3,43
15,109,3,42
15,108,3,42
15,114,3,42
18,113,3,42
17,113,3,42
18,112,3,41
18,112,2,41
18,111,3,41
17,110,3,41
17,110,2,41
17,109,2,41
17,109,2,39
17,108,2,40
17,108,2,39
17,107,3,39
17,110,3,39
17,110,3,39
17,109,2,39
17,109,3,39
17,108,3,39
16,108,2,39
17,107,3,39
16,107,3,39
17,106,2,38
16,106,2,38
16,105,2,38
16,105,2,37
16,103,2,37
15,107,2,37
16,106,2,37
16,105,2,37
16,105,2,37
15,103,2,37
16,103,2,36
15,103,2,36
15,103,2,36
15,103,2,36
15,102,2,35
15,101,2,35
15,101,2,35
15,101,2,35
15,117,2,35
16,117,2,35
16,116,2,34
16,115,2,35
16,115,2,34
16,114,2,35
16,113,2,34
15,113,2,34
16,112,2,34
15,112,2,33
15,112,2,33
15,111,2,33
15,110,2,33
15,117,2,33
15,116,2,33
15,115,2,33
15,115,2,33
15,114,2,32
15,114,2,31
15,113,2,32
15,113,2,31
15,112,2,31
15,112,2,31
15,111,2,31
15,110,2,31
14,110,2,31
14,122,2,31
15,121,2,31
15,121,2,30
15,120,2,30
14,120,2,31
14,119,2,30
14,118,2,30
14,118,2,30
14,117,2,30
14,116,2,30
14,116,1,30
14,115,2,29
14,115,2,29
14,115,2,37
18,114,2,35
18,114,2,35
18,113,2,35
18,113,2,35
18,112,1,35
18,112,2,35
18,111,2,35
17,111,2,35
17,110,2,35
17,109,2,34
17,109,1,34
17,108,1,34
17,108,2,34
17,107,2,33
17,107,2,33
17,106,2,33
16,106,2,33
16,105,2,33
16,105,2,33
16,103,2,32
16,103,2,32
16,103,2,32
16,103,2,32
15,103,2,31
15,102,2,31
15,102,2,31
24,108,2,31
23,107,2,31
23,107,2,31
23,106,2,31
23,105,2,31
22,105,2,30
22,105,2,30
22,103,1,30
22,103,1,30
22,103,1,30
22,103,1,30
22,102,1,30
21,105,2,38
22,111,2,38
22,111,2,38
22,110,2,37
22,110,2,37
22,109,2,37
22,108,2,37
21,108,2,37
21,107,2,37
20,107,1,36
21,106,2,36
21,106,2,36
21,105,2,35
20,109,2,36
20,118,4,35
20,117,3,35
20,117,4,35
20,116,3,35
20,115,3,35
19,115,3,35
19,114,3,35
19,114,3,34
19,113,3,34
19,113,3,34
19,112,3,34
19,112,3,33
19,111,3,59
20,112,3,59
21,111,3,59
21,111,3,58
21,110,3,58
21,110,3,57
20,109,3,57
20,108,3,57
20,108,3,57
20,108,3,56
20,107,3,56
19,107,3,56
19,106,3,56
19,105,3,56
20,111,3,56
20,110,3,55
20,110,3,55
19,109,3,54
20,108,3,54
19,108,3,54
19,108,3,53
19,107,3,53
19,106,3,53
19,106,3,52
19,105,3,53
19,105,3,52
18,105,3,52
19,116,3,51
18,115,3,51
18,115,3,51
18,114,3,51
18,113,3,51
18,113,3,50
18,112,3,50
17,112,3,50
17,112,3,50
17,111,3,50
17,110,3,49
17,110,3,49
17,110,3,49
17,120,3,48
21,120,3,48
21,119,3,48
21,118,3,48
21,118,3,48
21,117,3,48
20,117,3,48
21,115,2,47
20,115,2,47
20,115,3,46
20,114,3,47
20,114,2,46
19,113,3,46
21,134,3,46
23,134,3,46
23,133,3,45
23,131,3,45
22,131,3,45
22,131,3,45
22,130,3,45
22,129,2,44
22,128,2,44
22,127,2,44
22,127,2,44
21,127,3,43
21,126,3,43
21,126,2,43
21,125,2,43
21,124,3,43
21,124,3,43
21,124,3,42
21,123,2,42
20,122,3,41
21,121,2,41
20,121,2,41
20,121,2,41
20,120,2,41
20,120,2,41
20,119,2,41
19,127,2,41
20,127,2,39
20,126,2,39
19,125,2,39
19,125,2,39
19,124,2,39
19,124,2,39
19,123,2,39
19,122,2,39
19,121,2,39
19,121,2,39
19,120,2,39
19,120,2,38
19,120,2,38
19,119,2,38
19,119,2,38
18,118,2,38
18,118,2,37
18,117,2,38
18,116,2,37
18,115,2,37
18,115,2,37
17,115,2,36
18,114,2,36
18,113,2,36
17,113,1,35
17,112,3,36
19,123,2,36
19,121,2,36
19,121,2,35
19,121,2,35
19,120,2,35
19,120,2,35
19,119,2,35
19,118,2,35
19,118,2,34
19,117,2,35
18,116,2,34
18,116,2,34
18,115,2,34
19,117,2,34
19,116,2,34
19,115,2,34
18,115,2,33
18,115,2,33
19,114,2,33
18,114,2,33
18,113,2,33
18,113,2,33
18,112,2,33
17,112,2,32
18,111,2,32
17,111,2,32
21,111,2,31
20,110,2,31
20,110,2,31
20,109,2,31
20,109,2,31
19,108,2,31
19,108,2,31
20,107,2,31
19,107,2,30
19,106,2,31
19,106,2,31
19,105,2,30
19,105,2,30
19,112,2,30
19,111,2,30
19,111,2,30
18,110,2,30
18,110,2,29
19,109,2,29
18,109,2,29
18,108,2,29
18,108,1,29
18,107,2,29
17,106,2,28
17,106,2,29
18,105,2,29
18,105,2,28
19,104,2,28
19,103,2,28
19,103,2,28
19,103,2,28
19,103,2,28
19,102,2,28
18,102,2,27
19,101,2,27
18,101,2,27
18,100,2,27
18,100,2,27
18,99,2,27
22,115,2,27
23,114,2,27
23,113,2,26
23,113,2,26
23,112,2,26
22,112,2,26
22,111,2,26
22,111,2,25
22,110,2,25
22,109,2,25
22,109,2,25
21,108,2,25
21,108,2,25
21,110,2,25
21,109,2,25
21,109,2,25
21,108,2,25
21,108,2,25
21,107,2,25
20,106,2,25
21,106,2,24
20,105,2,24
20,105,2,24
20,103,2,24
19,103,2,24
20,103,2,24
20,127,2,24
22,127,1,24
21,126,1,24
21,126,1,24
21,125,2,24
21,125,1,24
21,124,1,24
20,123,1,24
21,123,1,24
21,122,1,24
20,121,1,23
20,121,1,24
20,120,2,27
19,120,1,28
20,120,2,27
19,119,2,27
19,119,2,27
19,118,2,27
19,117,2,27
19,116,2,27
19,115,2,26
19,115,2,26
19,114,2,26
19,114,2,26
19,114,2,26
19,113,2,25
18,124,2,26
18,123,2,25
18,122,2,25
18,121,2,25
18,120,2,25
18,120,2,25
18,120,2,25
18,119,2,24
17,119,2,24
17,118,1,24
17,117,2,24
17,117,1,24
17,115,1,24
17,115,2,24
18,115,2,24
18,115,2,24
17,115,2,24
17,114,2,23
17,113,2,23
17,113,2,24
17,112,2,23
17,112,1,23
17,111,2,23
16,111,2,22
16,110,1,22
17,110,2,22
16,110,2,28
22,110,2,27
22,109,2,27
21,108,2,27
21,108,2,27
21,107,2,27
21,107,2,27
21,106,2,27
21,105,2,27
21,105,2,26
21,105,2,26
20,103,2,26
20,103,2,26
20,103,2,27
20,108,2,27
20,108,2,27
20,107,2,27
20,107,2,27
19,105,2,27
19,105,2,26
19,105,2,26
19,103,2,26
19,103,2,26
19,103,2,26
19,103,2,25
19,102,2,25
19,103,2,25
19,110,2,25
19,109,2,25
19,109,2,25
19,108,2,25
19,107,1,25
19,107,1,25
19,106,2,25
19,105,1,25
19,105,1,24
18,105,1,24
18,103,2,24
18,103,1,24
18,106,1,24
18,112,2,24
21,111,1,24
21,110,2,24
21,110,1,24
21,109,1,24
21,108,1,24
20,108,1,23
21,108,1,24
20,107,1,24
20,106,1,23
20,106,1,23
19,105,2,23
19,107,1,24
19,118,2,24
24,118,2,24
24,117,2,24
24,116,2,24
24,115,2,23
24,115,2,23
23,114,2,24
23,113,1,22
24,113,2,23
23,113,2,22
23,112,2,22
22,112,2,22
23,111,2,22
22,115,2,22
22,114,2,22
22,114,2,22
22,113,2,22
22,113,2,22
22,112,1,21
21,112,2,21
21,111,2,21
21,110,1,21
21,110,1,21
21,109,1,21
21,109,1,21
21,109,2,21
21,118,2,21
20,117,1,21
20,117,2,21
20,116,2,21
20,115,2,20
20,115,2,20
19,114,1,20
20,114,2,20
19,113,2,20
19,113,2,20
19,112,1,19
19,112,1,19
19,111,2,22
19,114,2,22
19,114,1,21
19,113,2,22
18,113,1,21
19,112,2,21
18,112,1,21
18,111,2,21
18,110,1,21
18,110,2,21
18,109,1,21
18,109,1,20
18,108,1,21
18,108,1,31
17,108,2,38
18,108,2,38
18,107,2,37
18,106,2,37
18,106,1,37
17,105,1,37
17,105,1,37
17,103,1,37
17,103,1,37
17,103,1,36
17,103,1,35
17,102,1,35
16,102,1,51
17,116,1,62
18,115,1,61
17,115,1,62
17,114,1,61
17,113,1,61
17,113,1,61
17,112,1,60
17,112,1,60
16,111,1,60
16,110,1,59
16,110,1,59
16,110,1,59
16,109,1,58
16,113,1,58
17,112,1,57
17,112,1,57
17,111,1,57
16,111,2,57
16,110,1,57
16,110,1,56
16,109,1,56
16,109,1,56
16,108,1,56
15,107,1,55
15,107,1,55
15,106,1,55
16,112,1,55
23,114,1,54
23,113,2,54
23,113,1,53
23,112,1,53
22,112,1,53
22,111,1,53
22,110,1,53
22,110,1,52
22,109,1,52
22,109,1,51
22,108,1,51
21,108,1,51
21,117,1,51
24,118,1,51
24,117,1,51
24,116,1,50
24,115,1,50
24,115,1,50
23,115,1,50
23,114,1,49
22,113,1,49
22,113,1,49
22,112,1,48
22,112,1,48
22,111,1,48
22,119,1,48
24,121,1,48
24,121,1,48
24,120,1,47
24,120,1,47
24,119,1,47
24,119,1,46
24,118,1,46
23,117,1,46
23,116,1,46
23,115,1,46
22,115,1,45
23,115,1,46
22,115,1,45
23,114,1,45
24,113,1,45
23,113,1,45
23,112,1,44
22,112,1,44
23,111,1,44
22,111,1,44
22,110,1,44
22,110,1,43
22,109,1,43
22,109,1,43
22,108,1,43
21,108,1,43
22,112,1,42
22,112,1,42
22,111,1,42
21,111,1,41
21,110,1,41
21,110,1,41
21,109,1,41
21,108,1,41
21,108,1,41
20,108,1,41
20,107,1,39
20,106,1,39
20,106,1,39
20,110,1,39
20,110,1,39
20,109,1,39
21,108,1,39
21,108,1,39
20,108,1,39
20,107,0,39
20,107,1,39
19,106,1,38
20,105,1,38
19,105,1,38
19,103,1,38
19,107,1,38
19,115,1,38
19,114,1,38
19,113,1,37
19,113,1,38
19,112,1,37
19,112,1,37
19,111,1,37
19,110,1,37
18,110,1,36
19,109,1,36
18,109,1,36
18,108,1,36
18,111,1,63
18,117,1,63
29,116,1,63
28,115,1,62
28,115,1,62
28,114,1,61
28,114,1,61
28,113,1,61
28,112,1,60
28,112,1,60
27,111,1,60
27,111,1,60
27,110,1,60
27,129,1,59
27,156,0,59
27,155,1,59
26,154,1,58
26,153,1,58
26,152,1,58
26,152,1,57
26,151,1,57
25,150,1,57
25,149,1,57
25,148,0,57
25,147,1,56
25,147,1,56
25,146,1,56
25,145,1,55
25,145,1,55
24,143,1,55
25,143,1,54
25,143,1,54
24,142,1,54
24,141,1,54
24,141,1,54
24,140,1,53
24,139,1,53
24,139,1,53
24,138,1,52
24,137,1,52
24,211,1,51
29,209,1,51
29,207,1,51
29,206,1,51
28,205,1,51
28,204,1,51
28,203,1,50
28,201,1,50
28,201,1,50
28,199,1,50
28,198,1,49
27,197,1,49
27,210,1,49
31,255,1,48
66,253,1,48
65,251,1,48
65,249,1,48
65,248,1,48
63,247,1,48
63,246,1,47
63,244,1,47
63,242,1,47
62,241,1,47
62,240,1,47
62,239,1,46
62,238,1,46
61,246,1,46
84,244,1,46
83,243,1,45
83,241,1,45
83,240,1,45
82,239,1,45
82,238,1,44
81,237,1,44
81,236,1,44
80,234,1,44
79,233,1,44
79,231,1,44
79,231,1,44
78,230,1,43
78,228,1,43
78,227,1,43
78,226,1,42
77,225,1,42
77,224,1,42
76,223,1,42
76,222,1,42
76,221,1,42
76,219,1,41
75,218,1,41
74,217,1,41
74,217,1,41
98,216,1,41
108,215,1,39
107,214,1,39
106,212,1,39
105,211,1,39
105,210,1,39
103,209,1,39
103,207,1,39
103,207,1,39
103,206,1,38
102,205,1,39
101,204,1,39
101,222,1,38
100,220,1,38
99,219,1,38
99,218,1,37
99,217,1,38
98,216,1,37
98,215,1,37
97,214,1,37
97,211,1,37
96,211,1,37
96,210,1,36
96,209,1,36
95,208,1,36
95,207,1,37
94,206,1,37
94,205,1,37
176,205,1,37
179,203,1,37
177,202,1,36
176,201,1,37
175,199,1,36
174,199,1,36
173,198,1,35
172,198,1,35
171,196,1,35
170,195,1,35
169,194,1,35
169,293,2,35
167,377,2,35
167,373,2,35
166,371,2,34
165,368,2,34
165,366,2,34
163,364,1,34
163,361,1,33
162,359,2,33
161,357,2,33
159,355,1,33
159,353,2,33
159,351,2,33
158,430,2,33
157,540,2,32
156,533,2,32
156,529,2,31
155,525,2,31
154,521,2,31
153,517,2,31
153,513,2,31
152,510,2,31
152,506,2,31
151,502,2,31
150,499,2,31
149,496,2,31
148,493,2,30
147,487,2,30
147,486,2,30
147,483,2,30
145,480,2,30
145,476,2,30
143,473,2,30
143,471,2,30
143,467,2,29
142,463,2,29
141,461,2,31
167,459,2,31
206,455,2,30
204,453,2,30
203,450,2,31
201,448,2,30
199,445,2,30
199,441,2,30
198,440,2,30
197,436,2,29
196,435,2,29
195,431,2,29
194,430,2,30
193,567,2,29
192,615,2,29
191,609,2,29
190,605,2,28
189,600,2,29
188,698,2,28
187,689,2,29
187,683,2,28
185,678,2,28
216,671,2,28
215,665,2,28
268,660,2,28
265,655,2,28
263,650,2,28
262,643,3,28
261,639,3,27
259,634,3,27
257,630,3,27
255,624,3,27
255,619,3,27
253,615,3,26
252,611,2,26
251,605,3,26
249,601,2,26
248,596,3,33
247,592,3,32
245,589,2,31
244,583,2,31
243,579,2,31
242,575,2,31
241,572,2,31
240,568,2,31
238,563,2,31
237,560,2,31
236,556,2,30
235,551,2,30
233,548,2,30
233,638,2,33
231,657,2,32
231,649,3,32
229,644,2,32
228,639,2,31
227,634,2,31
226,628,2,31
225,623,2,31
224,620,2,31
222,615,2,31
221,609,2,31
220,604,2,31
220,600,2,31
218,596,2,31
217,591,2,30
216,587,2,30
216,583,2,30
215,579,2,30
213,574,2,30
212,569,2,30
211,566,2,30
210,562,2,29
209,558,2,29
207,554,2,29
207,551,2,31
206,547,2,31
205,542,2,30
204,539,2,30
204,536,2,30
203,532,3,30
201,528,3,29
201,525,2,29
199,521,2,29
199,519,2,29
198,515,2,29
197,511,2,29
196,508,2,28
195,505,3,28
194,501,3,28
193,498,3,28
193,496,3,28
192,492,3,28
191,489,3,28
190,486,3,27
190,483,3,27
188,480,2,27
188,477,3,27
187,475,3,27
186,496,2,27
185,493,3,39
184,487,3,39
184,486,3,39
183,482,3,38
182,479,3,38
181,476,3,38
179,472,2,37
179,470,3,38
178,467,3,37
177,463,2,37
177,461,2,37
176,459,2,36
175,455,2,36
206,553,2,38
204,585,3,38
203,581,3,38
202,577,2,38
201,572,2,37
199,568,2,37
199,563,2,37
198,560,2,37
196,556,2,37
195,551,2,36
195,547,2,36
194,543,2,35
193,540,3,37
192,536,2,37
191,531,3,37
190,528,2,37
189,525,2,36
188,520,2,36
187,517,2,35
186,514,2,36
185,510,2,35
184,506,3,35
267,504,2,35
312,499,2,35
311,497,2,37
308,577,3,41
306,572,3,39
304,568,3,39
303,564,3,39
301,559,3,39
299,555,3,39
298,551,2,39
295,547,2,39
295,543,3,39
293,539,3,39
291,536,3,38
290,532,2,38
287,649,3,38
287,643,3,38
285,638,3,38
284,633,3,37
282,627,2,37
281,622,2,37
280,617,3,37
279,613,3,37
276,608,2,36
275,603,2,36
274,599,2,35
273,595,2,36
271,665,3,36
270,659,3,35
268,654,3,35
267,649,3,35
266,643,3,35
263,637,3,35
263,633,3,34
262,627,3,34
261,622,3,34
259,617,3,34
258,613,3,34
257,608,3,34
255,604,3,34
254,633,5,35
253,795,5,34
252,815,5,34
251,807,5,34
249,797,5,34
248,790,5,34
329,783,5,33
326,775,5,33
323,767,5,33
322,760,5,33
319,753,5,32
318,748,5,33
316,739,7,35
314,733,7,35
313,728,7,35
311,722,7,35
309,713,7,35
307,708,7,34
306,703,7,34
304,697,7,34
303,691,7,34
301,685,7,34
300,679,7,33
298,675,7,33
295,669,7,35
295,664,7,35
293,659,7,35
291,654,7,35
291,647,7,34
289,643,7,34
287,639,7,34
286,634,6,34
285,628,6,34
283,624,6,34
282,620,6,33
281,615,6,33
279,768,6,32
278,843,7,33
276,834,6,33
275,826,7,33
273,816,6,33
271,807,6,32
271,801,6,32
269,793,6,32
268,783,6,32
267,777,6,31
265,771,6,31
263,764,6,31
263,755,6,31
262,750,6,42
261,743,7,42
259,737,7,41
258,729,7,41
257,723,7,41
255,718,7,41
254,713,7,41
359,705,7,40
387,700,7,39
406,695,7,39
403,689,7,39
400,683,7,39
398,677,7,41
395,671,7,41
393,667,7,41
391,663,7,41
388,655,7,39
386,652,7,39
384,647,7,39
381,642,7,39
379,636,7,39
377,632,6,39
375,627,7,39
373,623,7,39
371,782,6,39
369,895,7,38
367,907,6,38
365,911,7,38
433,915,6,38
429,917,6,38
463,917,6,38
481,911,6,37
478,889,6,37
475,880,6,37
472,871,6,37
468,863,6,36
465,852,6,36
463,844,6,37
460,837,6,37
519,829,6,36
515,819,6,36
511,812,6,36
507,805,6,36
504,798,6,36
499,789,6,35
540,783,5,35
577,775,6,35
573,769,6,35
568,761,5,35
613,755,6,39
701,748,7,41
694,743,7,40
688,734,7,39
681,729,7,39
676,723,7,39
671,717,7,39
665,710,7,39
659,704,7,39
655,699,7,39
650,694,7,39
645,688,7,39
639,701,7,38
636,837,7,38
631,828,7,38
626,817,7,38
622,810,7,38
617,803,6,37
613,796,6,37
608,786,7,37
711,779,6,36
704,772,6,36
697,765,7,36
691,757,6,36
686,750,6,36
679,743,6,35
675,738,14,35
669,729,14,35
664,724,14,35
658,716,14,35
653,711,14,35
648,705,14,34
643,698,14,34
638,692,14,34
633,685,14,34
671,679,14,34
665,675,13,33
659,669,13,63
654,664,13,63
648,658,13,63
643,653,13,62
638,647,13,62
633,643,12,61
627,638,12,61
624,632,12,60
619,627,13,60
614,622,12,60
609,618,12,60
605,614,12,60
601,652,12,59
596,685,12,59
591,678,12,59
588,671,12,58
583,665,12,58
579,659,12,58
575,655,12,57
571,647,12,57
568,643,11,57
563,637,11,56
560,632,11,56
556,627,11,56
551,621,11,56
549,617,11,56
545,611,11,55
542,607,11,55
538,601,11,55
535,598,11,54
531,594,11,54
527,589,11,53
524,585,11,53
521,579,10,53
518,575,10,53
514,573,11,53
511,568,13,52
508,564,13,51
504,560,13,51
501,556,13,51
498,551,13,51
495,549,13,51
492,545,13,51
489,541,13,50
487,538,12,50
483,534,12,50
480,531,12,50
477,527,12,50
475,523,12,50
472,519,12,49
469,516,12,49
467,513,12,49
463,509,12,48
461,506,12,48
458,503,12,48
455,499,11,48
453,496,12,48
450,493,11,47
448,490,11,47
446,487,11,49
443,483,11,48
440,481,11,48
438,478,11,48
435,475,11,48
433,472,11,48
431,469,11,47
428,467,11,47
425,463,10,46
423,461,10,46
421,458,10,46
419,455,10,46
417,453,10,46
414,450,11,45
412,448,11,45
409,444,11,45
408,442,11,45
405,439,11,44
403,437,11,44
401,435,11,44
399,432,11,44
397,429,11,43
395,427,10,43
393,423,10,43
391,423,11,43
389,419,10,43
387,417,10,43
385,415,10,42
383,412,10,42
380,409,10,41
379,408,10,41
377,406,10,41
375,403,10,41
373,401,9,41
371,399,10,41
369,397,9,41
368,395,9,39
366,393,9,39
364,391,9,39
362,388,9,39
359,387,9,39
359,384,9,39
357,382,9,39
355,380,9,39
353,379,9,39
352,377,9,39
350,375,9,38
349,373,9,38
347,371,9,41
345,369,9,41
344,367,8,41
342,366,9,41
341,364,9,39
339,362,8,39
337,359,7,40
335,358,8,39
334,357,7,39
333,355,7,39
331,353,7,39
330,352,7,39
327,350,7,42
327,348,7,42
326,345,7,42
323,344,7,42
322,343,7,41
321,341,7,41
319,339,7,41
318,337,7,41
316,335,7,41
315,335,7,39
313,332,7,39
312,331,7,39
311,329,7,39
309,327,7,43
308,327,7,43
307,325,7,42
305,323,7,42
304,322,7,41
303,320,7,41
301,319,7,41
300,317,7,41
299,316,7,41
297,315,6,39
295,313,6,39
295,312,6,39
294,310,7,51
291,309,6,51
291,307,7,50
289,305,6,50
287,304,7,50
287,303,6,49
285,301,6,49
284,300,6,49
283,299,6,48
282,297,6,48
281,295,6,48
280,295,6,48
278,293,6,50
277,291,6,50
275,290,6,49
275,289,6,49
273,287,6,49
272,287,6,49
271,285,6,48
270,284,5,48
269,283,5,48
268,281,5,48
266,280,5,47
265,279,5,47
263,278,5,54
263,277,5,66
262,275,5,66
261,273,5,66
259,273,5,65
259,271,5,65
258,270,5,64
255,269,5,63
255,268,5,63
254,267,5,63
253,265,5,63
252,263,5,63
251,263,5,63
250,262,4,62
249,260,4,62
248,259,4,61
247,259,4,61
246,257,5,61
245,255,4,61
243,255,4,60
243,254,4,60
242,253,4,60
241,252,4,60
240,250,4,59
239,249,4,59
238,248,4,58
237,247,4,58
236,246,4,58
235,245,3,57
234,243,4,57
233,243,3,57
231,242,3,56
231,241,3,56
230,240,3,56
229,239,3,56
228,238,3,56
227,237,3,56
226,236,3,56
225,235,3,55
224,233,3,55
224,231,3,54
223,231,3,54
222,231,3,54
221,230,3,54
220,229,3,53
219,227,3,53
218,227,3,53
217,225,3,52
216,225,3,52
216,224,3,52
215,223,3,51
214,222,3,51
213,221,3,51
212,220,3,51
211,219,3,51
210,219,3,50
209,217,3,50
209,216,3,50
207,216,3,50
207,215,3,49
206,214,3,49
205,213,3,49
204,212,3,48
204,211,3,48
203,210,3,48
202,209,3,48
201,208,3,48
199,207,3,48
199,207,3,47
199,206,3,48
198,205,3,47
197,204,3,47
196,203,3,46
195,203,3,46
195,201,3,46
194,199,3,46
193,199,3,45
193,199,3,45
192,198,2,45
191,197,2,45
190,197,3,44
190,195,2,44
189,195,2,44
188,194,2,44
187,193,2,44
187,193,2,43
185,192,3,43
185,191,2,43
184,190,3,43
184,190,2,42
183,189,2,43
182,188,3,42
182,187,2,42
181,187,2,42
179,186,2,41
179,185,2,41
179,184,2,41
178,184,2,41
177,183,2,41
176,182,2,40
176,181,2,41
175,180,2,39
174,179,2,40
174,179,2,39
173,178,2,39
173,177,2,39
172,177,2,39
171,176,2,39
170,175,2,39
170,175,2,39
169,174,2,39
167,173,2,39
167,173,2,39
167,172,2,39
167,171,2,38
166,170,2,38
165,169,1,38
177,169,2,38
243,167,2,38
241,167,2,37
240,167,1,37
239,166,2,37
238,165,1,36
236,165,1,37
235,164,2,36
233,163,1,36
233,163,1,36
231,162,1,35
230,161,1,35
229,161,1,35
227,160,1,35
227,159,1,35
225,159,1,35
224,158,1,35
223,158,1,34
222,157,1,35
221,156,1,34
220,156,1,36
219,155,1,35
218,155,1,35
217,153,1,35
216,153,1,35
215,153,1,35
214,152,1,35
212,152,1,34
211,151,1,34
210,150,1,34
209,150,1,34
209,149,1,34
207,149,1,33
206,147,1,33
205,147,1,33
204,147,1,33
204,146,1,33
202,145,1,33
201,145,1,33
201,143,1,33
199,143,1,32
199,143,1,32
198,143,1,31
197,142,1,31
195,141,1,31
195,141,1,31
194,140,1,31
193,140,0,31
192,139,1,31
192,139,1,31
190,138,1,31
189,137,1,31
189,137,1,31
188,135,0,30
187,135,1,30
186,135,1,30
185,135,0,30
185,134,1,30
184,134,1,30
183,133,0,29
182,133,1,29
181,132,0,29
180,131,1,29
179,131,1,29
179,130,1,29
178,130,1,28
177,129,0,28
176,129,1,28
176,128,1,28
175,127,1,28
174,127,1,28
173,127,1,28
172,126,1,28
172,126,0,28
171,125,1,27
170,125,1,27
169,124,0,27
167,124,1,27
167,123,0,27
167,122,0,27
166,122,0,27
166,121,1,26
165,121,0,26
164,121,0,26
163,120,0,26
163,120,0,26
162,120,0,26
162,119,0,26
161,118,0,25
160,118,1,25
159,117,0,25
159,117,0,25
158,116,0,25
158,116,1,25
157,115,0,24
157,115,0,24
156,114,0,24
155,114,0,24
155,114,0,24
154,113,0,24
153,113,0,24
153,112,0,24
153,112,0,24
152,112,0,24
151,111,0,24
150,111,0,23
150,110,0,23
149,110,0,24
149,109,0,24
148,109,0,24
147,108,0,24
147,108,0,24
146,108,0,23
146,107,0,23
145,107,0,23
145,106,0,22
144,106,0,22
143,105,0,23
143,105,0,22
142,105,0,23
142,103,0,22
141,103,0,22
141,103,0,22
140,103,0,22
140,102,0,22
140,102,0,22
139,102,0,21
138,101,0,21
138,101,0,21
137,100,0,21
135,100,0,21
135,99,0,28
135,99,0,31
135,99,0,31
135,99,0,31
135,98,0,30
134,98,0,30
134,97,0,30
133,97,0,30
132,97,0,30
132,96,0,30
131,96,0,30
131,96,0,29
131,95,0,29
131,95,0,29
230,95,0,29
228,94,0,29
227,94,0,29
225,94,0,29
224,93,0,28
223,92,0,28
222,92,0,28
220,92,0,28
220,92,0,28
218,91,0,27
217,91,0,27
216,91,0,27
216,91,0,27
243,90,0,30
242,89,0,29
240,89,0,30
239,89,0,29
238,88,0,29
236,88,0,29
235,88,0,29
234,88,0,28
233,88,0,28
231,87,0,28
231,87,0,28
230,86,0,28
228,86,0,28
227,86,0,27
226,86,0,28
225,85,0,27
224,85,0,27
223,85,0,27
222,84,0,27
221,83,0,27
220,83,0,27
219,83,0,27
217,83,0,26
217,82,0,26
216,82,0,26
215,82,0,26
214,81,0,25
213,81,0,25
211,81,0,25
211,81,0,25
209,80,0,25
209,79,0,25
207,79,0,25
207,79,0,24
206,79,0,24
205,79,0,24
204,79,0,24
203,78,0,24
203,78,0,24
