30,39,9,18
30,39,9,18
29,38,9,18
29,38,9,18
29,38,9,18
29,38,8,17
29,38,8,17
29,37,7,34
29,38,8,34
28,38,9,34
28,37,8,34
28,38,7,34
28,37,7,33
28,37,7,33
28,37,9,33
28,37,9,33
27,37,9,33
27,36,9,32
27,36,9,32
27,35,8,32
27,35,9,31
27,35,8,31
27,36,9,31
27,35,9,31
27,35,8,31
26,35,9,31
26,35,7,31
26,35,7,31
26,35,7,31
26,35,8,31
26,34,9,30
25,35,7,30
25,34,7,30
25,34,7,30
25,34,7,29
25,34,7,30
25,34,7,30
25,34,7,30
25,34,7,29
24,34,7,29
24,34,7,29
24,33,7,29
24,33,7,28
25,33,7,29
24,33,7,29
24,33,7,28
24,33,7,28
24,32,7,28
24,32,7,28
24,33,7,28
24,33,7,28
23,33,7,27
24,32,7,27
24,33,7,27
23,32,7,27
23,32,7,27
24,31,7,27
24,31,7,26
24,31,7,26
24,31,7,26
24,31,7,26
23,31,7,26
23,31,7,25
23,31,7,26
23,30,7,27
23,30,7,26
22,30,7,26
22,30,7,26
22,30,7,26
23,30,7,26
23,30,7,25
23,30,7,25
23,30,7,25
22,29,7,25
22,30,7,25
22,29,7,25
22,29,7,25
22,29,7,25
22,29,7,25
22,28,7,25
22,28,7,25
21,28,7,25
21,28,7,25
21,28,7,25
25,28,7,24
25,28,7,25
25,28,7,24
25,28,7,24
24,27,7,24
24,27,7,24
24,27,7,24
24,28,7,24
24,28,7,24
24,27,7,24
24,27,7,23
24,28,7,24
24,27,7,24
24,27,7,23
24,27,7,23
24,27,7,23
24,27,7,23
24,26,7,23
24,26,7,22
23,26,7,22
23,26,7,22
23,43,7,22
23,43,6,22
23,42,6,22
23,42,6,22
22,42,7,22
22,41,7,22
23,41,7,22
23,41,7,21
23,41,7,21
22,41,7,21
23,39,7,21
22,39,7,21
22,39,7,21
22,39,7,21
22,39,7,20
22,39,7,20
21,39,7,20
21,39,7,20
21,39,7,20
22,39,7,19
22,39,7,19
22,38,7,19
22,38,7,19
22,38,7,19
22,38,7,19
21,37,7,19
22,37,7,19
21,37,7,26
21,38,7,25
21,38,7,25
21,38,7,25
21,38,7,24
21,38,6,24
21,37,7,24
22,37,7,24
22,37,7,24
22,37,7,24
21,36,7,24
21,36,7,24
21,36,7,24
21,35,7,24
21,35,7,25
21,35,7,24
20,35,7,24
20,35,7,24
20,35,7,24
20,35,6,24
21,35,7,24
20,35,7,24
20,34,7,24
20,34,7,23
20,34,7,23
20,34,7,23
20,34,7,23
20,34,7,23
19,33,7,24
19,38,7,23
19,38,7,23
19,37,7,22
19,37,7,23
19,37,7,22
19,37,7,22
19,37,7,22
19,36,7,22
19,36,7,22
19,36,7,22
18,57,7,22
18,81,7,21
18,80,7,21
18,79,7,21
18,79,6,21
35,79,7,21
37,78,7,21
37,78,7,21
37,78,7,21
37,77,7,21
36,77,8,21
36,77,7,20
36,76,7,20
35,76,7,20
35,76,7,20
35,76,7,20
35,171,7,20
35,263,7,22
35,311,7,21
35,307,7,21
34,306,7,21
35,304,7,21
103,303,7,21
117,301,9,21
115,299,8,21
115,297,9,20
114,295,9,20
113,294,8,20
112,292,8,20
112,290,7,20
111,289,7,19
110,287,7,19
110,286,7,19
109,284,7,19
108,283,8,19
109,281,8,19
108,280,8,19
107,278,7,19
107,277,7,19
106,275,7,19
105,274,7,19
105,272,7,19
103,271,7,19
103,270,7,18
103,269,7,18
103,267,7,18
103,266,7,18
102,265,10,18
102,263,10,18
101,262,9,17
100,261,9,18
99,259,9,17
99,258,9,18
99,257,9,17
99,255,9,17
158,254,9,17
161,253,9,17
159,252,9,17
159,271,9,17
158,377,9,17
157,487,12,17
156,608,12,16
155,618,11,16
154,613,11,16
153,607,11,16
153,602,11,16
152,595,11,16
151,591,11,16
151,588,10,16
149,582,11,16
149,579,11,16
147,573,11,16
147,569,11,15
146,566,11,15
145,561,11,15
145,569,11,15
143,767,10,15
143,884,10,15
143,871,10,16
142,861,10,15
141,853,10,15
140,843,10,15
140,835,10,15
139,824,10,15
138,817,10,15
137,810,10,15
137,801,10,15
135,886,10,15
135,907,9,14
135,911,10,19
135,915,9,19
134,917,9,19
133,920,9,19
133,920,9,19
132,921,9,19
135,923,10,19
224,922,10,19
222,919,10,19
220,896,9,19
219,884,10,18
217,876,10,18
216,865,10,18
215,857,9,18
214,903,9,18
213,910,9,18
212,913,9,18
211,915,9,17
209,912,10,18
225,901,10,18
262,887,10,17
259,875,9,17
257,867,9,17
255,859,10,17
254,849,9,17
252,841,10,18
251,834,9,18
249,886,9,17
248,884,9,17
247,875,9,17
245,866,10,17
244,856,11,17
243,847,11,17
241,838,10,17
241,830,11,17
239,823,10,17
238,814,10,16
237,806,10,18
235,798,10,17
234,792,10,17
233,783,10,17
231,777,10,17
231,770,12,17
229,762,13,17
228,755,12,17
227,748,12,16
226,743,12,17
224,737,12,16
224,729,12,16
222,724,12,18
221,717,12,17
231,711,12,17
230,745,12,17
228,883,12,17
271,875,15,17
291,862,16,16
290,854,15,17
287,844,15,16
286,836,15,16
284,829,15,16
283,819,15,16
281,812,15,16
280,802,15,15
278,796,15,16
276,787,14,16
275,780,15,15
273,774,16,15
271,765,16,15
271,759,16,15
269,751,15,15
268,745,15,15
266,739,16,15
265,732,15,15
263,726,15,15
262,718,15,15
261,713,15,15
259,706,15,14
286,701,16,14
385,696,19,15
381,689,19,14
378,685,19,14
376,678,19,14
374,674,18,14
371,669,19,14
369,664,18,15
366,659,18,15
364,652,18,15
362,647,18,14
359,643,18,14
358,638,20,14
355,634,21,14
354,629,20,14
352,624,20,14
350,619,20,14
348,615,19,14
346,611,19,14
344,606,19,17
342,602,19,16
339,597,19,16
338,594,19,16
336,589,19,16
334,585,24,15
333,582,24,16
331,577,23,15
329,574,23,15
327,569,23,15
326,566,22,15
323,563,22,18
322,558,22,19
319,555,22,19
319,551,22,19
317,547,22,19
315,543,22,19
313,540,23,19
312,537,23,19
311,533,23,19
308,530,23,18
307,526,22,18
304,524,22,18
304,520,22,19
302,516,22,21
301,514,22,20
300,509,21,20
298,507,21,20
295,503,21,20
295,500,25,19
293,498,25,20
291,494,24,19
290,492,24,19
289,487,24,19
287,486,24,19
286,482,24,31
285,480,24,31
284,477,24,30
282,474,24,30
281,472,23,30
280,468,23,30
278,466,24,30
276,463,24,29
275,460,24,29
273,458,24,29
272,455,24,29
271,453,24,29
270,451,24,30
268,448,23,30
267,445,23,30
266,443,22,29
265,441,23,29
381,438,22,29
501,435,23,29
494,433,23,29
490,431,22,29
487,428,22,28
483,425,22,28
480,423,22,28
476,422,22,28
473,487,21,28
471,483,21,28
467,480,21,28
463,477,21,27
461,473,21,27
458,470,21,27
455,467,21,27
452,463,21,27
449,460,21,26
447,457,20,26
444,455,21,27
441,451,19,26
439,448,20,26
435,446,20,26
433,442,19,25
431,440,19,25
428,437,19,25
425,434,19,25
423,432,19,25
421,429,19,25
418,426,19,25
415,423,19,25
414,421,19,25
411,418,19,25
409,415,19,25
407,414,18,24
404,412,19,25
402,409,19,24
399,408,19,24
397,405,19,24
395,403,19,24
393,400,19,24
390,399,18,24
389,396,18,24
387,395,18,33
384,391,18,33
382,391,18,32
380,389,18,31
377,386,18,32
376,385,18,31
374,382,18,31
372,380,18,31
370,379,17,31
368,376,17,31
366,375,17,31
364,372,17,33
363,371,17,36
359,369,17,36
359,408,17,35
357,468,17,35
355,463,16,35
353,461,16,35
351,457,16,35
350,455,16,35
348,451,16,34
345,448,15,34
344,446,15,34
342,442,15,44
340,440,15,45
339,436,15,45
337,434,15,44
335,432,15,44
334,428,15,44
332,425,15,43
330,423,15,43
327,420,15,43
327,418,14,43
325,415,15,42
323,413,14,42
322,409,14,42
320,408,14,42
319,405,14,41
318,403,14,41
316,400,14,41
314,398,14,41
313,396,14,39
311,393,14,39
310,391,14,39
307,389,14,39
306,386,14,39
305,384,14,39
304,382,13,39
302,380,13,39
301,377,13,39
300,376,13,39
298,373,13,39
295,371,13,39
295,369,13,38
293,367,13,38
292,366,13,38
291,364,13,38
289,361,13,37
287,359,13,37
286,358,13,37
323,356,12,37
384,354,12,36
381,353,12,37
379,351,13,36
376,349,12,36
374,348,12,35
371,345,12,35
369,344,12,35
367,343,12,35
365,341,12,35
377,339,12,35
485,337,12,35
545,335,11,35
540,334,12,34
536,333,11,34
531,332,11,34
527,329,12,34
524,327,11,34
519,327,11,34
516,325,11,34
513,323,11,34
509,322,11,33
505,319,11,33
502,319,11,33
499,317,11,33
496,316,11,33
492,314,10,32
489,313,10,33
486,312,10,32
483,310,10,31
480,308,10,31
477,307,10,31
474,306,10,32
472,304,9,82
468,303,10,122
465,301,9,121
463,300,9,120
460,299,9,119
457,297,9,118
454,295,9,117
451,295,9,116
448,293,9,116
446,292,9,115
443,291,9,114
441,289,9,114
438,287,9,114
455,287,9,129
490,285,9,127
487,284,9,127
486,283,9,126
637,282,9,125
750,280,9,125
742,280,9,124
734,278,9,123
728,276,9,123
721,275,8,122
714,274,8,121
708,272,8,121
702,271,7,120
696,270,8,120
691,269,7,119
684,268,7,119
679,267,7,118
673,265,9,117
668,263,9,116
663,263,9,116
657,262,9,115
652,261,9,115
647,260,9,114
642,259,9,114
637,258,9,113
632,255,9,113
627,255,7,112
623,254,7,112
619,253,14,111
614,252,28,110
609,251,28,110
604,249,28,109
600,248,28,109
595,248,28,108
591,246,27,108
587,245,27,107
582,243,27,106
578,243,27,107
574,242,27,105
569,241,26,105
566,240,27,105
561,238,26,103
558,238,26,103
554,236,25,103
550,236,25,103
546,234,25,102
543,233,25,101
539,231,25,101
536,231,25,100
531,230,25,99
528,229,25,99
525,229,24,99
521,227,24,98
547,226,24,98
542,225,24,97
539,224,24,97
535,224,24,96
531,223,24,96
527,222,24,96
523,221,24,95
519,220,23,94
516,219,23,94
513,218,23,94
510,217,24,94
507,216,22,93
504,216,22,92
500,214,23,92
497,214,22,92
494,212,22,91
491,211,22,91
487,211,22,90
485,210,22,90
482,209,21,89
480,207,21,89
476,207,21,89
474,207,21,88
472,206,21,88
469,205,20,88
466,204,20,87
463,203,20,87
460,202,20,86
457,201,20,86
455,200,19,86
452,199,20,85
450,199,19,85
448,198,20,84
445,197,19,84
443,197,22,83
440,195,22,83
438,195,21,83
435,194,21,82
433,193,22,82
431,193,21,82
428,192,21,81
426,191,21,81
423,190,20,80
421,189,20,80
419,189,20,79
416,188,23,79
415,187,28,79
412,187,27,79
410,185,26,78
408,185,27,78
406,184,26,77
403,184,26,77
401,183,26,77
399,182,26,77
397,181,25,76
396,181,25,76
393,179,25,76
391,179,35,75
389,178,41,75
387,177,41,74
385,177,40,74
384,176,39,74
381,175,39,73
379,175,39,73
377,174,39,73
375,173,39,73
374,173,39,71
371,172,39,71
370,171,39,71
368,171,38,71
366,170,38,71
364,169,38,70
362,167,38,70
359,167,37,70
359,167,37,69
357,167,37,69
355,166,37,69
353,165,37,69
352,164,36,68
350,164,36,68
348,163,35,67
347,162,35,67
345,162,35,67
344,161,35,67
342,161,35,66
339,159,35,67
338,159,35,66
336,159,34,66
335,158,34,65
333,157,34,65
332,157,34,64
330,156,33,64
329,156,33,64
327,155,33,63
326,154,33,63
324,153,33,63
323,153,33,63
321,153,32,62
319,152,32,62
318,152,31,67
317,151,31,67
315,150,31,67
313,150,31,67
312,149,31,66
311,149,31,66
309,147,31,66
307,147,31,65
306,147,30,65
305,146,30,65
304,145,30,64
302,145,30,63
301,144,30,63
299,143,30,63
298,143,29,63
295,143,29,63
295,142,29,62
294,142,29,62
292,141,29,62
291,140,29,61
290,140,29,61
288,140,28,61
287,139,28,60
286,138,28,60
284,138,28,60
283,137,28,60
282,137,28,59
281,135,27,59
280,135,27,59
278,135,27,59
277,135,27,58
275,134,27,58
274,133,27,58
273,133,26,57
271,132,26,57
271,131,26,57
270,131,26,57
268,131,26,56
267,130,25,56
266,130,26,56
265,129,25,56
263,129,25,56
263,128,25,55
261,127,25,55
260,127,25,55
259,126,25,55
258,126,25,54
257,125,24,54
255,125,25,53
254,124,24,53
253,124,24,53
252,124,24,53
251,123,24,52
250,123,24,52
249,122,24,52
248,121,24,51
247,121,24,51
246,121,24,51
245,120,24,51
243,120,24,51
243,120,23,50
242,119,23,50
240,119,22,50
240,118,22,50
239,118,22,50
237,117,22,49
236,117,22,49
236,116,22,49
234,115,22,49
233,115,22,48
231,115,22,48
231,114,21,48
231,114,21,48
230,113,21,48
228,113,21,47
227,112,20,47
226,112,21,47
225,112,21,47
224,111,20,47
224,110,20,46
223,110,20,46
222,110,20,46
221,110,20,46
220,109,20,45
219,109,19,45
218,108,19,45
217,108,19,45
216,108,19,44
216,107,19,45
215,107,19,44
214,106,19,44
213,106,19,44
211,105,19,44
211,104,19,43
210,103,19,44
209,103,18,43
207,103,18,43
207,103,18,43
206,103,18,42
206,102,18,42
205,102,18,42
204,102,18,41
203,101,18,41
202,101,18,41
201,100,17,41
201,100,17,41
199,99,17,41
199,99,17,39
198,99,17,39
198,98,17,39
197,98,16,39
195,98,17,39
195,97,18,39
194,97,17,39
193,97,17,39
192,96,17,39
192,96,17,39
192,96,17,39
190,95,17,38
190,95,17,39
189,95,17,38
188,94,16,38
188,94,16,38
187,93,17,38
186,93,16,38
185,93,16,38
184,93,16,37
184,92,16,37
184,92,15,37
183,91,15,37
182,91,15,36
181,91,15,36
180,90,15,36
179,90,15,36
179,90,15,36
178,89,15,35
177,89,15,35
177,89,15,35
176,89,15,35
176,88,15,35
175,88,15,35
174,88,15,34
173,88,14,35
173,87,14,35
172,86,14,34
172,86,14,34
171,86,14,34
170,85,14,34
169,85,14,33
169,85,14,33
167,85,14,33
167,85,14,33
167,84,14,33
166,83,14,33
166,83,13,32
165,83,13,32
164,83,13,32
163,82,13,32
163,82,13,31
163,81,13,31
162,81,13,31
161,81,13,31
160,81,13,31
159,80,13,31
159,80,13,31
159,79,12,31
158,79,12,31
158,97,12,31
157,130,12,31
156,138,12,30
156,137,12,30
155,135,12,30
155,135,12,30
154,135,12,30
153,134,12,30
153,133,12,30
152,132,12,29
152,131,12,29
151,131,11,29
150,130,12,29
150,130,12,29
149,129,11,29
148,128,11,28
147,127,11,28
147,127,11,28
146,126,11,28
179,126,11,28
199,125,11,28
199,124,11,28
198,124,10,28
197,123,10,27
195,122,11,27
195,122,10,27
193,121,10,27
192,121,10,27
191,120,10,27
190,120,10,27
189,119,10,26
188,119,10,26
187,118,10,26
186,117,9,26
185,117,10,26
184,116,9,25
184,115,9,25
183,115,9,26
181,114,9,25
181,114,9,25
179,113,9,25
179,113,9,25
178,112,9,25
177,112,9,25
176,111,9,25
176,111,9,24
174,110,9,24
174,110,9,98
173,109,9,189
172,109,9,280
172,108,8,345
170,108,7,342
169,107,9,339
169,107,8,337
167,106,9,335
167,105,9,332
166,105,8,330
165,103,7,327
165,103,7,327
164,103,7,325
163,103,7,323
162,103,7,321
161,102,7,319
160,101,7,317
159,101,7,316
159,101,7,313
158,100,7,312
158,99,7,310
157,99,7,309
156,99,7,307
156,98,7,306
155,98,7,304
155,97,7,302
153,97,7,301
153,96,7,300
152,96,7,299
152,96,7,295
151,95,7,295
150,95,7,294
194,94,7,292
193,94,7,291
192,93,7,289
191,93,7,287
190,93,7,287
189,92,7,285
188,92,7,284
187,91,7,283
186,91,7,281
185,91,7,280
184,90,7,279
184,89,7,277
182,89,7,276
181,89,7,274
180,89,7,273
179,88,7,271
179,88,7,271
178,88,7,270
177,88,7,268
176,87,7,267
175,86,6,266
174,86,7,263
173,85,7,263
173,85,6,262
172,85,7,261
171,84,6,259
170,84,6,259
169,83,6,257
167,83,6,256
167,83,6,255
167,83,6,254
166,82,6,253
165,82,6,252
165,81,6,250
163,81,6,249
163,81,6,248
162,80,6,247
161,80,6,246
161,80,6,245
159,79,6,243
159,79,6,243
159,79,6,241
158,79,6,240
157,78,6,240
156,78,6,238
156,78,6,238
155,78,6,236
154,77,6,235
153,76,6,234
153,76,6,233
152,76,6,231
152,76,6,231
151,76,5,231
150,75,5,229
150,75,6,228
149,75,5,227
148,75,5,227
147,74,5,225
147,73,5,224
146,73,5,223
145,73,5,223
145,73,6,222
144,72,6,221
143,71,6,220
143,71,6,219
143,71,6,217
142,71,6,217
142,71,6,216
141,71,6,216
141,71,6,214
140,70,6,213
139,70,6,212
139,70,6,211
138,70,6,211
137,69,7,209
137,69,7,209
137,69,7,207
135,69,7,207
135,68,7,206
135,68,7,205
135,67,6,205
135,67,7,204
134,67,7,203
133,67,7,202
133,67,6,201
132,66,6,199
131,66,7,199
131,66,7,199
130,66,7,198
130,65,6,197
129,65,7,196
129,65,6,195
128,64,6,195
127,64,7,194
127,64,6,193
127,64,7,192
126,63,6,192
126,63,6,191
126,63,7,190
125,63,7,189
124,63,7,188
124,62,7,188
124,62,7,187
123,62,7,186
123,61,7,185
122,62,7,185
121,61,7,184
121,61,7,183
121,61,6,183
120,61,7,181
120,61,7,180
120,60,6,179
119,60,6,179
119,60,7,178
118,60,7,178
118,59,6,177
117,59,6,176
117,59,6,176
116,58,6,175
115,58,6,174
115,58,6,174
115,57,6,173
115,57,6,172
114,57,6,171
113,57,6,171
113,57,6,170
113,57,6,169
112,56,6,169
112,56,6,167
112,56,6,167
111,56,6,167
110,56,5,166
110,56,6,165
110,56,5,165
109,55,5,164
109,55,5,163
109,54,5,163
108,54,5,162
108,54,5,161
107,54,5,160
107,54,5,160
106,54,5,159
106,53,5,159
105,53,5,158
105,53,5,157
105,53,5,157
103,52,5,156
103,52,4,156
103,52,4,155
103,51,4,155
103,51,4,154
102,51,5,153
102,51,4,153
102,51,4,152
101,51,4,152
101,51,4,151
101,50,4,150
100,50,5,150
100,50,5,149
99,50,4,149
99,50,4,147
99,49,4,147
98,49,4,147
98,49,4,146
98,49,4,146
97,49,4,145
97,48,4,145
96,48,4,144
96,48,4,143
96,48,3,143
96,48,3,143
95,48,3,142
95,47,3,141
94,47,3,141
94,47,3,141
94,47,3,140
93,47,3,139
93,46,3,139
93,46,3,139
92,46,3,138
92,46,3,137
92,46,3,137
92,46,3,137
91,46,3,135
91,45,3,135
90,45,3,135
90,45,3,135
89,45,3,134
89,44,3,134
89,45,3,133
89,44,3,132
89,44,3,131
88,44,3,131
88,44,3,131
88,44,3,130
87,44,3,130
87,44,3,129
87,43,3,129
86,43,3,128
86,43,3,128
86,43,3,127
85,43,3,127
85,42,3,127
85,42,3,126
84,42,3,125
84,42,3,125
84,42,3,125
83,41,3,125
83,41,3,124
83,41,3,124
82,41,3,123
83,41,3,123
82,41,3,122
82,39,3,121
81,40,3,121
81,39,3,120
81,39,2,120
81,39,2,120
80,39,2,120
79,39,2,119
79,39,2,119
79,39,2,118
79,39,2,118
79,39,2,117
78,39,2,117
78,39,3,116
78,39,2,115
78,38,2,115
77,39,2,115
78,38,2,115
77,38,2,114
77,38,2,114
76,38,2,114
76,37,2,113
76,37,2,113
76,37,2,112
75,37,2,112
75,37,2,111
75,37,2,111
74,37,2,111
74,36,2,110
74,36,2,110
73,36,2,109
73,36,2,109
73,36,2,108
73,36,2,108
72,35,2,108
71,35,2,108
71,35,2,107
71,35,2,107
71,35,2,107
71,35,2,106
71,35,2,105
71,35,2,105
71,35,1,103
70,35,2,103
70,34,1,103
70,34,1,103
69,34,2,103
69,34,1,103
69,34,1,103
69,33,1,102
69,33,1,101
68,33,1,102
68,33,1,101
67,33,2,101
67,33,1,100
67,33,2,99
67,33,1,99
66,32,1,99
66,32,1,99
66,32,2,98
66,32,1,98
66,31,1,97
65,31,1,97
65,31,1,97
65,31,1,97
65,31,1,96
65,31,2,96
64,31,2,96
64,31,2,96
64,31,2,95
63,31,2,95
63,31,2,94
63,31,2,94
63,30,2,94
63,30,2,94
62,30,2,93
62,30,2,93
62,30,2,93
62,30,2,92
62,30,2,92
61,30,2,91
61,30,2,91
61,30,2,91
61,30,2,90
60,29,2,90
61,29,2,90
60,29,2,89
60,29,2,89
60,29,2,89
60,29,2,89
60,29,2,89
59,29,2,88
59,28,1,88
59,28,2,88
59,28,2,88
58,28,2,88
58,28,1,86
58,28,1,86
58,28,2,86
57,28,1,86
57,27,2,86
57,27,2,85
57,28,2,85
57,27,1,84
56,27,2,84
56,27,1,84
56,27,1,83
56,27,1,83
56,27,1,83
56,26,2,83
56,26,1,82
56,27,1,82
55,26,1,82
55,26,1,82
55,26,2,81
55,26,1,81
54,26,2,81
54,26,1,80
54,26,1,80
54,25,1,80
54,25,1,79
53,25,1,79
53,25,1,79
53,25,1,79
53,25,1,79
52,25,1,78
52,25,1,78
52,24,1,78
51,25,1,77
51,24,1,77
51,24,1,77
51,24,1,77
51,24,1,77
51,24,1,76
51,24,1,76
50,24,1,76
50,24,1,76
50,24,1,75
50,24,1,75
50,24,1,75
50,24,1,74
50,24,1,74
50,24,1,74
49,23,1,73
49,24,1,73
49,23,1,73
48,23,1,73
48,23,1,73
48,22,1,72
48,23,1,71
48,22,1,71
48,22,1,71
48,22,1,71
48,22,1,71
47,22,1,71
47,22,1,70
47,22,1,70
47,22,1,70
46,22,1,70
46,22,1,70
46,22,1,69
46,21,1,69
46,22,1,69
46,21,1,69
46,21,1,68
46,21,1,68
46,21,1,68
45,21,1,68
45,20,1,67
45,21,1,67
45,21,1,67
44,20,1,67
44,20,1,67
44,20,1,66
44,20,1,66
44,20,1,66
44,20,1,65
43,20,1,65
44,20,1,65
43,19,1,65
43,20,1,64
43,20,1,64
43,19,1,63
43,19,1,64
42,19,1,63
43,19,1,63
42,19,1,63
42,19,1,63
42,19,1,63
41,19,1,63
41,19,1,62
41,19,1,62
41,19,1,62
41,19,1,62
41,19,1,62
40,19,1,62
41,19,1,61
39,18,1,61
39,18,1,60
39,18,1,61
39,18,1,60
39,18,1,60
39,18,1,60
39,18,1,60
39,18,1,60
39,18,1,59
39,18,1,59
39,17,1,59
39,17,1,59
39,17,1,59
39,17,1,58
38,17,1,58
38,17,1,57
38,17,1,58
38,17,1,57
38,17,1,57
38,17,1,57
38,16,1,57
37,17,1,56
37,17,2,57
37,16,1,56
37,16,1,56
37,16,2,56
36,17,2,56
37,16,1,56
36,16,1,56
36,16,1,55
36,16,1,55
36,15,1,55
36,16,1,54
36,16,1,54
35,15,1,54
35,15,1,54
35,15,2,54
35,15,1,54
35,15,1,53
35,15,2,53
35,15,1,53
35,15,1,53
35,15,1,52
34,15,1,52
34,15,1,52
34,15,1,52
34,15,1,51
34,15,1,51
34,14,2,51
34,15,1,51
33,15,1,51
33,14,1,51
33,15,1,51
33,14,2,50
33,14,1,50
33,14,2,50
33,14,2,50
33,14,1,50
33,14,1,50
32,14,1,50
31,14,2,49
31,14,1,49
32,14,1,49
31,14,1,48
31,14,1,48
31,14,1,48
31,14,1,48
31,13,2,48
31,13,1,48
31,14,1,48
31,13,1,47
31,13,1,47
31,13,1,47
30,13,1,47
30,13,2,47
31,13,1,47
30,13,1,46
30,13,1,46
30,13,2,46
30,13,1,46
30,13,1,46
30,12,1,46
30,12,1,45
30,13,1,45
29,12,1,45
29,13,1,45
29,12,1,45
29,12,1,45
29,12,2,45
29,12,1,44
29,12,1,44
28,12,1,44
28,12,2,44
28,12,2,44
28,12,2,44
28,12,2,43
28,12,2,43
28,12,2,43
28,12,1,43
28,12,1,43
28,12,2,42
28,12,1,43
27,11,2,42
27,11,2,42
27,11,2,42
27,11,3,41
27,11,3,41
27,11,3,41
27,11,3,41
26,11,3,41
27,11,3,41
27,11,3,41
26,11,3,41
26,11,3,39
26,11,3,40
26,11,3,40
26,11,3,39
25,10,3,39
25,11,3,39
25,10,3,39
25,11,3,39
25,10,3,39
25,10,3,39
25,10,3,39
25,10,3,39
25,10,3,39
25,10,3,39
25,10,3,38
25,10,3,38
25,10,3,38
24,9,3,38
24,10,3,38
24,10,3,38
24,9,3,38
24,9,3,38
24,9,3,38
24,9,3,38
24,9,3,37
24,9,3,37
24,10,2,37
24,9,3,37
23,9,3,36
23,9,3,37
24,9,2,36
24,9,2,36
24,9,3,36
23,9,3,35
23,9,3,35
23,9,3,35
23,9,2,35
23,9,3,35
23,9,3,35
23,9,3,35
22,9,2,35
22,9,2,35
22,8,3,35
22,9,3,34
22,9,2,35
22,9,3,35
22,8,3,34
22,9,3,34
22,9,2,34
22,8,3,34
22,7,3,34
22,8,3,33
21,7,2,33
21,7,2,33
21,7,3,33
21,7,2,33
21,7,2,33
21,7,2,33
21,7,2,33
20,7,2,32
21,7,2,32
21,7,2,32
20,7,2,32
20,7,2,33
20,7,3,32
20,7,2,31
21,7,2,31
20,7,2,31
19,7,2,31
20,7,2,31
19,7,2,31
19,7,2,31
20,7,2,31
19,7,2,31
19,7,2,31
19,7,2,31
19,7,2,30
19,7,2,30
19,7,2,30
19,7,3,30
19,7,2,30
19,7,2,30
19,7,3,30
19,7,2,30
19,7,2,30
19,7,2,29
19,7,2,29
18,7,2,29
18,7,2,30
18,7,2,29
18,7,2,29
18,7,3,29
18,7,2,29
18,7,2,29
18,7,3,29
17,7,2,28
18,6,2,28
17,7,2,28
17,7,2,28
17,6,2,28
17,6,2,28
17,7,2,28
17,6,2,28
17,6,2,28
17,6,2,28
17,6,2,27
17,6,2,27
16,6,2,27
17,6,2,27
17,6,2,27
17,7,2,27
17,6,2,27
17,6,2,27
16,6,2,27
16,6,2,27
16,6,2,26
16,6,2,27
16,6,2,27
16,6,2,26
15,6,2,26
16,6,2,26
16,6,2,26
16,6,2,26
15,6,3,25
15,6,3,25
15,5,3,25
15,5,3,25
16,6,3,25
15,6,3,25
15,5,3,25
15,5,3,25
15,5,3,25
15,5,3,25
15,5,2,25
15,5,3,24
15,5,3,25
15,5,3,24
15,5,2,24
15,5,2,24
15,5,3,24
14,6,2,24
15,5,3,24
15,5,2,24
15,5,3,24
15,5,2,24
15,5,2,24
14,5,3,24
14,5,2,24
14,5,2,23
14,5,2,24
14,5,2,24
14,5,2,23
14,5,2,23
14,5,3,23
14,5,2,23
14,5,2,22
14,4,2,23
14,5,2,23
14,4,2,23
14,5,2,22
14,5,2,22
13,5,2,22
13,4,2,22
13,5,2,22
13,4,2,22
13,4,2,22
13,4,2,22
13,4,2,21
13,5,2,21
13,4,2,22
13,4,2,21
13,4,2,21
13,4,2,21
12,4,2,21
12,4,2,21
13,4,2,22
12,4,2,21
13,4,2,21
12,4,2,21
12,4,2,21
12,4,2,21
12,3,7,20
12,4,10,20
12,4,11,20
12,4,10,20
12,4,10,20
12,3,10,20
12,4,10,20
12,4,10,19
12,3,10,19
12,4,9,19
12,3,9,19
12,3,9,19
12,3,9,19
12,4,9,19
11,3,9,19
11,3,9,19
11,3,9,19
12,3,9,19
11,3,9,19
11,3,9,19
11,3,9,19
11,3,9,19
11,3,9,19
11,3,9,18
11,3,9,19
11,3,8,18
11,3,9,18
11,3,9,18
11,3,9,18
11,3,7,18
11,3,8,18
10,3,7,18
11,3,7,18
11,3,7,18
10,3,7,18
10,3,7,18
10,3,7,17
10,3,7,18
10,3,7,17
10,3,7,17
10,3,7,17
10,3,7,17
10,3,7,17
10,3,7,17
10,3,7,17
10,3,7,17
10,3,7,17
9,3,7,17
10,3,7,17
9,3,7,17
9,3,7,17
9,3,7,16
9,3,7,17
9,3,7,16
9,3,7,16
9,3,7,16
9,3,7,17
9,3,7,16
9,2,7,16
9,3,7,16
9,3,7,16
9,3,7,16
9,3,7,15
9,3,7,16
9,3,7,15
9,2,7,15
9,3,7,15
9,3,7,15
9,2,7,15
9,3,6,15
9,2,7,15
9,2,7,15
9,2,7,15
9,2,7,15
9,2,6,15
8,3,6,15
7,3,6,15
8,2,6,15
7,2,6,15
9,2,6,15
8,2,6,14
9,2,6,14
7,3,6,15
7,2,6,15
7,3,6,14
7,2,6,14
7,2,6,14
7,2,6,14
7,2,6,14
7,2,5,14
7,2,6,14
7,2,6,14
7,2,6,14
7,2,6,14
7,2,6,14
7,2,6,14
7,2,6,14
7,2,6,14
7,2,6,14
7,2,5,14
7,2,6,14
7,2,6,13
7,2,6,13
7,2,5,13
7,2,5,13
7,2,5,13
7,2,6,13
7,2,5,13
7,2,6,13
7,2,5,13
7,2,6,13
7,2,5,13
7,2,5,13
7,2,5,13
7,2,5,13
7,2,5,13
7,2,5,13
7,2,5,13
7,2,5,12
7,2,5,12
7,2,5,12
7,2,5,12
7,2,5,12
7,2,5,12
7,1,5,12
7,2,5,12
7,2,5,12
7,2,5,12
7,2,5,12
6,2,5,12
6,2,5,12
6,2,5,13
7,2,5,13
6,2,5,13
6,2,4,13
6,2,4,13
6,2,4,14
6,2,4,13
6,2,4,13
6,2,5,13
6,2,4,13
6,2,4,13
6,1,4,12
6,2,4,12
6,2,4,13
6,2,5,12
6,2,4,12
6,1,4,13
6,2,4,12
6,2,4,13
6,2,4,12
6,1,4,12
6,2,4,12
6,1,4,12
6,1,4,12
6,1,5,12
6,2,5,12
6,2,5,12
6,1,5,12
5,1,5,12
5,1,5,12
6,1,5,12
6,1,5,12
6,1,5,11
6,1,4,12
6,2,4,11
5,1,5,11
5,1,4,11
5,1,4,11
5,1,5,11
5,1,5,11
5,1,5,11
5,1,5,11
5,1,5,11
5,2,5,11
5,1,5,11
5,1,5,11
5,1,5,11
5,1,4,11
5,1,5,11
5,1,4,11
5,1,4,11
5,1,5,11
5,1,4,10
5,1,4,11
5,1,4,10
5,1,4,10
5,1,4,10
5,1,4,10
5,1,4,11
5,1,4,10
4,1,4,10
5,1,4,10
5,1,4,10
5,1,4,10
5,1,4,10
4,1,4,10
4,1,3,9
5,1,4,9
5,1,4,9
4,1,4,9
5,1,4,9
4,1,5,9
4,1,5,9
4,1,5,9
4,1,4,9
4,1,4,9
4,1,4,9
4,1,4,9
4,1,4,9
4,1,4,9
4,1,4,9
4,1,4,9
4,1,4,9
4,1,4,9
4,1,4,9
4,1,3,9
4,1,3,9
4,1,4,9
4,1,4,9
4,1,4,8
4,1,4,9
4,1,4,9
3,1,4,9
4,1,4,9
4,1,4,8
3,1,3,8
4,1,3,9
4,1,3,9
4,1,4,9
3,1,3,9
4,1,4,9
3,1,3,7
3,1,3,7
4,1,9,8
3,1,10,7
3,1,9,7
3,1,9,7
3,1,9,8
3,1,9,7
3,0,9,7
3,1,9,7
3,1,9,7
3,1,9,7
3,1,9,7
3,1,9,9
3,1,9,7
3,1,9,7
3,1,8,7
3,1,8,7
3,1,8,7
3,1,8,7
3,1,9,7
3,1,9,7
3,1,8,7
3,1,8,7
3,0,7,7
3,1,7,7
3,1,9,7
3,1,8,7
3,1,8,7
3,0,7,7
3,1,7,7
3,1,7,7
3,1,7,7
3,1,7,7
3,1,7,7
3,1,7,7
3,1,7,7
3,1,7,7
3,1,7,7
3,1,7,7
3,1,7,7
3,0,7,7
3,1,7,7
3,1,7,7
3,1,7,7
3,1,7,7
3,1,7,7
3,1,7,7
3,1,7,7
3,1,7,7
2,1,7,7
3,1,7,7
3,1,7,7
3,1,7,6
3,1,7,6
3,0,7,7
3,1,7,7
2,1,7,6
3,1,7,7
3,0,7,6
2,1,7,7
3,0,7,7
3,1,7,7
3,1,7,7
3,1,7,6
2,1,7,6
3,1,7,7
3,1,6,7
2,1,7,7
2,1,6,7
2,0,7,7
2,0,6,7
2,1,6,6
2,0,6,7
2,1,6,6
2,1,6,6
3,1,6,7
2,0,6,6
2,0,6,6
2,1,6,6
2,0,6,7
2,0,6,7
2,0,6,7
2,1,6,7
2,1,6,6
