68,82,26,17
68,82,26,17
67,81,26,17
67,81,25,16
67,80,26,16
67,79,25,20
66,79,25,20
66,79,25,20
65,79,25,20
65,78,25,19
65,78,24,19
65,78,25,19
69,77,26,19
68,77,26,19
68,77,25,19
67,77,25,19
67,76,25,19
67,76,25,19
67,76,25,25
66,75,25,25
66,75,25,24
66,75,25,24
65,74,25,24
65,74,24,24
65,73,24,24
66,73,24,24
66,73,24,24
66,73,24,24
65,71,24,24
65,71,24,23
65,71,24,23
64,71,24,23
64,71,23,22
63,71,24,22
63,70,23,22
63,70,23,22
63,70,23,22
62,70,27,22
65,69,31,22
65,69,30,22
64,68,31,22
63,68,30,22
63,67,30,21
63,67,30,25
63,69,30,25
62,83,30,24
62,82,30,24
62,82,29,24
62,81,29,24
61,81,29,24
61,81,29,24
64,80,29,24
63,79,29,24
63,79,29,24
63,79,29,23
63,79,29,23
63,78,28,23
63,78,28,24
62,77,28,25
62,77,28,25
62,77,28,25
61,76,28,24
61,76,28,25
61,76,28,24
67,75,27,24
67,75,27,24
67,75,27,24
66,74,27,24
66,74,27,24
65,73,26,24
65,73,27,24
65,73,26,24
65,73,26,24
64,71,26,24
63,71,26,23
63,71,26,23
63,71,27,23
69,71,30,23
69,71,29,23
68,70,29,22
68,70,29,22
67,70,29,22
67,69,28,22
67,69,28,21
67,69,28,22
67,69,28,21
66,69,28,21
66,68,28,22
65,68,28,21
65,67,28,21
69,67,29,21
68,67,28,21
68,66,28,20
67,66,28,21
67,66,28,20
67,65,28,20
67,65,28,20
66,65,28,20
66,65,27,20
66,65,27,19
65,65,27,19
65,64,27,19
64,63,27,19
66,63,29,19
65,63,29,19
65,63,29,19
65,63,29,19
65,62,28,19
64,62,29,19
64,62,28,28
63,62,28,31
63,62,28,31
63,61,28,31
63,61,28,31
62,61,28,30
62,61,27,30
68,60,28,30
68,60,28,30
67,60,28,30
67,60,28,29
67,59,28,29
67,59,28,29
66,59,27,29
66,83,27,29
65,81,27,29
65,82,27,29
65,81,27,28
64,80,26,28
64,80,26,28
73,79,27,28
71,79,27,28
71,79,27,28
71,78,27,28
71,78,26,27
71,78,27,28
70,77,27,27
70,77,26,27
70,77,26,27
69,76,26,26
69,76,25,27
68,75,25,27
68,75,25,26
67,75,26,26
67,75,25,26
67,74,25,26
67,73,25,26
67,73,25,25
66,73,25,25
66,71,25,25
65,73,25,25
65,71,25,25
65,71,25,25
65,71,24,25
64,71,24,25
63,71,24,24
79,70,25,25
84,70,25,25
83,70,25,24
83,69,25,24
83,69,24,24
83,69,24,24
82,69,24,24
81,68,24,24
81,68,24,24
81,67,24,24
80,67,24,23
79,67,24,24
79,67,24,24
79,67,26,23
79,66,26,23
79,66,25,23
78,95,25,22
78,123,25,22
77,121,25,22
77,167,25,22
76,166,25,22
76,164,24,22
76,163,24,22
75,162,24,21
75,161,24,22
75,161,24,21
79,159,26,21
79,159,26,21
79,158,25,21
78,157,25,21
78,156,25,21
78,207,25,21
78,299,25,21
77,302,24,20
76,300,25,20
76,297,24,20
76,322,24,20
107,337,24,19
133,334,29,19
131,332,29,19
131,329,29,19
130,327,28,19
129,326,29,19
128,323,28,19
127,322,28,19
127,393,28,18
126,396,28,19
125,391,28,19
125,390,27,19
124,387,27,18
123,384,28,18
123,382,27,18
122,379,27,18
121,377,27,18
121,375,27,18
120,372,27,19
120,370,26,22
119,368,26,22
119,366,26,22
118,363,25,21
117,361,25,22
116,359,26,21
147,357,28,21
146,355,28,21
145,353,28,20
144,351,27,21
143,349,27,21
142,347,27,20
142,345,26,20
141,344,26,20
140,342,26,20
140,339,26,20
139,337,26,19
138,335,27,19
138,334,27,19
137,332,27,19
135,330,27,19
135,329,26,19
135,327,26,19
134,326,26,36
134,323,25,36
133,322,26,35
132,319,26,35
131,318,25,35
131,316,25,35
130,315,31,34
129,313,31,34
129,312,30,34
127,310,30,34
127,308,30,33
127,331,30,33
126,446,29,33
126,559,29,33
125,630,29,33
125,657,29,33
124,649,28,33
123,643,29,32
122,639,29,32
121,632,29,31
121,627,29,31
121,622,28,31
120,617,28,31
120,611,28,31
119,608,28,31
118,603,28,31
118,598,28,31
117,594,28,31
116,588,27,31
115,585,29,31
115,581,30,30
115,575,30,30
117,572,29,30
116,568,29,30
116,563,29,30
115,559,29,30
115,556,28,29
115,551,29,29
113,547,28,29
113,544,28,29
113,540,28,29
112,537,35,28
112,534,34,28
111,529,34,28
110,526,34,28
110,523,34,28
109,519,33,28
108,515,34,27
108,512,33,27
108,509,33,27
107,505,33,27
107,503,33,27
106,499,32,26
106,496,33,27
105,493,33,26
105,489,33,26
103,487,33,26
103,483,33,25
103,480,31,26
103,477,31,26
102,475,31,26
102,472,31,26
101,469,31,26
101,466,31,26
134,463,31,26
237,461,33,25
291,459,33,25
287,455,33,25
286,452,32,25
284,449,33,25
283,447,32,25
281,444,32,24
280,442,31,24
277,440,31,24
275,436,31,24
274,435,31,24
273,432,31,24
271,430,35,24
270,428,34,24
268,423,34,24
267,423,34,24
265,419,34,24
263,417,34,24
262,415,33,23
261,413,33,23
259,411,33,23
258,408,32,22
257,406,32,23
255,403,35,22
254,402,38,22
252,399,37,22
251,446,37,22
250,443,37,22
249,439,37,22
248,435,36,22
247,433,36,21
245,430,36,21
243,428,35,21
243,423,35,21
241,423,35,21
240,419,37,20
239,417,37,20
238,415,37,20
237,412,37,20
235,409,37,20
234,407,36,19
233,404,36,20
231,401,36,20
231,399,36,19
230,397,35,19
228,441,35,19
227,575,35,19
333,589,36,19
430,584,35,19
425,580,35,19
422,575,35,19
419,571,35,19
415,566,35,19
413,562,35,19
411,557,35,19
408,553,35,19
405,550,34,19
403,545,34,19
399,542,35,19
398,537,39,19
396,534,39,19
393,531,38,18
391,526,38,19
388,524,38,18
386,519,38,18
384,516,38,18
382,511,37,19
380,508,37,18
377,505,37,19
376,533,37,18
373,529,38,18
371,525,39,18
369,521,39,18
367,518,39,18
364,513,38,18
363,510,38,17
361,506,38,18
359,503,37,18
357,499,37,18
355,496,37,18
353,493,37,17
351,489,37,18
349,487,41,17
366,483,42,17
364,480,41,17
361,478,41,17
359,474,41,17
357,472,41,17
355,468,41,25
353,466,39,24
351,463,39,24
348,460,39,24
347,457,39,24
345,455,39,24
385,451,39,24
423,448,39,24
419,446,39,24
417,444,39,23
414,441,39,23
412,439,38,23
409,435,38,25
406,433,38,25
403,431,37,24
401,428,38,24
399,426,37,24
396,423,37,24
394,421,38,24
391,418,38,24
390,415,37,24
387,414,37,24
385,411,36,23
382,409,37,23
380,407,36,23
377,404,36,23
376,402,35,23
374,399,35,23
371,398,35,22
369,396,35,22
469,393,35,22
464,391,35,22
461,389,35,22
458,387,34,21
455,385,34,22
451,383,34,22
449,380,34,21
446,379,34,22
443,441,33,21
440,438,33,21
468,435,33,21
608,431,33,21
639,428,33,21
633,425,33,20
627,423,32,20
622,419,32,20
617,417,31,20
612,415,31,20
608,412,31,20
603,409,31,20
598,407,31,20
593,405,31,19
589,402,31,19
585,399,31,19
581,397,31,19
575,395,31,19
572,391,31,19
568,390,31,19
564,387,30,19
561,385,30,33
556,383,30,33
553,381,30,33
549,379,30,33
545,377,30,32
541,375,30,31
538,372,30,31
534,371,29,31
531,368,29,31
527,367,29,31
524,364,29,31
520,363,28,31
518,361,28,38
513,359,28,38
510,358,28,37
507,355,28,37
504,354,28,37
501,352,28,37
497,350,28,36
494,348,27,36
491,346,27,36
487,345,27,35
485,344,27,36
482,344,27,35
480,453,27,35
477,448,27,35
474,446,27,35
472,441,26,35
468,440,26,34
465,436,29,34
463,433,30,34
460,431,29,34
457,427,29,34
455,425,29,33
451,422,29,33
449,419,28,33
447,417,28,33
444,414,28,33
442,412,28,32
440,409,28,32
437,407,28,31
434,405,29,32
432,401,29,31
429,399,29,31
427,397,29,31
423,395,28,31
423,391,28,31
419,390,28,31
500,388,28,31
575,507,28,31
572,503,27,30
567,498,27,30
563,495,28,30
558,492,32,30
554,487,31,29
550,485,31,29
546,481,31,29
542,478,31,29
539,474,31,29
536,472,31,30
531,469,31,29
527,465,31,29
524,462,30,29
558,459,30,29
699,455,31,29
691,454,31,29
684,451,31,28
679,448,30,28
672,445,31,28
667,442,30,28
662,440,30,29
655,436,30,31
651,434,30,31
646,431,29,31
639,429,29,31
635,425,29,31
631,423,35,31
626,421,35,31
621,419,35,31
615,415,35,30
647,414,35,30
678,411,35,30
671,408,34,30
665,406,34,30
660,404,33,30
655,401,34,29
650,399,33,29
644,397,33,28
639,395,33,28
634,391,33,28
629,390,32,28
625,388,32,28
620,386,33,31
615,384,31,47
611,381,31,75
606,379,31,73
601,377,31,73
597,375,31,71
592,373,31,71
588,371,31,71
584,369,31,71
580,367,31,70
575,365,31,70
572,363,31,69
568,361,30,69
564,359,30,69
560,357,30,69
557,355,30,67
553,353,30,68
549,352,29,67
546,350,29,67
542,348,30,66
539,346,36,66
535,344,36,66
531,342,35,65
528,341,35,65
525,339,35,65
521,337,35,64
518,335,35,64
515,334,34,63
511,332,34,63
508,331,34,63
505,329,34,63
502,327,34,62
499,326,33,62
496,324,33,62
492,323,33,61
489,321,33,61
487,319,33,61
484,318,32,60
481,316,32,60
478,315,31,60
475,313,31,60
472,312,31,60
470,311,31,59
467,308,31,59
463,307,31,59
462,306,31,58
459,304,31,58
455,303,31,57
454,302,31,57
451,300,30,57
448,299,30,57
446,297,30,56
444,295,30,56
441,295,30,56
438,293,30,56
435,291,31,55
433,291,31,55
431,289,31,55
429,287,31,55
426,287,31,54
423,285,31,54
422,284,30,54
419,283,30,53
417,281,30,53
415,280,30,53
412,279,30,53
411,277,30,52
408,275,31,51
406,275,31,51
403,273,30,51
401,271,30,51
399,271,29,51
397,270,29,51
395,268,29,50
393,267,29,50
391,266,29,50
389,265,29,50
387,263,29,49
385,263,29,49
384,261,30,49
381,260,30,49
379,259,29,48
377,258,29,48
376,257,29,48
374,255,28,48
371,254,28,48
369,253,28,47
368,252,28,47
366,251,28,47
364,249,28,47
362,249,33,46
359,248,33,46
359,247,33,46
357,245,33,46
355,244,33,45
353,243,32,45
352,242,32,45
350,241,31,45
348,240,31,45
347,239,31,44
344,238,31,44
344,237,31,44
341,236,31,43
339,235,31,43
338,234,31,43
336,231,31,43
335,231,30,43
333,231,31,47
332,230,31,53
330,229,31,52
327,227,30,51
327,227,30,51
325,226,30,51
324,225,30,51
322,224,30,50
321,223,29,50
319,222,30,50
318,221,29,50
316,220,29,49
315,219,29,49
313,218,29,49
312,217,29,49
310,216,28,48
309,216,28,48
307,215,28,48
306,214,29,48
304,213,30,47
303,211,29,47
302,211,29,47
300,210,29,47
299,209,29,46
297,207,29,46
295,207,29,46
295,206,28,46
293,205,28,45
292,205,28,45
291,204,28,45
289,203,29,44
287,202,29,45
287,201,28,44
285,199,28,44
284,199,28,44
283,199,28,43
281,198,28,43
280,197,28,43
280,196,27,43
278,195,27,43
276,195,27,42
275,194,27,42
274,193,27,42
273,192,27,41
271,192,27,41
270,191,27,41
269,190,27,41
268,189,27,41
267,188,26,40
265,188,26,39
263,187,26,39
263,185,25,39
262,185,25,39
261,185,25,39
259,184,25,39
259,183,25,39
257,182,25,39
256,181,25,39
255,181,25,39
254,179,25,38
253,179,25,38
252,178,25,38
251,177,24,38
249,177,24,37
248,176,24,37
248,176,24,37
246,175,25,37
245,174,24,36
244,173,24,36
243,173,24,36
242,172,24,36
241,171,24,35
240,170,24,36
239,169,23,35
238,169,23,35
237,167,23,35
236,167,23,35
235,167,25,35
233,166,25,35
233,166,25,34
231,165,25,34
231,164,25,34
230,163,25,34
229,163,24,34
227,163,24,34
227,162,24,33
226,161,24,33
225,161,24,33
224,159,24,33
223,159,25,33
222,158,25,32
221,158,25,32
220,157,25,32
220,156,25,31
218,156,25,31
217,155,25,31
217,155,25,31
216,154,24,31
215,153,24,31
214,153,24,31
213,152,24,31
211,152,24,31
211,151,24,30
210,150,24,30
209,149,24,30
207,149,24,30
207,148,24,30
207,148,24,30
206,147,24,30
205,147,23,29
204,146,23,29
203,145,23,29
202,145,25,29
201,144,26,29
199,143,25,29
199,143,25,28
199,143,25,28
199,142,25,28
197,141,25,28
197,141,25,30
195,140,24,30
195,140,24,29
194,139,24,29
193,138,24,29
193,138,24,29
192,137,24,28
191,137,24,28
190,135,24,28
189,135,24,28
188,135,24,28
188,135,24,28
187,134,24,28
186,134,24,28
185,133,24,27
184,133,23,27
184,132,23,27
183,131,28,27
182,131,28,27
182,130,28,27
181,130,28,27
180,129,27,26
179,129,27,26
179,127,27,26
178,127,27,26
177,127,27,26
176,127,26,25
176,126,26,25
175,125,26,25
174,125,27,25
174,125,27,25
173,124,27,25
172,124,26,25
172,123,26,25
171,123,26,25
170,122,25,24
169,122,25,24
169,121,25,24
167,121,25,24
167,120,25,24
167,120,25,24
178,120,25,24
177,119,25,24
176,119,25,23
175,118,25,23
174,118,24,23
173,117,24,23
172,116,24,23
172,116,24,23
171,115,24,22
169,115,24,22
169,115,24,22
169,114,24,22
175,114,24,22
173,113,24,22
173,113,24,22
172,112,24,22
171,112,24,21
170,112,24,22
169,111,23,21
167,111,23,22
167,110,23,21
167,110,22,21
166,109,22,21
215,109,24,21
235,108,24,20
233,108,24,21
231,108,23,20
230,107,23,20
229,107,23,20
227,106,23,20
227,106,23,20
225,105,22,20
224,105,23,19
223,105,22,19
283,103,22,19
403,103,24,19
398,103,24,19
395,103,24,19
391,103,24,19
390,102,23,19
387,102,23,21
384,101,23,22
382,101,23,21
380,100,22,21
377,100,23,21
376,99,22,21
373,99,23,21
371,99,25,21
369,99,25,20
367,98,24,20
365,98,24,20
363,97,24,20
361,97,24,20
359,96,24,25
357,96,24,25
355,96,24,25
353,96,23,24
352,95,24,24
349,95,23,24
348,94,27,24
345,94,26,24
344,94,26,24
342,93,26,24
340,93,25,24
339,92,25,24
337,92,25,24
335,92,25,24
333,92,25,23
332,91,25,23
330,91,25,23
327,91,25,23
327,90,27,23
325,90,27,23
323,89,27,22
322,89,27,22
319,89,26,22
318,88,26,22
317,88,26,22
316,88,25,21
314,88,26,21
312,88,25,21
311,87,25,21
310,87,25,21
308,86,26,21
306,86,31,21
304,85,31,20
304,85,31,21
302,85,30,20
300,85,30,20
299,84,30,20
297,84,30,21
295,85,29,21
295,85,29,21
293,84,29,21
291,84,29,21
291,83,29,21
289,83,37,20
287,83,38,20
286,83,38,20
285,82,37,20
284,82,37,19
282,82,37,19
281,81,37,19
280,81,37,19
279,81,36,19
277,81,36,19
275,81,35,19
274,80,35,19
273,80,35,19
271,79,36,19
271,79,36,19
270,79,35,19
268,79,35,19
267,78,35,18
265,78,35,18
265,78,35,18
263,78,35,18
262,77,35,18
261,77,35,18
259,77,34,18
259,76,34,18
257,76,38,17
256,76,37,17
255,76,37,17
254,75,37,17
253,75,37,17
252,75,37,18
250,74,36,19
249,74,36,18
248,74,36,18
247,73,35,18
246,73,35,18
245,73,35,17
243,73,35,17
243,71,35,18
241,71,35,17
240,71,35,17
240,71,35,17
238,71,35,17
237,71,34,17
236,71,34,17
235,70,34,17
234,70,34,17
233,70,34,16
231,70,33,16
231,70,33,16
230,69,34,16
229,69,33,16
228,68,33,15
227,68,33,16
226,67,33,15
225,67,33,15
224,67,33,15
224,67,32,15
223,67,32,15
221,67,32,16
220,66,31,15
220,66,31,15
218,66,32,15
217,65,31,15
216,65,31,15
216,65,31,15
215,65,31,15
214,64,31,15
213,64,31,16
212,63,31,17
211,63,31,16
210,63,31,17
209,63,30,16
208,63,30,16
207,63,31,16
207,62,31,16
206,62,31,15
205,62,31,15
204,62,31,15
203,61,30,15
202,61,30,16
201,61,30,15
201,60,30,15
199,61,30,15
199,60,30,15
198,60,29,15
197,60,30,15
196,60,33,15
195,60,33,15
195,59,32,15
194,59,32,15
193,59,31,14
193,58,31,14
192,58,31,14
191,58,31,14
190,58,31,14
189,57,31,14
188,57,31,14
188,57,31,14
187,57,31,14
186,56,30,14
185,57,30,14
184,56,30,14
184,56,30,14
184,56,30,13
182,56,30,14
181,55,30,14
181,55,29,13
180,55,29,14
179,55,29,13
179,54,29,13
178,54,29,13
177,54,30,13
176,54,30,13
176,53,30,13
175,53,30,13
174,53,30,13
174,53,29,14
173,53,29,25
172,55,29,25
171,54,29,25
171,54,29,25
170,54,28,25
169,54,29,25
168,54,29,25
167,53,28,24
167,53,28,24
167,53,28,24
166,52,28,24
165,52,28,24
164,51,28,24
163,56,28,24
163,55,27,24
163,55,27,24
162,55,27,23
161,54,27,23
161,54,27,23
159,54,27,23
159,53,27,22
159,53,27,23
158,53,27,23
158,52,27,22
157,52,27,22
156,52,26,22
156,52,26,22
155,51,25,22
154,51,26,22
154,51,25,21
153,51,25,21
153,51,25,21
152,51,25,21
152,50,25,21
151,50,25,20
151,50,25,20
150,49,25,20
149,49,25,20
148,49,25,20
147,49,24,20
147,49,24,20
147,48,24,19
147,48,24,19
146,48,25,19
145,48,24,19
144,48,24,19
143,48,24,19
143,47,24,19
143,47,24,19
142,47,24,19
142,47,24,19
142,46,24,19
141,46,24,18
140,46,24,18
140,46,23,18
139,46,23,18
139,46,24,18
138,46,24,17
137,45,24,18
137,45,24,17
135,45,24,18
135,45,24,17
135,44,23,17
135,44,24,17
135,44,23,17
134,44,23,17
133,44,23,17
133,44,22,17
132,43,23,16
131,44,23,17
131,43,23,16
131,43,23,16
131,43,22,16
130,42,22,16
130,42,23,16
129,42,22,16
128,42,22,16
127,42,22,16
127,41,21,15
127,41,22,15
126,41,22,15
126,41,22,15
125,41,22,15
125,41,22,15
124,41,22,15
124,41,22,15
123,39,22,15
123,39,21,15
123,39,21,15
122,39,21,14
121,39,21,15
121,39,21,14
121,39,21,15
120,39,21,14
120,39,21,14
120,39,21,14
119,39,20,14
119,39,20,14
118,38,21,14
117,38,20,14
117,38,20,13
117,38,20,14
116,38,19,14
115,37,19,13
115,37,19,13
115,37,21,13
114,37,21,13
114,37,21,13
113,37,21,13
113,37,21,13
112,36,21,22
112,36,20,21
112,36,20,21
112,36,20,21
111,35,20,21
110,35,20,21
110,35,19,20
110,35,21,20
109,35,22,20
109,35,22,20
108,35,21,20
108,35,21,19
108,35,21,19
107,34,21,19
107,34,21,19
107,34,20,19
106,34,20,19
105,34,20,19
105,34,20,19
105,34,20,19
103,33,23,19
103,33,22,19
103,33,22,19
103,33,22,18
103,33,22,18
102,33,22,18
102,33,21,19
102,32,21,19
102,32,22,19
101,31,21,19
101,31,21,19
100,31,21,19
99,31,23,19
99,31,22,18
99,31,22,19
99,31,22,18
99,31,22,18
98,31,22,18
98,31,22,18
97,31,21,18
97,31,22,18
97,30,21,18
96,30,21,17
96,30,21,18
96,30,21,17
96,30,24,17
95,30,24,17
94,30,24,17
94,30,24,17
94,30,23,17
94,29,24,17
93,29,23,17
93,29,23,19
93,29,23,18
92,29,23,18
92,29,23,18
92,29,22,18
91,28,22,17
91,29,41,18
91,28,41,18
90,28,41,17
90,28,41,18
90,28,41,17
89,28,41,17
89,28,39,18
89,28,39,20
88,27,39,20
88,27,39,20
88,28,39,19
88,27,39,19
87,27,39,19
86,27,39,19
86,27,39,19
86,27,39,19
86,27,39,19
85,27,38,19
85,27,38,19
85,26,38,19
84,26,38,19
84,25,37,19
84,26,37,18
83,25,37,18
83,25,37,18
83,25,37,18
83,25,36,18
82,25,37,18
82,25,36,17
82,25,36,18
82,25,36,18
81,25,36,18
81,25,35,17
80,25,35,18
80,25,35,17
80,24,35,17
79,25,35,17
79,24,35,17
79,24,35,17
79,24,34,17
79,24,34,17
78,24,34,16
78,24,34,16
78,24,33,16
77,24,33,16
77,24,33,16
77,24,33,16
76,23,33,16
77,24,33,16
76,23,33,15
76,23,32,16
76,23,32,15
75,22,32,15
75,23,31,15
75,22,31,15
74,22,31,15
74,22,31,15
74,22,31,15
73,22,31,15
73,22,31,17
73,22,31,18
73,22,31,18
73,22,30,17
72,21,30,17
71,21,30,17
71,22,30,17
71,21,30,17
71,21,30,17
71,21,30,17
71,21,30,17
71,21,30,16
70,21,30,16
70,21,29,16
70,21,29,16
69,20,29,16
69,20,29,15
69,20,29,16
69,20,29,15
68,20,29,15
68,20,29,15
67,19,29,15
67,20,28,15
67,19,28,15
67,19,28,15
67,19,29,15
67,19,28,16
66,19,28,17
66,19,28,17
66,19,28,16
66,19,28,16
65,19,27,16
65,19,28,16
65,19,28,16
65,19,28,16
64,19,28,16
64,18,28,15
63,19,27,15
63,19,27,15
63,18,27,15
63,18,27,17
63,18,27,16
63,18,26,16
63,18,26,16
62,18,26,16
62,18,26,16
62,18,27,16
62,18,27,16
61,17,27,15
61,17,27,15
61,17,26,15
61,17,26,15
60,17,26,15
60,17,26,16
60,17,26,15
60,17,25,15
60,17,25,15
60,17,25,15
59,16,25,15
59,17,25,15
59,16,25,15
59,17,25,15
58,16,25,15
58,16,25,15
58,16,25,15
58,16,25,15
57,16,24,15
57,15,24,15
57,15,24,15
57,16,24,15
57,15,24,15
57,15,24,14
56,15,25,14
56,15,25,15
56,15,24,14
56,15,24,14
56,15,24,14
56,15,24,14
55,15,24,14
55,15,24,16
54,15,24,15
55,15,24,15
54,15,24,15
54,15,24,15
54,15,24,15
53,15,24,15
53,15,24,15
53,14,24,15
53,14,24,15
53,14,24,14
53,14,24,15
52,14,24,16
52,14,24,25
52,14,24,25
51,14,23,25
51,14,24,25
51,14,23,25
51,14,23,25
51,14,28,24
51,14,28,24
51,14,28,24
51,14,28,24
50,13,28,24
50,13,28,24
50,13,27,24
49,13,27,24
49,13,27,23
49,13,27,23
49,13,27,23
49,13,27,23
48,13,26,23
48,13,27,22
48,13,27,23
48,12,26,22
48,12,27,22
48,13,26,22
48,12,26,22
47,12,26,39
47,13,26,57
47,13,25,57
47,13,26,56
47,13,25,56
47,13,25,56
46,13,25,56
46,13,25,55
46,12,25,54
46,13,25,54
46,12,25,54
45,12,25,54
45,12,25,54
45,13,25,53
45,13,25,53
45,12,25,53
45,12,24,52
44,12,24,52
44,12,24,51
44,12,24,51
44,12,25,51
44,12,26,51
44,12,26,51
43,12,26,51
43,12,25,51
43,11,25,50
43,11,25,50
43,12,25,49
42,13,25,49
42,13,25,49
42,13,25,49
42,13,25,49
41,13,24,48
41,13,25,48
41,13,25,48
41,12,25,48
41,12,25,48
41,12,24,47
41,12,24,47
41,12,24,46
39,12,24,47
39,12,24,46
39,12,24,46
39,12,24,46
39,12,24,46
39,12,24,45
39,12,24,45
39,12,24,45
39,12,24,45
39,11,23,45
39,12,24,44
39,12,24,44
39,11,23,44
39,11,23,44
39,11,23,44
39,11,22,43
38,11,22,43
38,11,22,43
38,11,22,43
38,11,22,43
38,11,24,42
37,11,23,42
37,11,23,42
37,11,23,42
37,11,23,41
37,10,23,41
37,11,22,41
36,11,22,41
36,11,22,41
36,11,22,41
36,10,22,39
36,11,22,39
35,10,22,39
35,10,25,39
35,10,24,39
35,10,24,39
35,10,24,39
35,10,24,39
35,10,24,39
35,10,24,38
35,10,24,38
35,11,24,38
35,11,23,38
34,10,23,38
34,10,24,38
34,10,23,37
34,10,25,37
34,10,24,37
34,10,24,37
33,10,24,37
34,10,24,37
33,10,24,36
33,9,24,36
33,11,24,35
33,11,24,36
32,10,24,35
33,10,24,35
32,10,23,35
32,10,23,35
32,10,25,35
32,10,25,35
31,10,25,34
31,9,25,34
31,9,25,34
31,9,25,34
31,10,25,34
31,15,24,34
31,14,24,34
31,14,24,33
31,14,24,33
31,14,24,33
31,14,24,33
34,14,25,33
43,14,25,33
42,14,25,32
42,14,25,32
41,13,25,32
42,13,25,32
41,13,24,31
41,14,24,31
41,14,24,31
41,14,24,31
40,14,24,31
40,14,24,31
39,14,24,31
39,14,24,31
39,13,24,30
39,13,24,31
39,13,24,31
39,13,24,30
39,13,24,30
39,13,24,30
38,16,24,30
38,18,23,30
38,17,24,29
38,18,23,29
38,17,23,29
37,17,22,29
48,17,24,29
48,17,24,29
48,17,24,29
48,17,24,28
47,17,24,29
47,17,24,28
47,16,24,28
46,19,24,28
46,21,23,28
46,21,23,28
46,21,23,28
46,20,23,28
45,20,23,28
45,20,26,27
45,20,26,27
45,20,25,27
45,20,25,27
44,20,26,26
44,19,25,27
44,19,25,26
44,19,25,26
44,23,25,26
43,22,25,26
43,22,25,26
43,22,24,25
43,22,25,25
43,22,26,26
42,21,26,25
42,22,26,25
41,21,26,25
41,21,26,25
41,21,25,25
41,21,25,24
41,21,25,27
41,22,25,27
39,22,25,26
39,21,25,26
39,21,25,26
39,21,25,25
39,21,26,25
39,21,26,26
39,21,25,25
39,21,25,25
39,21,25,25
39,20,25,25
38,20,25,25
38,20,25,44
38,24,25,44
38,24,24,43
38,23,24,43
38,23,24,42
38,23,24,43
37,23,28,42
37,23,31,42
37,23,31,41
37,22,31,41
37,22,31,41
36,22,30,41
37,22,30,41
36,22,30,41
35,24,30,40
35,23,29,39
35,23,30,39
35,23,29,39
35,23,29,39
35,22,30,39
35,22,30,39
35,22,30,39
35,22,29,38
35,22,29,38
35,22,29,38
34,21,29,38
34,21,29,39
34,22,28,38
34,21,28,38
33,22,29,38
33,21,28,37
33,21,28,37
35,21,31,37
37,21,31,37
37,21,31,37
37,21,31,36
37,20,31,36
36,20,30,36
36,21,30,35
36,20,30,35
35,23,30,35
35,24,30,35
35,23,30,35
35,22,29,35
35,22,29,35
35,22,30,34
35,22,30,34
35,22,30,34
35,22,29,34
35,22,29,34
35,22,29,34
35,22,29,33
35,22,29,34
34,27,29,33
34,27,28,33
34,27,28,33
34,26,28,33
33,26,28,32
33,26,28,32
33,26,28,32
33,26,28,31
33,25,28,31
33,25,28,31
33,25,28,31
33,25,28,31
32,25,27,31
32,27,27,31
32,27,27,31
31,27,27,31
31,27,27,30
31,26,27,30
31,27,26,30
32,26,27,30
32,26,27,30
32,26,27,30
31,26,27,30
31,25,26,30
31,25,26,29
31,25,26,29
31,26,26,29
31,26,25,29
31,26,25,29
31,26,25,29
31,25,25,29
31,25,25,28
39,25,27,28
38,25,26,28
38,25,26,28
38,25,26,28
38,25,26,28
37,25,25,28
37,25,25,27
37,25,25,27
37,25,25,27
36,25,25,27
37,25,25,26
36,24,25,27
36,24,25,27
35,24,25,26
36,24,25,26
35,24,25,26
35,24,25,26
35,24,25,26
35,24,25,25
34,24,25,25
35,28,25,25
35,28,25,25
34,28,25,25
34,28,24,25
34,28,24,25
34,28,24,25
36,27,30,25
36,28,29,24
36,28,29,24
35,27,29,24
35,27,29,24
35,27,29,24
35,27,29,24
35,32,28,24
35,31,28,24
34,31,28,24
34,31,28,24
34,31,28,23
34,31,28,23
35,31,28,24
35,31,28,24
35,31,28,23
35,30,28,23
35,30,28,23
35,31,27,23
35,30,27,23
35,31,27,22
34,31,27,23
34,31,27,22
34,31,27,22
34,30,26,22
33,30,26,21
50,30,29,21
50,30,29,21
49,30,29,21
49,30,29,22
49,29,29,21
49,29,28,21
48,29,28,21
48,34,28,21
48,34,28,21
48,34,27,21
47,34,27,20
47,34,27,20
47,33,28,20
48,33,28,20
49,33,28,20
48,33,27,20
49,33,27,19
48,32,27,20
48,32,27,19
48,32,27,19
47,32,27,27
47,31,26,27
47,31,26,26
47,31,26,26
47,31,26,26
46,31,26,26
50,31,28,25
51,31,28,26
50,30,27,25
50,30,27,25
50,30,27,25
49,30,27,25
49,30,26,25
49,30,27,25
48,36,26,25
48,35,26,25
48,35,26,25
48,35,26,24
48,35,26,25
51,35,26,25
51,35,25,24
51,34,25,24
50,34,25,24
50,34,25,24
50,34,25,24
49,34,25,24
49,33,25,24
49,39,25,24
49,39,24,24
48,39,24,24
48,39,24,24
48,38,24,23
48,38,26,23
48,38,26,23
48,38,25,23
47,38,26,22
48,38,26,23
47,37,25,23
47,37,25,22
47,37,25,22
46,37,25,22
46,37,25,22
46,37,25,22
45,37,24,22
45,37,25,22
48,37,25,22
52,36,27,21
51,36,27,21
51,36,27,21
51,35,27,21
51,35,26,21
50,35,26,21
51,35,26,22
50,36,25,22
50,35,25,22
49,36,25,22
49,35,25,22
49,35,25,21
49,35,26,21
49,35,27,22
49,34,26,21
48,35,26,21
48,34,26,21
48,34,26,20
48,34,25,21
47,34,25,21
47,38,25,20
47,37,25,20
47,37,25,20
46,37,25,20
46,36,25,20
48,36,26,20
52,36,28,19
52,35,28,19
51,35,28,19
51,35,27,19
51,35,27,19
51,35,27,19
51,35,27,19
50,39,26,19
49,39,26,19
50,38,26,19
49,38,26,19
49,38,26,18
49,38,26,19
52,37,28,18
51,37,27,18
51,37,27,18
51,37,27,18
51,37,27,18
50,36,27,18
50,36,27,18
50,36,27,18
50,36,26,18
49,36,26,17
49,36,26,17
49,36,25,17
49,35,26,17
65,35,28,17
65,35,28,17
65,35,28,17
65,35,28,17
63,34,28,17
63,35,27,16
63,35,27,25
63,39,27,24
63,39,27,24
63,39,26,24
62,39,27,24
62,39,27,24
61,38,26,23
63,38,27,23
63,38,27,23
63,38,27,23
62,38,27,23
62,37,26,23
62,37,26,23
62,37,26,23
61,41,26,22
61,40,25,22
61,39,25,22
60,39,25,22
60,39,25,22
60,39,25,22
62,39,26,22
62,39,26,21
61,39,26,21
61,39,26,21
61,39,25,21
61,38,25,21
60,38,25,23
60,39,25,24
60,39,24,23
59,40,25,23
59,39,25,23
59,39,24,23
58,39,24,23
61,39,25,22
61,39,25,23
61,39,25,22
60,39,25,22
60,38,25,22
60,38,25,22
59,38,25,22
59,51,24,21
59,51,24,21
59,50,24,21
59,50,24,21
57,50,24,21
57,49,24,21
65,49,26,21
64,49,25,21
64,49,25,20
63,49,25,20
63,49,25,20
63,48,25,20
63,48,25,19
63,48,25,20
62,50,25,19
62,49,24,19
62,49,24,19
61,49,24,19
61,49,24,19
61,49,30,19
61,48,30,19
