25,138,3,28
25,137,3,28
25,140,3,28
28,139,3,28
28,138,3,28
27,137,2,28
27,137,3,28
27,135,3,28
27,135,3,27
26,135,3,27
26,134,3,27
26,134,3,27
25,133,3,27
26,132,3,26
26,131,2,29
25,143,2,31
25,143,2,31
25,143,2,31
25,142,3,31
25,141,2,30
25,140,2,30
25,140,3,30
24,139,3,30
25,138,3,30
25,137,3,29
24,135,2,30
24,135,2,30
24,135,2,29
24,135,3,29
25,135,3,29
25,134,2,29
25,133,3,28
25,133,2,28
24,132,3,28
24,131,2,28
24,131,2,28
24,130,2,28
24,129,2,28
24,129,2,28
24,127,2,27
24,127,2,28
23,127,2,27
24,127,2,27
24,126,2,27
24,126,2,27
24,125,2,27
24,124,2,26
24,124,3,26
24,124,3,26
24,123,3,26
23,122,3,25
23,121,3,26
23,121,3,25
23,120,3,25
22,121,3,25
24,125,3,25
26,124,3,25
26,124,3,25
26,123,3,25
25,122,3,25
25,121,3,25
25,121,3,24
25,121,3,24
25,120,3,24
25,120,3,24
24,119,3,24
24,118,3,24
24,118,3,24
25,120,3,24
25,119,3,24
25,119,3,24
24,118,3,23
24,117,3,23
24,117,3,23
24,115,3,23
24,115,3,22
24,115,3,22
24,115,3,22
24,114,3,22
24,113,3,22
24,114,3,22
24,118,3,22
24,118,3,22
24,117,3,21
24,116,3,21
24,115,3,21
23,115,3,21
22,115,3,21
23,114,3,21
23,113,3,21
23,113,3,21
22,112,3,20
22,112,3,21
22,115,3,20
22,152,3,20
22,151,3,19
22,150,3,19
22,149,3,20
22,148,3,19
21,147,3,19
21,147,3,19
21,146,3,20
21,145,3,19
20,143,3,19
21,143,3,19
21,143,3,19
20,142,3,19
24,142,3,19
27,141,3,19
27,140,3,19
27,139,3,18
27,139,3,19
27,138,3,19
27,137,4,18
26,137,5,18
26,135,4,18
26,135,4,18
25,135,4,17
25,134,4,17
25,134,4,18
25,166,4,18
26,163,4,17
25,163,4,17
25,162,3,18
25,161,4,17
25,160,3,16
25,159,4,17
25,159,4,16
25,158,4,16
25,157,4,16
24,156,4,17
24,155,4,16
24,154,4,16
24,188,3,16
25,187,3,17
25,185,3,15
25,184,3,16
24,184,3,15
24,183,3,16
24,182,4,15
24,181,4,15
24,179,4,15
24,179,4,15
24,178,4,15
24,177,4,15
24,176,4,15
37,175,4,17
46,174,4,16
45,174,3,16
45,173,3,16
45,172,3,16
45,171,3,16
44,170,4,16
44,169,4,15
44,167,4,15
44,167,4,16
43,167,4,15
43,167,4,15
43,165,3,15
94,165,4,21
120,163,3,21
119,163,3,20
118,162,3,20
117,161,3,20
116,160,3,20
115,159,3,20
115,159,3,19
114,158,3,20
113,157,3,19
113,156,3,19
112,156,3,19
112,206,3,19
111,206,3,19
111,204,3,19
110,203,3,19
109,201,3,19
109,199,3,18
109,199,3,18
108,198,4,18
107,197,3,19
107,195,3,18
106,195,3,18
106,194,3,18
105,197,3,18
105,206,3,18
103,205,3,18
103,206,3,18
103,204,3,18
103,204,3,17
102,202,3,17
102,201,3,18
101,199,3,17
101,199,3,17
100,198,3,17
99,227,3,17
99,329,3,17
99,440,3,17
98,519,3,17
98,514,3,17
98,510,3,17
98,505,3,17
97,502,3,17
97,498,3,16
97,495,3,16
96,492,3,16
96,487,3,16
96,485,3,16
95,482,3,16
95,479,3,16
94,476,3,17
93,473,3,19
93,471,3,19
93,467,3,18
92,463,3,18
92,461,3,18
92,459,2,18
91,455,3,18
90,453,3,18
90,451,3,18
90,448,3,18
98,446,3,18
175,443,3,17
227,572,3,17
224,717,3,17
223,863,3,17
221,886,3,17
220,871,3,17
218,863,3,16
217,855,3,17
216,846,3,16
215,835,3,16
214,827,3,16
213,819,3,16
211,812,3,15
211,805,3,15
231,880,3,15
229,905,3,15
227,911,3,15
226,911,3,15
225,905,3,15
224,889,3,15
222,880,3,15
221,871,3,15
220,860,3,15
219,851,3,15
218,844,3,15
216,835,3,16
216,825,3,18
215,818,3,18
214,811,3,18
212,803,3,18
211,795,3,17
210,787,3,18
209,781,4,17
207,774,4,17
207,765,4,17
206,759,4,17
205,753,4,17
204,747,4,17
203,739,3,17
202,733,4,19
201,728,4,19
199,721,3,19
199,714,3,19
198,708,3,19
198,703,4,19
196,699,4,19
195,691,3,18
195,686,4,18
193,726,3,19
192,856,4,18
192,844,3,18
190,836,3,27
241,828,3,27
239,820,3,27
237,810,3,26
236,803,3,26
235,796,4,26
233,788,5,25
231,780,5,26
231,772,5,25
230,766,4,25
229,760,4,25
228,751,5,25
227,744,4,27
226,739,4,27
225,732,4,27
224,725,4,26
223,719,4,26
222,713,4,26
220,707,6,26
219,701,6,26
218,695,6,25
217,690,6,25
216,684,6,25
215,678,6,25
214,673,6,25
244,668,6,25
248,664,6,25
246,657,6,25
244,652,6,24
243,647,6,25
242,643,10,25
240,637,11,24
239,633,11,24
238,628,10,24
236,623,10,24
235,619,10,24
234,613,10,24
233,609,10,24
231,604,10,24
230,600,9,24
229,595,10,24
227,591,9,24
227,587,11,24
225,583,11,24
224,579,11,23
223,575,11,23
222,570,11,23
221,567,10,22
220,563,11,23
219,558,11,23
217,555,11,23
216,551,11,23
216,547,11,23
214,543,10,22
213,539,11,22
212,536,11,22
210,531,10,22
210,529,11,22
209,693,10,21
207,759,10,22
207,751,10,24
205,743,10,24
205,736,10,24
203,728,10,24
203,721,10,24
201,716,10,24
199,707,11,23
199,702,10,24
199,695,10,23
198,689,10,23
197,682,10,23
195,737,10,24
195,829,11,28
193,818,10,28
193,810,10,28
192,799,10,27
192,793,10,27
190,783,11,27
189,777,12,27
188,770,12,27
187,761,12,27
187,755,12,27
185,746,12,26
184,739,12,26
259,734,12,26
372,894,12,26
391,893,12,25
387,879,12,25
385,871,11,25
382,859,14,25
380,851,14,25
377,843,14,25
375,831,14,25
373,825,14,24
371,815,14,25
368,807,14,25
366,799,14,26
364,792,14,25
361,783,13,25
359,775,14,25
358,769,14,25
355,760,15,25
353,753,15,25
352,748,15,24
349,739,16,25
348,733,15,24
348,726,15,24
347,719,15,31
344,715,15,31
343,707,15,30
340,702,15,30
338,695,14,30
337,689,15,30
335,683,14,30
333,678,14,30
331,673,14,29
329,666,14,29
327,661,14,29
326,655,14,29
324,651,14,29
323,646,14,29
320,639,14,28
319,635,14,29
317,630,13,28
316,625,13,28
314,620,13,28
312,615,13,28
311,611,13,28
309,606,13,28
307,601,13,27
306,596,13,27
304,645,13,27
303,639,12,27
301,632,13,27
300,627,12,27
298,622,12,27
297,617,12,27
295,611,13,26
294,606,13,26
292,602,12,26
291,596,12,25
289,591,12,25
287,587,12,25
287,583,12,25
285,579,12,25
283,574,12,25
282,571,12,25
280,566,12,25
280,563,12,25
278,558,12,25
276,555,12,25
275,551,12,24
274,547,12,24
272,543,11,24
271,539,11,31
270,536,11,31
268,532,11,31
267,528,11,30
265,525,11,30
263,521,11,30
263,518,11,30
262,514,11,30
261,511,11,29
259,508,11,29
258,504,10,29
257,502,10,29
255,699,10,35
255,858,10,35
253,903,9,35
263,911,9,34
277,911,10,34
393,907,10,34
389,888,9,34
387,878,9,34
384,869,9,33
382,859,9,33
379,850,9,33
377,843,9,33
375,897,9,33
372,909,9,33
371,911,9,33
368,909,9,33
366,896,9,33
364,884,9,33
362,873,7,32
363,864,9,33
368,856,8,32
366,847,7,31
364,837,7,31
362,830,9,31
359,823,7,31
358,815,7,31
355,806,7,31
354,798,7,31
352,792,8,31
350,783,7,31
348,775,7,30
432,770,7,30
537,763,7,30
531,756,7,30
527,748,7,30
524,742,7,30
519,736,7,29
516,731,7,45
513,723,7,45
509,717,7,44
505,711,7,44
503,706,7,44
525,699,7,43
646,694,7,43
638,689,9,43
633,684,7,43
735,677,8,42
875,671,7,42
903,667,7,42
910,662,7,42
913,655,7,43
915,651,7,43
913,647,7,42
902,642,7,42
887,636,7,41
877,632,7,41
868,627,8,41
860,623,7,41
852,617,8,41
843,614,7,39
835,609,7,39
827,605,7,39
820,600,7,42
812,596,7,41
805,591,7,41
798,588,7,41
792,583,7,41
784,579,7,39
777,575,9,41
771,572,7,39
764,568,9,39
758,563,8,39
752,560,9,39
745,557,7,39
739,552,7,41
733,549,8,41
728,545,7,41
722,543,7,41
716,538,7,41
711,535,7,41
705,531,9,39
700,528,10,39
694,524,9,39
689,521,10,39
809,519,9,39
899,514,9,39
908,511,9,39
913,508,9,40
915,505,9,39
917,501,9,39
918,498,9,39
914,496,9,39
902,493,9,39
887,489,11,39
876,487,11,39
867,483,11,39
859,480,11,38
850,478,11,38
841,475,11,39
833,472,11,47
825,469,11,46
817,466,11,46
810,463,10,45
802,460,10,45
795,457,21,45
787,455,25,45
780,452,25,44
773,450,24,44
766,447,24,44
759,444,24,44
752,441,24,44
746,440,24,43
739,437,24,43
734,434,24,43
728,432,24,43
721,429,23,42
716,427,24,42
710,423,24,41
704,422,24,41
698,419,23,41
692,417,23,41
687,415,23,41
682,412,23,50
676,409,22,50
671,408,22,49
666,405,22,49
662,403,22,48
655,400,22,48
651,399,22,48
646,396,21,48
641,394,21,48
637,391,21,48
632,390,21,47
627,387,21,47
623,385,21,47
619,384,20,46
614,382,21,46
610,379,20,46
606,377,20,45
601,375,20,45
598,374,20,45
593,371,19,44
589,369,19,45
585,368,19,44
581,365,19,44
577,364,19,44
573,361,19,43
569,359,19,44
566,358,19,43
562,356,19,43
559,354,19,43
555,352,19,42
551,351,18,42
547,348,18,42
544,347,18,41
541,345,18,41
537,344,18,41
534,342,18,44
530,339,18,57
527,338,18,57
524,336,17,57
521,335,17,56
518,333,17,56
514,331,17,56
511,329,17,56
508,327,17,55
505,327,17,55
502,325,17,55
499,323,17,54
496,321,17,54
493,319,17,53
490,318,16,53
487,317,16,53
484,315,16,53
481,313,16,52
479,312,16,51
476,311,15,51
473,309,15,51
470,307,15,51
467,306,15,51
465,304,15,51
462,303,15,50
460,301,15,50
457,300,15,50
455,298,14,49
452,297,14,49
449,295,14,49
447,294,14,48
444,293,15,49
442,291,14,49
440,290,14,48
437,289,14,48
435,287,14,48
432,286,14,47
430,284,14,47
428,283,14,47
425,281,14,47
423,280,13,46
421,280,15,46
419,277,19,46
417,276,19,45
414,275,19,45
412,274,19,45
409,272,18,44
408,271,19,45
406,270,18,44
403,268,18,44
401,268,18,44
399,265,18,44
398,265,19,44
396,263,25,43
393,262,27,43
391,261,27,43
390,259,26,43
387,259,26,42
385,258,26,42
384,256,26,42
381,255,25,42
379,254,25,41
377,252,25,41
376,251,25,41
374,250,24,41
371,249,24,40
370,248,24,39
368,247,24,39
366,246,24,39
365,245,24,39
363,243,24,39
361,242,24,39
359,241,24,39
357,240,24,39
355,239,23,39
354,238,23,39
352,237,23,38
350,236,22,38
348,235,22,38
348,233,22,38
345,231,22,37
344,231,22,37
342,231,22,37
340,229,22,37
339,229,21,37
337,227,22,36
335,227,21,35
334,225,21,36
332,224,21,35
331,224,21,35
329,222,21,35
327,221,20,35
326,220,20,35
325,220,21,35
323,219,19,35
321,217,20,35
319,217,20,35
319,216,19,34
317,215,19,34
316,214,19,34
314,213,19,34
312,211,19,34
312,211,19,33
310,210,19,33
308,209,19,33
307,208,19,33
306,207,18,33
304,206,19,32
303,205,18,33
301,204,18,32
300,204,18,31
299,203,18,31
297,201,18,31
295,201,18,31
295,199,18,31
293,199,17,31
291,198,17,31
291,197,17,31
289,197,17,32
287,195,17,33
286,195,17,33
285,194,17,32
284,193,17,32
283,192,16,32
281,192,16,31
280,191,16,31
279,190,16,31
278,189,16,31
276,188,16,31
275,187,16,31
274,238,15,31
273,300,15,30
271,297,15,31
270,295,15,30
269,294,15,30
268,291,15,30
267,290,15,30
265,287,15,30
263,286,15,29
263,285,15,29
262,283,14,29
261,281,15,29
260,357,14,29
259,399,14,29
257,396,14,28
256,392,14,28
255,390,14,28
254,387,14,28
253,385,14,28
252,383,14,28
251,380,13,27
249,377,13,27
248,375,13,27
248,372,13,27
247,411,13,27
245,408,13,27
244,406,13,26
243,402,13,26
242,399,13,26
241,397,13,26
240,394,12,25
239,391,13,26
238,389,12,25
237,387,12,25
236,384,13,25
235,441,12,25
234,534,12,25
233,527,12,25
231,524,12,25
231,519,12,25
230,515,12,25
229,510,12,24
228,507,11,24
227,504,11,24
226,499,11,24
225,496,11,24
224,492,11,24
224,489,11,24
223,486,11,24
222,482,11,24
221,480,11,24
220,476,11,23
219,473,11,23
218,469,11,23
217,466,10,23
216,463,10,22
215,460,10,22
214,457,10,22
213,454,10,22
213,451,10,22
211,449,10,22
210,445,10,22
210,443,10,22
209,440,9,22
207,437,9,22
207,434,10,21
206,432,9,21
206,428,9,21
205,427,9,21
204,423,9,21
203,421,9,21
202,419,9,21
201,416,9,20
201,414,9,20
199,411,9,21
199,409,9,20
199,408,8,20
197,404,9,20
197,402,8,19
196,399,9,19
195,398,8,19
195,396,8,19
194,393,7,19
193,391,8,19
192,389,7,20
192,387,8,20
190,384,7,19
190,382,7,19
189,380,7,19
189,378,7,19
188,376,7,19
187,374,7,19
186,371,7,19
185,370,7,19
185,368,7,19
184,366,7,19
184,364,7,19
183,362,7,19
182,359,7,18
283,358,7,18
316,356,7,18
313,355,7,18
312,352,7,18
309,350,7,18
307,349,7,18
305,347,7,17
304,345,7,18
302,344,7,17
300,342,7,17
299,339,7,17
297,339,6,17
295,335,7,17
294,335,7,17
292,333,6,17
291,331,6,17
289,329,7,16
287,327,7,16
286,327,6,16
285,324,6,16
283,323,6,16
282,321,6,16
281,319,7,17
280,318,6,16
278,316,6,16
276,315,6,16
275,313,6,16
273,312,6,16
271,310,6,15
270,309,6,15
269,307,6,15
268,305,6,15
267,304,5,15
265,302,5,15
263,301,6,15
263,300,5,15
261,298,6,15
260,295,5,15
259,295,5,15
258,294,5,15
255,292,5,15
255,291,5,15
254,289,5,15
252,287,5,14
251,286,5,14
250,285,5,14
249,284,5,24
248,283,5,29
246,281,5,29
245,280,5,29
244,279,5,29
243,277,5,29
242,275,4,28
241,275,5,28
240,273,4,28
238,271,4,28
237,270,4,28
236,270,4,28
235,268,5,27
234,267,4,42
233,265,4,42
231,263,4,41
231,263,4,41
230,262,4,41
229,261,4,41
227,259,7,41
227,258,7,39
225,257,7,40
225,255,7,39
223,254,7,39
223,254,7,39
221,253,7,39
221,251,7,39
219,250,7,38
219,249,7,38
217,248,7,38
216,247,7,38
216,245,7,38
215,244,7,37
214,243,7,37
213,242,7,37
211,241,7,37
211,240,7,37
210,239,7,36
209,238,7,37
207,237,7,36
207,236,7,36
206,235,7,35
205,233,7,36
204,231,7,35
203,231,7,35
203,230,7,35
201,229,6,35
200,227,7,34
199,227,7,34
199,227,6,34
198,225,7,34
197,224,6,34
196,223,6,34
195,222,6,33
195,222,6,33
194,220,6,33
193,219,6,33
192,219,6,33
192,217,6,33
191,216,6,33
190,216,6,32
189,215,6,32
188,214,6,31
187,213,6,32
187,211,6,31
185,211,5,31
185,210,6,31
184,209,6,31
184,207,6,31
183,207,6,31
182,207,6,31
181,205,5,30
181,204,6,30
179,204,5,30
179,203,5,30
179,201,5,30
178,201,5,30
177,199,5,29
176,199,5,29
175,198,5,29
175,198,5,29
174,196,6,29
173,195,5,29
173,195,5,29
172,194,5,28
172,193,5,28
171,192,5,28
170,192,5,28
169,191,5,28
169,190,5,28
167,189,5,27
167,188,5,27
167,188,5,27
166,187,5,27
165,186,5,27
165,185,5,27
164,184,5,27
163,184,5,26
163,183,5,26
162,183,4,26
162,181,5,26
161,181,5,25
160,179,4,25
159,179,4,25
159,178,4,25
159,177,5,25
158,177,4,25
157,176,4,25
157,176,4,25
156,175,4,25
156,174,4,24
155,174,4,24
155,172,4,24
154,172,4,24
153,171,4,24
153,171,4,24
152,169,4,24
152,169,4,24
151,167,4,24
151,167,3,24
150,167,3,23
149,166,3,23
149,166,3,23
148,165,4,23
147,164,3,23
147,163,3,22
147,163,3,22
146,162,3,22
145,161,3,22
145,161,3,22
144,160,3,22
143,159,3,22
143,159,3,21
143,158,3,22
142,158,3,21
142,157,3,22
141,156,3,21
141,156,3,21
140,155,3,21
140,154,3,21
139,154,3,20
138,153,3,20
138,153,3,20
137,152,3,20
137,152,3,20
135,151,2,20
135,150,3,20
135,150,3,19
135,149,3,19
134,148,2,19
134,147,3,19
133,147,2,19
133,147,3,19
132,146,3,19
131,145,3,19
131,145,2,19
131,144,3,19
130,143,3,19
130,143,3,19
129,142,3,19
129,142,2,18
128,141,2,18
127,141,2,18
127,140,2,18
127,140,2,18
126,139,2,18
126,139,2,18
125,138,2,17
124,137,2,17
125,137,2,17
124,135,2,17
123,135,2,17
123,135,2,17
123,135,2,17
122,134,2,17
121,134,2,17
120,133,2,16
120,132,2,16
120,132,2,17
120,131,2,16
119,131,2,16
119,130,2,16
118,130,2,16
118,129,2,16
117,129,1,15
117,128,2,16
117,127,2,23
115,127,2,24
115,127,2,23
115,126,2,23
115,126,2,24
114,125,2,23
114,125,2,23
113,124,1,23
112,124,2,22
112,123,1,22
112,123,2,22
112,122,1,22
111,121,2,22
111,121,1,22
110,121,2,22
110,120,1,21
110,120,1,21
109,120,1,21
109,119,1,21
108,119,1,21
108,118,1,21
108,118,1,21
107,117,1,20
107,116,1,20
106,116,1,20
108,115,1,20
178,115,1,19
176,115,1,19
175,114,1,19
174,114,1,19
173,113,1,19
172,113,1,19
171,112,1,19
170,112,1,19
169,112,1,19
167,111,1,19
167,111,1,19
167,110,1,18
166,110,1,18
165,109,1,18
164,109,1,18
163,108,1,18
162,108,1,18
162,108,1,18
161,107,1,18
159,107,1,18
159,107,1,18
159,106,1,17
158,105,1,17
157,105,1,17
157,105,1,17
155,103,1,17
155,103,1,17
154,103,1,17
153,103,0,17
152,103,1,17
152,102,1,16
152,102,1,17
150,102,1,16
150,101,1,16
149,100,1,16
148,100,1,15
148,99,1,16
147,99,1,15
146,99,0,15
146,99,1,15
145,98,1,15
144,98,1,15
143,97,0,15
143,97,1,15
142,97,1,15
142,96,1,15
141,96,0,15
141,96,1,15
140,96,0,15
140,95,1,15
139,95,0,14
138,94,0,15
137,94,0,14
137,94,0,14
135,93,0,14
135,93,1,14
135,93,1,14
135,92,1,14
134,92,1,14
134,92,0,14
133,91,1,14
132,91,1,14
131,90,0,14
131,90,0,14
131,89,0,14
130,89,0,14
129,89,0,13
129,89,0,14
128,89,0,13
127,88,1,13
127,88,1,13
126,88,0,13
126,88,0,13
125,87,0,13
125,87,0,12
124,87,0,13
124,86,0,15
123,86,0,15
123,85,0,15
123,85,0,15
121,84,0,15
121,84,0,15
121,84,0,15
120,84,0,15
120,83,0,15
120,83,0,14
119,83,0,14
118,82,0,14
118,82,0,14
117,82,0,14
116,81,0,14
116,81,0,14
115,81,0,14
115,80,0,14
115,80,0,14
115,80,0,14
114,79,0,13
113,79,0,13
113,79,0,14
112,79,0,13
112,79,0,13
111,78,0,13
111,78,0,13
111,78,0,14
110,77,0,13
110,77,0,13
109,77,0,14
109,76,0,13
108,76,0,13
108,76,0,13
108,76,0,13
107,76,0,13
107,75,0,13
106,75,0,13
106,75,0,13
105,74,0,13
105,74,0,13
104,73,0,13
103,73,0,13
103,73,0,12
103,73,0,13
103,73,0,12
103,71,0,12
102,71,0,12
102,71,0,12
101,71,0,12
101,71,0,12
101,71,0,15
100,71,0,18
99,70,0,17
99,70,0,16
99,70,0,17
99,70,0,17
99,70,0,17
98,69,0,16
98,69,0,16
97,69,0,16
97,68,0,16
97,68,0,16
97,68,0,15
96,67,0,15
96,67,0,15
96,67,0,15
96,67,0,15
95,67,0,15
95,66,0,15
94,66,0,15
94,66,0,15
94,65,0,15
93,66,0,15
93,65,0,15
92,65,0,14
93,65,0,15
92,64,0,15
92,64,0,14
92,64,0,14
91,63,0,14
91,63,0,14
91,63,0,14
90,63,0,14
90,63,0,14
89,63,0,14
89,62,0,14
89,63,0,14
88,62,0,14
89,62,0,14
88,62,0,13
88,61,0,13
88,61,0,14
88,61,0,14
87,61,0,14
87,60,0,14
86,60,0,13
86,60,0,13
86,60,0,13
85,60,0,14
85,59,0,13
85,59,0,13
84,59,0,13
84,59,0,13
84,59,0,12
83,59,0,12
83,58,0,13
83,58,0,12
83,58,0,13
82,57,0,13
82,57,0,13
82,57,0,12
82,57,0,13
81,57,0,12
81,56,0,12
81,56,0,12
80,56,0,12
80,56,0,12
79,56,0,12
79,56,0,12
79,56,0,12
79,55,0,12
79,55,0,12
78,55,0,12
78,55,0,12
78,54,0,11
78,54,0,12
78,54,0,12
77,54,0,11
77,53,0,11
77,53,0,11
77,53,0,11
76,53,0,11
76,53,0,11
76,53,0,12
76,52,0,12
75,52,0,11
75,51,0,11
75,51,0,11
74,51,0,11
74,51,0,11
74,51,0,11
73,51,0,11
73,51,0,11
73,51,0,11
73,50,0,11
71,50,0,10
71,50,0,10
71,50,0,11
71,50,0,10
71,49,0,10
71,49,0,10
71,49,0,10
71,49,0,10
71,49,0,10
71,49,0,10
71,48,0,10
70,48,1,9
70,48,0,9
69,48,0,10
69,48,0,10
69,48,0,10
69,47,0,9
68,48,0,14
68,47,0,13
68,47,0,13
67,47,0,13
67,46,0,13
67,46,0,13
67,46,0,13
67,46,0,13
67,46,0,13
66,46,0,12
66,46,0,13
66,45,0,12
66,45,0,13
65,45,0,12
65,45,0,12
65,44,0,12
64,44,0,12
64,44,0,12
64,44,0,12
64,44,0,12
63,44,0,12
63,44,0,12
63,44,0,12
63,44,0,12
63,43,0,12
63,43,0,12
62,43,0,11
62,43,0,12
62,42,0,12
62,43,0,12
62,42,0,12
61,42,0,11
61,42,0,11
61,42,0,11
61,41,0,11
60,41,0,11
60,41,0,11
60,41,0,11
60,41,0,11
60,41,0,11
60,41,0,12
59,40,0,13
59,39,0,13
59,39,0,13
59,39,0,13
58,39,0,13
58,39,0,13
58,39,0,12
58,39,0,12
58,39,1,12
57,39,0,12
57,39,0,12
57,39,1,12
57,39,0,12
56,38,1,12
56,38,0,12
56,38,0,12
56,38,0,12
56,38,0,12
56,38,1,12
56,38,0,12
56,37,0,12
55,37,1,11
56,37,1,11
55,37,1,11
55,37,0,12
54,36,1,11
54,37,1,11
54,36,1,11
54,36,0,12
54,36,0,11
53,36,1,12
53,36,0,11
53,35,0,12
53,35,0,11
52,35,1,11
53,35,0,11
52,35,1,11
51,35,0,11
52,35,0,11
51,35,1,11
51,35,0,11
51,34,0,11
51,35,0,11
51,34,0,11
51,34,0,11
51,34,0,11
50,34,1,11
50,34,1,10
50,34,0,11
50,34,1,10
49,33,1,10
49,33,0,10
49,33,0,10
49,33,1,10
49,33,1,10
49,33,1,10
49,33,0,10
48,32,1,10
48,32,1,10
48,32,0,10
48,32,1,10
48,32,1,10
48,31,1,9
47,31,1,9
47,31,0,9
47,31,1,9
46,31,0,9
47,31,0,9
46,31,0,9
46,31,1,9
46,31,0,10
46,31,1,11
46,31,0,10
46,30,0,10
46,30,1,9
45,30,1,10
45,30,0,9
45,30,0,9
45,30,0,9
45,30,0,9
45,30,0,9
44,30,0,9
44,29,0,9
44,29,1,9
44,30,0,12
44,29,0,15
44,29,0,15
44,29,1,15
43,29,0,15
43,29,0,15
43,29,0,14
43,28,1,14
43,28,0,14
43,28,0,14
42,28,0,14
43,28,0,14
42,28,0,14
42,28,0,14
41,28,0,14
41,28,0,14
42,28,0,14
41,28,0,14
41,27,0,13
41,27,0,14
41,27,0,13
40,27,0,13
40,27,0,13
39,27,0,13
39,26,1,13
39,27,0,13
39,27,0,13
39,26,0,13
39,26,0,13
39,27,0,13
39,26,0,13
39,26,0,13
39,26,0,13
39,25,0,13
39,25,0,13
39,25,0,13
39,25,0,13
38,25,0,13
38,25,0,13
38,25,0,12
38,25,0,12
38,25,0,12
38,25,0,12
38,24,0,12
38,24,0,12
37,24,0,12
37,24,0,12
37,24,0,12
37,24,0,12
37,24,0,12
37,24,0,11
37,24,0,11
36,24,0,11
36,24,0,11
36,24,0,11
36,24,0,11
35,24,0,11
35,24,0,11
35,24,0,12
35,23,0,11
35,23,0,11
35,23,0,11
35,23,0,11
35,23,1,11
35,23,1,11
35,23,1,11
34,22,0,11
34,22,0,11
34,23,0,10
34,22,0,11
34,22,1,19
34,22,0,19
34,22,0,19
34,22,0,18
33,22,0,18
34,22,1,18
33,21,0,18
33,21,0,18
33,22,1,18
33,21,0,18
33,21,0,17
32,21,1,17
33,21,0,20
32,21,0,33
33,21,1,33
32,21,0,33
32,21,0,33
32,20,0,33
32,20,0,33
31,20,0,32
32,20,0,32
31,20,1,32
31,19,1,31
31,20,0,32
31,19,0,31
31,19,0,31
31,19,1,31
31,19,0,31
31,19,1,31
31,19,0,31
31,19,1,31
31,19,1,31
31,19,0,30
30,19,0,30
30,19,1,30
30,19,1,30
30,19,1,30
30,19,0,30
30,18,0,30
30,19,1,29
30,19,0,29
29,19,0,29
31,19,0,29
32,18,1,29
31,18,0,28
31,18,0,29
31,18,0,28
31,18,1,28
31,18,0,28
31,18,0,28
31,18,1,28
31,17,1,28
31,17,0,28
30,17,0,28
30,17,0,27
30,17,1,27
31,17,0,27
31,17,1,27
31,17,0,27
31,17,1,27
31,17,0,27
31,17,0,26
31,17,0,26
31,17,0,26
30,17,1,26
30,16,0,25
30,16,0,26
30,16,0,25
30,16,0,35
30,16,0,47
30,17,0,47
30,17,0,47
30,17,0,46
30,16,0,46
29,16,0,46
30,17,0,45
29,16,0,45
29,16,0,45
29,16,0,45
29,16,0,44
28,16,0,44
28,15,0,44
28,16,0,44
29,16,0,44
33,16,0,44
32,16,0,43
32,16,0,43
32,16,0,43
32,15,0,42
31,15,0,42
31,16,1,42
31,15,0,42
31,15,1,42
31,15,1,41
31,15,1,41
31,15,0,41
30,15,1,41
31,15,0,41
32,15,0,41
31,15,1,39
31,15,0,39
31,15,1,39
31,15,0,39
31,15,0,39
31,15,1,39
31,15,1,39
30,15,1,39
30,14,1,39
30,15,1,39
30,15,1,39
30,14,1,38
35,15,0,38
35,15,1,38
34,15,1,38
34,15,1,38
34,14,0,38
34,14,0,37
34,15,0,37
33,14,0,37
33,14,0,37
33,14,1,36
33,14,0,36
33,14,1,36
33,14,0,36
32,14,1,36
50,14,1,36
49,14,0,36
49,14,0,35
49,14,0,35
48,14,1,35
48,13,0,35
48,14,0,35
48,14,1,35
48,14,1,35
48,13,0,34
47,14,1,34
46,13,1,34
46,13,0,34
46,13,0,34
50,15,1,34
49,15,0,34
49,15,0,33
49,15,0,33
49,15,0,33
48,15,0,33
48,15,0,33
48,15,0,33
48,15,0,33
48,14,0,33
48,14,1,33
47,14,1,32
47,14,0,31
47,16,0,32
47,26,0,31
47,26,1,31
46,26,0,31
46,25,0,31
46,25,0,31
46,25,1,31
46,25,1,31
46,25,1,30
45,25,1,30
45,25,1,30
45,24,0,30
44,24,1,30
44,24,1,30
44,27,0,30
47,31,1,30
46,31,1,29
46,31,1,29
46,31,1,29
46,31,1,29
45,30,1,29
45,30,1,29
45,30,1,29
45,30,1,29
44,30,1,28
44,30,0,28
44,30,1,28
44,29,0,29
46,35,1,40
51,35,1,39
51,35,1,39
51,35,0,39
51,35,1,39
50,35,1,39
50,35,0,39
50,34,1,39
50,34,1,38
49,34,0,38
49,34,1,38
49,34,0,38
48,34,1,37
48,33,1,39
58,37,1,52
61,37,1,51
61,36,1,51
60,36,0,51
60,35,1,51
60,35,0,50
59,35,1,50
59,35,1,50
59,35,1,50
59,35,1,49
59,35,1,49
58,34,1,49
58,34,1,48
57,34,1,48
76,42,1,48
79,42,1,48
78,41,1,48
78,41,1,48
78,41,1,47
77,41,1,47
77,41,1,47
76,39,1,47
76,39,1,47
76,39,1,46
75,39,1,45
75,39,1,46
74,39,1,45
74,39,1,45
73,52,1,45
74,51,1,45
73,51,1,45
73,51,1,44
72,50,1,44
71,50,1,44
71,50,1,44
71,50,1,44
71,49,1,43
71,49,1,43
71,49,1,43
70,49,1,43
70,48,1,43
70,48,1,42
69,54,1,42
70,53,1,42
69,53,1,41
69,52,1,41
68,52,1,41
67,52,1,41
67,51,1,41
67,51,1,41
67,51,1,41
67,51,1,39
67,51,1,39
66,50,1,39
66,50,1,39
66,54,1,39
66,57,1,39
66,57,1,39
65,57,1,39
65,57,1,39
65,56,1,39
65,56,1,39
64,56,1,39
63,56,1,38
63,55,1,38
63,55,1,38
63,54,1,38
63,54,1,38
63,54,1,37
62,70,1,37
63,76,1,37
62,75,1,37
62,75,1,36
62,75,1,36
61,74,1,36
61,73,1,36
61,73,2,36
60,73,2,35
60,73,2,36
60,71,2,35
60,71,2,35
60,71,2,35
60,71,1,35
59,75,2,35
59,75,1,35
59,74,1,35
59,73,1,35
59,73,1,35
58,73,1,35
58,73,1,34
57,72,3,34
57,71,2,34
57,71,2,34
57,71,2,33
57,71,2,33
57,71,2,33
56,70,2,33
56,79,2,33
56,79,2,33
56,78,2,33
56,78,2,33
55,77,2,32
55,77,2,32
56,77,2,32
54,76,2,31
54,76,2,31
54,76,2,31
54,75,2,31
54,75,2,31
53,74,2,31
53,74,2,31
60,76,2,31
60,76,2,31
60,76,2,31
60,76,2,31
60,75,2,31
59,75,2,31
59,75,2,30
58,74,2,31
58,73,2,30
58,74,2,30
57,73,2,30
57,73,2,30
57,71,2,30
57,71,2,30
61,71,2,30
61,71,2,29
61,71,2,29
60,71,2,29
60,70,2,29
60,70,2,29
59,70,2,29
59,70,2,28
58,69,3,29
58,69,2,28
58,68,2,28
58,68,2,28
57,68,2,28
57,68,2,28
58,68,2,28
58,67,2,28
58,67,2,27
57,67,2,27
57,67,2,27
57,66,2,28
57,66,2,28
56,66,2,27
56,65,2,26
56,65,2,27
56,65,2,26
56,65,2,26
55,64,2,26
55,66,2,27
60,70,2,27
60,69,2,26
59,69,2,26
59,68,2,26
59,68,2,26
59,67,2,25
59,67,2,25
58,67,2,25
58,67,2,25
57,66,2,25
57,66,2,25
57,66,2,25
56,65,2,25
59,73,2,25
62,77,2,25
62,76,2,24
61,76,2,24
61,75,2,24
61,75,2,24
61,75,2,24
60,74,2,24
60,73,2,24
60,73,2,24
60,73,2,24
59,73,2,24
59,71,2,24
58,71,2,23
58,74,2,23
60,74,2,23
60,74,2,23
59,73,2,23
59,73,2,22
59,73,1,23
59,71,2,23
58,71,2,22
58,71,2,22
57,71,2,22
57,71,2,22
57,71,2,22
57,70,2,22
57,70,2,22
58,70,2,21
62,71,2,22
62,70,2,21
62,70,2,21
61,70,2,21
61,69,2,21
61,69,2,21
60,68,2,21
60,67,2,20
60,67,2,20
60,67,2,20
59,67,2,20
59,67,1,20
59,66,2,25
59,68,2,25
59,68,2,25
59,67,1,25
58,67,2,25
58,67,2,25
57,67,2,24
57,66,2,24
57,66,2,24
