66,197,15,10
66,196,14,10
66,195,14,10
66,195,14,10
66,194,14,9
65,193,14,9
65,192,14,9
64,191,14,9
64,190,14,12
63,189,14,13
63,188,14,14
63,187,14,13
63,186,14,12
63,185,13,12
63,184,13,12
62,184,13,12
65,183,13,12
64,182,13,12
64,181,13,12
63,180,13,12
63,179,13,12
63,187,13,12
63,229,13,12
63,227,13,12
62,226,13,12
62,225,13,12
62,224,12,12
61,223,12,12
64,221,12,12
63,220,12,11
63,219,12,11
63,217,12,12
63,216,12,11
62,216,12,11
62,231,12,11
61,231,12,11
61,229,12,11
61,227,12,10
61,227,12,11
60,225,12,10
62,224,12,10
63,223,12,10
62,222,12,10
62,221,11,10
62,220,11,10
61,219,11,11
62,217,12,12
61,217,12,12
60,215,12,12
60,214,12,12
60,213,12,12
60,211,12,12
59,211,11,12
67,210,11,11
66,209,11,11
66,207,11,11
65,207,11,11
65,206,11,11
65,205,25,11
64,204,26,11
63,203,25,11
63,202,25,11
63,199,25,11
63,199,25,11
63,199,24,11
63,198,24,11
65,197,24,11
65,196,24,10
65,195,24,10
64,194,24,10
64,193,24,10
63,225,24,10
63,224,23,10
63,222,23,10
63,221,24,9
62,220,23,10
62,220,23,9
62,218,23,9
68,217,23,9
67,216,22,9
67,215,22,9
67,214,22,9
67,213,22,9
67,211,22,9
66,211,22,9
66,209,22,9
65,209,21,9
65,207,21,9
65,207,21,8
65,206,21,9
64,205,21,9
69,204,21,7
69,203,21,9
68,202,20,7
67,201,20,9
67,199,20,7
67,199,20,8
67,199,20,9
66,199,20,7
66,199,20,7
66,198,20,7
65,197,19,7
65,195,19,7
65,195,19,7
65,194,19,7
65,193,19,7
65,192,19,8
64,191,19,7
64,190,19,7
63,190,19,7
63,221,19,7
63,219,19,7
63,218,18,7
63,217,18,7
62,216,18,7
62,215,18,7
62,214,18,7
65,212,18,7
64,211,18,7
64,211,17,7
64,209,17,7
63,207,17,7
63,207,17,7
63,209,17,7
63,207,17,7
62,207,17,7
62,206,17,7
62,205,17,7
61,204,17,7
61,203,17,7
63,202,16,7
62,201,16,7
62,199,16,7
62,199,16,7
61,198,16,6
61,197,16,7
61,211,16,7
61,211,16,7
61,210,15,7
60,209,15,7
60,207,15,6
60,207,15,6
59,206,15,6
61,205,15,6
61,204,15,6
61,203,15,6
61,202,15,6
60,201,15,6
60,199,15,7
60,199,15,7
60,198,15,7
59,197,15,7
59,195,15,7
59,195,14,7
58,195,15,7
58,193,14,7
67,193,14,7
67,192,14,7
67,191,14,7
67,190,14,7
66,189,14,7
66,188,15,7
65,227,15,7
65,231,15,7
65,231,15,8
64,230,15,7
63,228,15,7
63,227,15,7
63,226,14,7
65,225,15,7
66,224,14,7
65,223,15,7
65,222,15,7
65,220,14,7
64,219,14,7
64,219,15,7
63,222,15,7
63,221,15,7
63,220,15,7
63,219,14,10
62,217,15,71
62,217,15,161
63,216,14,201
63,214,14,199
62,213,14,197
62,212,14,196
62,211,14,195
61,209,14,194
61,211,14,192
61,210,14,191
60,209,14,190
60,207,14,189
60,206,14,188
60,206,13,188
63,204,13,186
62,203,13,185
62,202,13,184
61,201,13,184
61,199,13,183
60,205,14,283
61,248,14,378
60,245,14,519
60,243,14,643
60,242,14,635
59,241,14,630
60,240,14,624
62,238,14,618
62,237,14,614
62,236,13,608
61,234,13,604
61,233,54,600
60,231,105,594
60,231,103,589
60,229,103,658
60,227,103,847
59,227,102,868
59,225,101,856
63,224,100,845
62,223,99,837
62,222,99,829
61,220,99,819
61,220,98,813
61,227,98,803
60,255,97,797
60,253,97,787
60,252,96,781
60,250,96,775
59,249,95,767
59,248,94,761
61,246,94,753
61,244,94,747
60,243,93,741
60,242,93,734
59,241,92,728
59,240,92,721
59,244,91,716
59,243,91,709
58,241,91,704
58,240,90,699
57,239,89,691
59,237,89,688
65,236,88,681
65,235,88,676
65,233,88,671
65,231,88,770
63,231,87,763
63,230,87,754
63,229,86,748
63,227,85,740
62,227,85,734
62,225,85,728
62,224,84,721
68,223,84,716
68,222,83,708
68,220,83,703
67,220,83,697
67,218,82,691
67,217,82,686
66,227,81,679
66,227,81,674
65,225,81,668
65,224,79,664
65,223,79,659
64,222,79,653
70,220,79,649
71,219,79,643
70,218,78,639
70,217,78,635
69,216,77,681
69,215,77,688
68,214,78,680
68,213,78,675
67,211,79,669
67,211,78,664
67,210,78,659
67,209,77,652
70,207,77,647
70,207,77,641
69,206,76,637
70,205,76,729
68,204,75,892
68,204,75,904
68,224,75,910
67,223,74,913
67,222,74,915
67,221,73,918
67,219,73,919
67,218,72,920
76,217,71,921
75,216,71,921
75,215,71,920
75,213,71,911
74,212,73,888
73,219,74,878
73,221,73,867
73,220,73,860
73,219,73,850
71,217,71,843
71,216,71,835
76,215,71,826
76,214,71,819
76,212,71,810
75,211,70,804
75,210,70,797
74,209,69,789
74,224,69,782
73,222,69,774
73,222,68,768
73,220,68,760
71,219,67,754
71,218,67,749
76,217,67,741
76,216,67,736
75,214,67,728
75,213,66,723
74,212,66,718
73,211,65,711
73,211,65,706
73,209,65,699
71,208,64,695
71,207,64,688
71,206,63,684
71,205,63,679
73,204,63,672
72,203,63,668
71,202,63,662
71,201,62,658
71,199,62,654
71,199,62,647
71,202,61,643
71,201,61,638
70,199,61,634
70,199,61,628
69,198,61,625
70,197,60,621
71,195,60,615
71,195,60,611
71,194,60,607
71,193,59,603
71,192,59,600
70,194,59,595
69,193,58,591
69,192,58,587
68,191,57,583
68,190,57,578
68,189,57,575
73,188,57,572
74,187,56,568
74,187,56,563
73,185,56,560
73,184,56,556
73,184,56,553
71,204,55,549
71,202,55,546
71,201,55,542
71,199,54,539
71,199,54,536
70,198,54,532
73,196,53,529
71,195,53,526
71,194,53,523
71,193,53,519
71,193,53,516
71,192,53,513
71,206,51,509
70,205,51,507
70,204,51,503
69,203,51,500
69,201,51,497
69,199,51,495
70,199,50,492
70,198,50,487
69,197,50,486
69,195,50,483
68,195,49,480
68,194,49,478
67,209,49,536
67,207,49,552
67,206,49,547
66,205,48,543
67,204,48,539
66,203,48,536
70,201,48,531
69,201,47,527
69,199,47,524
69,199,47,519
67,198,47,516
67,237,46,513
67,236,46,508
67,235,46,505
66,233,46,502
66,231,45,499
66,230,45,495
67,229,45,492
67,227,45,489
66,226,44,486
66,225,44,483
66,224,44,479
65,223,44,476
65,221,44,475
64,221,44,471
64,220,44,469
63,218,43,465
63,217,43,463
63,216,43,460
65,215,42,457
66,214,42,455
65,212,42,453
65,211,42,451
64,210,41,448
63,209,41,446
63,207,41,443
63,207,41,440
63,206,41,439
63,205,41,435
62,204,40,433
62,203,39,431
63,201,39,429
63,201,39,427
62,199,39,423
62,199,39,422
62,198,39,419
61,197,39,417
62,216,39,415
61,214,63,413
60,213,98,412
60,211,97,409
60,211,96,407
60,209,96,405
66,207,95,403
66,207,95,401
65,206,94,399
65,205,94,397
65,204,105,467
64,207,105,463
63,224,103,460
63,223,103,455
63,221,103,453
63,220,103,450
63,219,102,447
79,217,101,444
79,217,100,440
78,216,100,438
78,214,99,435
77,212,99,432
77,211,98,430
76,240,97,427
76,239,97,425
76,237,97,422
75,236,96,419
75,234,96,417
74,233,96,415
78,231,95,412
78,231,94,409
78,229,94,408
77,227,93,404
77,227,93,402
76,227,93,400
76,243,92,398
75,242,92,396
75,240,91,393
74,239,91,391
74,237,90,390
77,236,90,387
78,235,89,386
78,233,89,384
78,231,88,382
77,231,88,380
77,230,88,377
76,258,88,376
76,269,87,374
76,267,86,372
75,265,86,371
75,263,86,369
74,262,85,368
75,261,85,365
76,259,84,364
76,257,83,361
75,255,83,359
75,255,83,358
74,254,82,356
74,255,82,355
73,254,81,353
73,253,81,352
73,251,81,350
73,250,80,348
71,248,80,347
73,248,79,345
73,246,79,344
71,244,79,342
71,243,78,340
71,242,78,338
71,241,78,337
71,265,77,335
70,263,77,334
70,261,77,332
69,259,76,331
69,258,76,329
69,255,76,327
69,255,75,326
69,254,75,325
68,252,156,323
68,251,221,321
67,249,304,319
67,254,302,318
67,253,300,317
67,251,297,316
66,250,295,314
66,248,293,313
66,247,291,311
70,246,290,310
70,244,288,307
69,243,286,307
69,241,285,305
68,240,283,304
68,249,281,303
67,284,280,301
67,282,279,300
67,280,277,298
66,279,275,295
66,276,273,295
66,275,272,294
66,273,271,293
65,271,269,291
65,270,268,290
64,268,267,289
64,267,265,287
63,265,263,286
63,263,263,285
63,263,260,284
63,261,259,282
62,259,258,281
63,259,257,280
63,257,255,278
63,255,332,278
63,254,329,275
62,253,326,275
62,251,323,273
62,250,322,271
61,249,319,271
61,248,318,270
61,247,316,268
60,245,314,267
61,243,313,266
67,242,311,265
67,241,310,263
67,240,307,263
66,238,306,262
66,237,304,260
65,273,302,259
65,270,300,276
64,269,299,275
64,267,297,272
63,265,295,271
63,263,369,270
70,262,472,268
69,261,595,267
69,259,589,265
69,258,583,263
68,255,577,262
67,293,574,261
67,334,568,259
67,331,565,258
66,329,560,257
66,327,556,255
66,325,551,254
79,323,547,254
78,319,543,252
78,318,540,251
77,316,536,249
77,315,532,249
76,312,527,248
76,311,525,247
76,309,521,246
76,307,518,245
75,306,514,243
74,304,510,243
81,302,507,241
81,300,504,241
81,299,500,240
80,297,497,239
79,295,494,238
79,294,491,236
79,291,487,236
78,290,484,234
78,289,481,233
77,287,478,231
77,286,475,231
77,284,472,230
78,282,470,230
78,281,467,228
77,280,463,227
77,278,461,227
76,276,458,225
75,280,455,225
75,277,452,224
75,275,450,223
75,274,447,222
74,273,445,221
73,271,442,220
74,270,440,219
73,268,437,218
73,267,434,217
73,265,432,216
73,263,429,216
71,263,427,215
71,261,423,214
71,260,422,213
71,259,419,212
71,257,417,211
70,255,415,210
71,255,413,209
71,253,410,208
70,252,408,207
70,251,406,207
69,249,403,206
69,249,401,205
68,268,399,205
68,267,397,203
67,265,395,202
67,263,393,201
67,262,391,201
79,260,388,199
78,259,386,199
77,257,384,198
77,255,382,197
76,255,380,197
76,253,377,195
76,271,376,195
75,269,374,194
75,268,371,193
74,265,370,193
74,263,368,192
85,263,366,191
87,261,364,190
87,259,362,189
86,258,359,189
86,256,359,188
85,255,357,188
84,261,354,187
84,259,353,185
83,258,351,185
83,257,350,184
83,255,348,184
96,254,345,183
103,252,344,182
102,251,342,181
102,249,340,180
101,248,338,179
100,246,337,179
99,258,335,178
99,255,334,177
99,255,332,176
98,253,330,176
97,251,327,175
102,250,327,175
103,248,325,174
103,247,323,173
103,245,322,172
102,244,319,172
101,243,319,171
100,241,316,170
100,240,315,238
99,239,313,236
99,238,312,235
98,237,311,233
99,236,309,231
100,234,307,230
99,233,306,229
99,231,304,227
99,230,303,226
98,230,302,225
97,252,300,224
97,250,299,223
96,248,297,221
96,247,295,220
95,246,294,219
99,243,293,218
101,243,291,216
100,241,290,216
99,240,289,215
99,239,287,214
99,237,286,212
98,236,285,211
97,235,283,210
97,233,282,209
97,231,281,207
96,231,280,207
96,230,278,206
96,228,277,205
96,227,275,204
96,226,274,203
95,225,273,201
94,224,271,199
94,231,270,199
93,230,269,199
92,228,268,198
92,227,267,196
92,226,265,195
91,225,263,195
92,223,263,194
92,222,262,193
91,221,261,192
90,220,259,191
89,219,258,190
89,243,257,189
89,248,255,188
88,247,254,187
88,245,253,187
88,243,252,185
88,242,251,184
87,241,249,184
86,239,249,183
86,238,248,182
85,236,247,181
85,236,245,180
84,238,244,179
84,239,243,178
83,238,242,178
83,236,241,177
82,235,240,176
82,233,239,175
82,231,238,174
81,231,237,174
81,230,236,172
80,228,235,172
80,227,234,171
79,226,233,171
79,225,231,170
79,224,231,169
79,223,230,167
78,221,229,167
78,220,227,167
78,219,226,166
78,218,225,165
77,217,224,165
77,216,224,164
76,215,223,163
76,214,221,163
76,219,221,162
75,218,219,161
75,217,219,161
74,216,218,159
73,215,217,159
73,213,216,159
76,211,215,158
75,211,214,158
75,210,213,157
75,209,212,156
74,207,211,156
74,219,210,155
73,217,209,154
73,216,208,154
73,216,207,153
71,214,207,152
71,213,206,152
71,211,205,152
71,211,204,151
71,209,203,150
71,207,202,150
70,207,201,149
70,224,200,148
70,224,199,147
70,222,199,147
69,221,198,147
69,220,197,146
68,219,196,145
75,217,195,145
75,216,194,143
74,215,193,143
73,214,193,143
73,212,192,142
73,237,192,142
72,246,191,141
71,244,189,141
71,242,189,140
71,241,188,140
71,240,187,139
82,238,186,138
81,237,185,138
81,235,185,137
80,234,184,137
79,231,184,135
79,231,182,135
79,257,182,135
78,255,181,135
78,254,179,134
77,252,179,134
77,251,179,133
78,249,178,132
79,248,177,131
79,246,176,131
78,245,176,131
78,243,175,131
78,242,174,130
77,241,174,129
77,240,173,129
77,238,172,128
76,237,172,127
75,235,171,127
75,234,170,127
76,233,169,126
76,231,167,126
76,230,167,126
75,229,167,125
75,227,166,124
74,249,166,124
74,247,164,123
73,246,164,123
73,243,163,122
71,243,163,122
71,241,162,121
75,240,161,121
75,238,161,120
74,237,159,120
73,236,159,120
73,234,159,119
73,234,158,119
71,233,158,118
71,231,157,118
71,230,156,117
71,229,156,116
71,227,155,116
71,226,155,115
71,225,153,115
71,224,153,115
71,223,152,114
70,222,152,114
70,226,152,113
70,231,151,113
69,230,150,112
69,228,149,112
68,227,149,112
68,226,148,111
71,224,147,111
71,223,147,110
71,222,146,110
70,221,145,110
70,219,145,109
69,218,143,109
69,217,143,108
68,216,143,108
68,215,143,107
67,214,142,107
67,213,141,107
70,211,141,106
70,211,140,105
70,209,140,105
69,207,139,105
68,207,138,103
68,206,138,103
67,220,137,103
67,218,137,103
67,217,135,103
67,216,135,103
66,214,135,102
66,213,134,102
71,211,134,101
70,211,133,101
70,209,133,100
70,207,132,100
69,207,131,100
69,213,131,99
68,212,131,99
67,211,130,98
67,209,129,98
67,207,129,97
67,207,129,97
68,206,128,97
68,205,127,97
67,204,127,96
67,203,126,96
67,202,126,96
66,201,126,96
66,213,125,95
65,211,124,95
65,210,124,94
65,209,123,94
64,207,123,93
64,206,123,93
67,206,122,93
67,204,122,92
66,204,121,92
66,202,121,92
65,201,120,91
65,199,120,91
64,199,120,91
64,198,119,90
64,197,118,90
63,196,118,89
63,195,117,89
63,195,117,89
67,194,116,89
67,193,116,88
67,192,115,88
66,191,115,88
66,190,115,88
66,203,114,88
65,206,114,87
65,205,113,87
65,204,113,86
64,203,112,86
63,201,112,85
66,199,112,85
67,199,111,85
66,198,111,84
66,197,110,83
65,195,110,83
65,195,109,83
65,225,109,83
64,223,108,83
64,221,108,82
63,220,108,82
63,219,107,82
63,218,107,81
67,216,106,81
66,215,106,81
66,214,105,80
65,213,105,80
65,211,105,79
65,211,103,79
65,209,103,79
64,207,103,79
63,207,103,79
63,206,103,79
63,205,102,78
63,204,102,78
66,203,102,78
65,202,101,77
65,199,101,77
65,199,100,77
65,199,99,76
64,198,99,76
63,197,99,76
63,196,99,76
63,195,98,76
63,194,99,75
62,193,98,75
62,192,97,75
79,191,97,75
79,190,96,74
79,189,96,74
78,188,96,73
78,188,96,73
78,187,95,73
77,213,95,73
77,211,94,72
76,210,94,71
76,209,94,71
76,208,93,71
75,207,93,71
88,206,93,71
88,205,92,71
88,204,92,71
87,203,92,71
86,202,91,70
86,201,91,70
85,199,90,69
85,199,91,69
84,198,90,69
84,197,89,69
83,196,89,68
83,195,89,68
83,194,89,68
86,193,88,68
85,192,88,68
85,192,88,67
84,191,88,67
83,189,87,67
83,188,87,67
83,188,86,67
83,187,86,66
82,185,86,66
81,185,85,65
81,184,85,65
81,184,85,65
85,183,84,65
85,181,84,65
84,181,83,64
83,180,83,64
83,179,83,63
83,179,83,63
83,179,83,63
82,178,82,63
82,177,82,63
81,177,82,63
81,176,81,63
80,175,81,63
82,174,81,62
88,173,81,62
86,173,79,62
86,172,79,62
85,171,79,62
85,171,79,61
85,172,79,61
84,188,78,61
83,187,78,60
83,186,78,61
83,185,78,60
82,184,77,60
82,183,77,60
100,182,77,59
99,182,76,59
99,180,76,59
98,179,76,59
98,179,76,58
97,178,76,58
97,201,75,58
96,199,75,58
96,199,74,57
95,198,75,57
95,197,74,57
94,195,73,57
95,195,73,57
95,194,73,56
94,193,73,56
94,192,72,56
93,191,71,56
93,190,71,56
92,189,71,56
92,188,71,56
92,187,71,55
91,186,71,55
91,185,71,55
89,184,70,54
90,184,70,54
92,183,70,54
92,182,69,54
91,180,69,54
91,180,69,54
90,179,69,53
90,179,68,53
89,199,68,53
89,199,68,52
89,198,67,53
88,197,67,52
88,196,67,52
87,195,67,52
91,194,67,51
90,193,67,51
89,192,66,51
89,191,66,51
89,190,66,51
89,189,65,51
88,194,65,51
88,193,65,51
88,192,64,50
87,192,64,50
86,190,64,49
86,189,63,49
86,188,63,49
86,188,63,49
85,186,63,49
85,185,63,49
85,184,62,48
84,184,62,49
84,209,62,48
83,210,62,48
83,209,62,48
83,207,61,48
82,206,61,48
82,205,61,47
81,205,61,48
92,204,61,47
91,203,60,47
91,201,60,47
91,199,60,47
90,199,60,46
89,199,60,46
89,211,59,46
89,210,59,46
88,209,59,46
88,207,59,45
88,207,59,45
87,206,58,45
86,205,58,45
86,204,57,45
85,203,57,44
85,201,57,45
85,201,57,44
84,199,57,44
84,207,56,44
83,206,56,44
83,205,56,44
82,204,56,44
82,203,56,44
82,201,56,43
83,201,55,43
83,199,55,43
83,198,55,43
83,198,55,43
82,197,54,42
82,195,54,42
81,199,54,41
81,203,54,42
80,203,53,41
80,201,53,41
79,199,53,41
79,199,53,41
79,198,53,41
79,197,52,41
78,196,52,41
78,195,52,40
78,194,51,39
78,193,51,39
77,192,51,39
77,223,51,39
77,222,51,39
76,221,51,39
76,219,51,39
75,218,50,39
75,217,50,39
77,216,50,39
77,214,50,39
76,213,49,39
76,212,49,39
76,211,49,39
75,210,49,38
75,226,49,38
75,225,48,38
74,224,48,38
73,222,49,38
73,221,48,38
73,220,48,37
71,219,48,37
74,217,47,37
73,216,47,37
73,216,47,37
73,214,47,37
73,213,46,36
71,212,47,36
71,214,46,36
71,213,46,36
71,211,46,36
71,211,46,36
70,209,46,35
71,209,46,35
71,207,45,35
71,206,45,35
70,205,45,35
70,204,45,35
70,203,44,35
69,202,44,35
69,211,44,35
69,211,44,34
68,210,44,34
67,207,44,34
67,207,43,34
67,206,43,34
67,205,43,34
67,204,43,34
67,203,43,33
67,202,43,33
66,201,43,33
66,199,42,33
65,212,42,33
65,224,41,33
65,223,42,33
65,221,41,32
64,220,41,33
64,219,41,32
63,218,41,31
65,217,41,31
64,216,40,32
63,215,39,31
63,214,39,31
63,212,39,31
63,211,39,31
62,213,39,31
62,212,39,31
62,211,39,31
62,210,39,31
62,209,39,30
61,207,39,31
61,206,39,30
61,206,39,30
60,204,39,30
60,204,38,30
60,202,38,30
60,201,38,30
59,233,38,30
59,231,38,29
58,230,38,30
58,229,37,29
58,227,37,29
58,227,37,29
58,225,37,29
57,224,37,29
57,223,37,29
57,222,37,29
57,220,36,28
57,219,36,29
57,218,36,29
56,220,36,28
56,219,35,28
56,218,35,28
56,217,35,28
56,216,35,28
55,215,35,28
54,213,35,28
54,213,35,27
54,211,35,27
54,211,35,27
54,209,35,27
53,208,34,27
53,213,34,27
53,211,34,27
52,210,34,27
52,209,33,27
52,207,34,27
51,207,33,26
52,206,33,26
52,205,33,26
52,204,33,26
51,203,33,26
51,202,32,26
51,201,32,25
51,228,33,25
50,239,32,25
50,237,32,25
50,235,31,25
50,234,32,25
50,233,31,25
49,231,31,25
50,230,31,24
49,229,31,24
49,228,31,24
49,227,31,24
49,225,31,24
48,225,30,24
48,224,31,24
48,222,31,24
48,221,31,24
48,220,30,24
47,219,30,24
47,218,30,24
51,217,30,24
51,216,30,24
51,215,29,24
50,213,29,24
50,213,29,23
50,211,29,23
50,211,29,23
49,209,29,23
49,209,29,23
49,207,28,23
49,207,29,23
48,206,28,23
55,205,29,22
56,204,28,22
55,203,28,22
55,201,28,22
54,201,28,22
55,199,28,22
55,210,27,22
54,240,28,22
53,239,27,21
53,238,27,21
53,236,27,21
52,235,27,21
52,233,27,21
60,231,27,21
59,231,27,21
59,230,27,21
58,229,26,21
58,227,27,21
58,227,26,20
58,226,26,20
57,224,25,21
57,223,26,20
57,222,25,20
56,221,25,19
56,220,25,20
58,219,25,19
59,217,25,20
58,217,25,20
57,216,25,19
57,215,25,19
57,214,25,19
57,217,25,19
56,219,24,19
56,218,25,19
56,217,24,19
56,216,24,19
56,214,24,19
56,213,24,19
56,212,24,19
56,211,24,19
56,210,24,18
55,209,24,18
54,207,24,18
55,207,24,18
54,209,24,18
53,207,23,18
53,207,23,18
53,206,23,18
53,205,23,18
52,204,23,18
54,203,23,18
54,202,22,18
53,201,22,17
53,199,22,17
52,199,22,17
52,198,22,17
51,199,22,17
51,198,22,17
51,197,22,17
51,195,21,17
51,195,21,17
51,194,22,17
51,193,21,16
53,192,21,17
53,191,21,16
52,190,21,16
52,189,21,17
52,189,21,17
51,212,20,16
51,211,20,16
51,209,20,16
51,209,20,16
51,207,21,16
50,206,20,16
50,205,20,16
51,204,20,16
51,203,19,15
51,202,19,15
51,201,19,15
51,199,19,16
50,199,19,15
50,198,19,15
50,197,19,15
49,195,19,15
50,195,19,15
49,194,19,15
49,193,19,14
56,192,19,15
56,191,19,15
56,190,19,15
56,189,19,15
56,188,19,14
55,187,18,15
55,217,19,15
55,216,18,14
54,215,18,14
54,213,18,14
54,211,18,14
53,211,18,14
55,210,17,14
67,209,17,14
67,207,18,14
66,206,17,14
66,205,17,14
65,204,17,14
65,203,17,14
64,203,17,13
64,202,17,14
64,201,17,13
63,199,17,13
63,199,17,13
63,198,16,13
73,197,16,13
73,196,16,13
71,195,16,13
71,194,16,13
71,193,16,13
71,192,16,13
71,193,16,13
70,193,16,13
70,192,16,13
70,191,16,13
69,190,15,13
69,189,16,12
79,188,15,12
79,187,15,12
78,186,15,12
77,185,15,12
77,184,15,12
77,183,15,12
76,217,15,12
76,216,15,12
76,215,15,12
75,213,15,12
75,212,15,12
74,211,14,12
75,210,14,12
81,209,15,12
80,207,14,11
79,206,14,12
79,206,14,11
79,204,14,11
79,204,14,12
78,215,14,11
77,214,14,11
77,213,14,11
77,211,14,11
77,210,14,11
76,209,14,11
83,207,13,11
83,207,13,11
83,206,14,11
82,205,13,11
81,204,14,11
81,203,13,11
81,214,13,10
80,213,13,11
79,211,13,11
79,210,13,10
79,209,13,10
79,207,13,10
81,207,13,10
83,206,13,10
82,205,12,11
81,204,13,10
81,203,13,10
80,201,13,10
80,207,13,10
79,214,12,10
79,212,12,9
79,211,12,10
79,209,12,9
78,209,12,9
78,207,12,9
78,207,12,9
78,206,12,9
78,205,12,9
78,204,12,9
77,203,12,9
77,202,12,9
76,202,12,9
76,205,12,9
76,204,12,9
75,203,11,9
75,202,11,9
75,201,11,9
74,199,11,9
76,199,11,9
76,198,11,9
76,198,11,9
76,197,11,9
75,195,11,9
74,195,11,8
74,194,11,9
73,201,11,9
73,199,11,8
73,199,11,9
71,198,11,8
71,197,11,8
71,196,11,7
71,195,11,7
71,195,11,7
71,193,10,7
71,193,10,7
71,192,10,7
71,191,10,7
70,192,10,7
70,216,10,9
70,215,9,7
69,214,10,7
69,213,9,7
68,211,10,7
68,211,10,7
68,209,9,7
68,208,9,7
67,207,9,7
67,207,9,7
67,206,9,7
67,205,9,7
67,204,9,7
66,217,9,7
66,216,9,7
65,215,9,7
65,214,9,7
65,212,9,7
64,211,9,7
64,211,9,7
65,210,9,7
65,208,9,7
65,207,9,7
64,207,9,7
63,206,8,7
63,205,9,7
63,204,9,7
63,204,7,7
62,204,9,7
62,203,8,7
62,202,7,7
62,201,8,7
62,199,7,7
61,199,7,6
61,198,7,7
61,197,7,6
60,196,7,6
60,195,7,6
60,195,7,7
60,194,7,6
60,193,7,6
59,201,7,6
59,199,7,7
59,199,7,7
58,199,7,6
58,198,7,7
58,196,7,6
57,195,7,6
60,195,7,6
60,194,7,6
59,193,7,6
59,192,7,6
59,192,7,6
58,191,7,6
58,199,7,6
58,207,7,6
57,207,7,6
57,205,7,6
57,204,7,6
57,204,7,6
56,203,7,6
57,201,7,6
60,201,7,6
60,199,7,6
60,199,7,6
60,198,7,6
59,197,7,6
59,196,7,5
59,199,7,5
58,198,7,6
57,197,7,6
57,195,7,5
57,195,7,5
57,195,6,5
56,193,6,5
57,192,6,5
57,192,7,5
57,190,6,5
57,190,6,5
57,189,6,5
56,188,6,5
56,188,6,5
56,207,6,5
56,206,6,5
56,205,6,5
56,204,6,5
55,203,6,5
54,202,6,5
54,201,6,5
62,199,6,5
61,199,6,5
61,199,6,5
61,198,6,5
61,196,6,5
60,195,6,4
60,195,6,5
60,219,6,4
59,217,6,5
59,216,6,4
59,215,5,4
59,214,6,4
58,213,5,4
58,212,6,4
59,211,5,4
59,210,5,4
58,209,5,5
58,207,6,4
58,207,6,4
58,206,6,4
57,205,5,4
57,221,5,4
57,220,5,4
57,220,5,4
56,218,5,4
56,217,5,4
56,216,5,4
56,216,5,4
58,214,5,3
58,213,5,4
58,212,5,4
57,211,5,4
57,210,5,3
57,210,5,3
57,209,5,4
56,225,4,3
56,224,5,3
56,222,5,4
56,222,5,3
56,220,5,3
56,219,4,4
55,218,4,3
57,217,4,4
57,216,4,3
57,216,5,3
56,214,4,3
56,213,4,3
56,212,4,3
56,211,4,3
55,221,4,3
55,219,4,3
55,218,4,4
54,217,4,3
54,216,4,3
54,216,4,3
54,214,4,3
56,213,4,3
55,212,3,3
54,211,4,3
55,210,4,3
54,209,4,3
54,208,4,3
54,215,3,3
53,216,4,5
53,214,4,3
53,213,4,3
52,212,3,3
52,211,3,3
52,210,3,3
56,209,3,3
55,208,3,3
55,207,4,3
54,206,3,3
54,206,3,3
54,204,3,3
54,204,3,3
53,203,3,3
53,202,3,3
53,201,3,3
53,199,3,3
53,199,3,3
52,198,3,3
52,197,3,3
55,197,3,3
56,195,3,3
55,195,3,3
54,194,3,3
54,193,3,3
54,192,3,3
54,192,3,3
53,191,3,3
53,190,3,3
53,189,3,3
53,188,3,2
52,188,3,3
52,187,3,3
52,186,3,3
56,185,3,3
56,184,3,3
56,184,3,3
55,183,3,2
55,182,3,3
54,181,3,2
54,182,3,2
54,226,3,2
54,225,3,2
54,224,3,3
53,223,3,2
53,222,3,2
52,221,3,2
53,220,3,2
57,218,3,2
57,217,2,2
57,216,3,2
57,216,3,2
56,214,3,2
56,213,3,2
56,213,3,2
56,216,2,2
56,216,3,2
56,215,3,2
55,213,3,2
54,212,2,2
54,211,2,2
54,210,2,2
60,209,3,2
60,208,3,2
60,207,2,2
59,207,2,2
59,206,3,2
59,205,2,2
59,204,2,2
58,222,2,2
58,221,2,3
58,220,2,2
57,219,2,2
57,218,2,2
57,217,2,2
57,216,2,2
58,216,2,2
57,214,2,2
57,213,2,2
57,211,2,2
57,211,2,2
56,210,2,2
56,226,2,2
56,227,2,2
56,226,2,2
55,225,2,2
55,224,2,2
55,223,2,2
55,222,2,2
55,221,2,2
57,220,2,2
57,219,2,2
57,218,2,2
56,216,2,2
56,216,2,2
56,215,2,1
56,215,2,2
56,215,2,2
55,214,2,1
55,213,2,2
54,211,2,1
54,211,2,1
54,210,2,2
55,209,2,1
55,207,2,1
55,207,2,1
55,206,2,1
54,205,2,1
54,204,2,1
54,204,1,1
53,205,2,1
53,204,1,1
53,204,2,1
53,202,1,1
52,201,2,1
52,201,1,1
52,199,1,1
61,199,1,2
61,198,1,1
61,197,1,1
61,196,1,1
60,195,1,1
60,195,2,1
60,194,2,1
60,207,2,1
60,206,2,1
59,205,1,1
59,204,1,1
58,203,2,1
58,202,2,1
57,201,2,1
63,199,1,1
63,199,1,1
62,198,1,1
62,198,1,1
62,196,1,1
62,195,1,1
61,197,1,1
61,208,2,1
61,207,1,1
60,206,1,1
60,206,1,1
60,205,1,1
60,204,2,1
60,203,1,1
67,201,1,1
67,199,1,1
66,199,1,1
66,199,1,1
66,198,1,1
65,197,1,1
65,197,1,1
65,227,1,2
65,226,1,1
64,225,1,1
63,224,1,1
63,223,1,1
63,222,1,1
63,221,1,1
68,220,1,1
67,219,1,1
67,217,1,1
67,217,1,1
67,216,1,1
66,215,1,1
66,226,1,1
66,228,1,1
65,227,1,1
65,226,1,1
65,225,1,1
64,224,1,1
63,224,1,1
64,222,1,1
65,221,1,1
66,220,1,1
65,219,1,1
65,218,1,1
65,217,1,1
64,216,1,1
63,216,1,1
63,215,1,1
63,214,1,1
63,213,1,1
62,212,1,1
62,211,1,1
62,210,1,1
62,209,1,1
62,207,1,2
62,207,1,1
62,206,1,0
61,206,1,1
61,205,1,1
61,204,1,1
61,204,1,1
60,203,1,1
60,201,1,1
60,199,1,1
60,199,1,1
59,199,1,1
59,198,1,2
63,197,1,1
63,196,1,1
63,195,1,1
63,195,1,1
63,194,1,1
63,193,0,1
62,192,1,1
62,210,1,1
62,209,1,1
61,207,1,1
61,207,0,0
61,206,1,0
61,205,1,1
60,204,1,1
62,204,1,0
62,202,1,0
62,201,1,0
61,199,0,0
61,199,1,0
61,199,0,1
60,207,1,1
60,239,1,1
60,237,0,0
60,236,1,1
59,235,0,0
59,234,1,1
59,233,0,1
58,231,0,0
62,230,1,1
61,229,0,0
61,228,1,0
60,227,0,0
60,227,0,0
60,225,0,0
60,224,0,1
60,229,1,1
59,227,1,0
59,227,0,1
