19,48,0,7
19,46,0,7
19,47,0,7
19,46,0,7
19,46,0,7
19,48,0,7
19,49,0,7
21,48,0,7
21,48,0,7
21,48,0,7
21,48,0,7
20,47,0,7
20,47,0,7
20,47,0,7
20,47,0,7
20,47,0,7
20,46,0,7
19,46,0,7
19,46,0,7
19,46,0,7
19,52,0,7
19,52,0,7
19,51,0,7
19,51,0,7
19,51,0,7
19,51,0,7
19,51,0,7
19,51,0,7
19,50,0,7
19,50,0,6
19,50,0,6
18,49,0,6
18,49,0,6
18,49,0,6
18,49,0,6
19,54,0,6
21,54,0,6
21,53,0,6
21,53,0,6
21,53,0,7
21,53,0,6
20,52,0,6
20,51,0,6
20,51,0,6
20,51,0,6
20,51,0,6
19,51,0,6
19,51,0,6
19,51,0,6
19,51,0,6
19,51,0,6
19,50,0,6
19,51,0,6
19,50,0,6
19,50,0,6
19,50,0,6
19,50,0,5
19,49,0,5
19,49,0,5
18,49,0,5
18,48,0,6
18,48,0,5
18,48,0,5
18,48,0,5
18,48,0,7
19,48,0,6
18,48,0,5
19,48,0,6
19,48,0,5
18,47,0,6
18,47,0,6
18,46,0,5
18,46,0,5
18,46,0,5
18,46,0,5
17,45,0,5
17,45,0,5
18,45,0,5
17,45,0,5
17,48,0,6
17,48,0,5
17,48,0,5
17,48,0,5
17,48,0,5
17,48,0,6
17,47,0,5
17,47,0,5
17,47,0,5
17,47,0,5
17,46,0,5
16,46,0,5
17,46,0,5
16,46,0,5
16,57,0,5
16,60,0,5
18,60,0,5
18,60,0,5
17,59,0,5
18,59,0,5
17,59,0,5
17,58,0,5
17,58,0,6
17,58,0,5
17,58,0,5
17,57,0,4
16,57,0,5
16,57,0,5
16,57,0,5
16,56,0,5
18,57,0,5
19,56,0,5
19,56,0,5
19,56,0,5
19,56,0,4
19,56,0,4
19,55,0,5
19,55,0,5
19,55,0,4
19,55,0,5
18,54,0,4
18,54,0,4
18,54,0,4
18,53,0,9
19,55,0,14
21,55,0,15
21,55,0,14
21,54,0,14
21,54,0,14
21,54,0,14
21,54,0,14
20,53,0,14
21,53,0,14
20,53,0,14
20,52,0,14
20,52,0,13
19,51,0,14
19,51,0,62
19,52,0,153
21,52,0,182
20,52,0,179
20,51,0,178
20,51,0,177
20,51,0,176
20,51,0,175
20,51,0,174
19,50,0,173
20,50,0,172
19,49,0,172
19,49,0,171
19,49,0,169
19,49,0,169
20,49,0,167
20,49,0,167
20,49,0,291
20,48,0,387
19,48,7,494
19,48,7,561
19,48,7,556
19,47,7,551
19,47,7,547
19,47,7,543
19,47,7,539
19,46,7,536
18,52,7,532
19,51,7,529
19,51,7,526
19,51,7,521
18,51,7,518
18,50,11,515
18,50,12,511
18,50,12,508
18,49,12,504
17,49,12,501
18,49,11,498
17,49,11,496
17,49,11,492
19,50,11,489
22,50,33,487
22,49,32,624
22,49,32,814
21,49,32,895
21,49,63,906
22,48,94,910
21,48,93,913
21,48,93,916
21,48,92,918
21,47,92,919
19,47,91,920
20,56,91,919
22,56,90,914
22,55,89,897
21,54,89,881
22,54,88,872
21,54,88,864
21,54,88,857
21,53,156,847
21,53,153,839
21,52,152,831
21,52,152,824
20,51,150,816
20,61,149,883
21,61,148,903
21,60,147,910
21,60,147,913
21,60,146,915
20,59,145,917
20,59,145,918
20,58,143,919
19,58,143,917
21,57,143,909
20,57,142,886
19,57,141,877
20,57,140,867
28,57,139,901
28,57,139,909
28,56,138,911
28,56,137,914
27,56,135,917
27,55,135,918
27,55,135,920
27,55,135,921
27,54,134,921
26,54,134,921
26,54,133,919
26,53,132,902
26,53,131,886
26,53,131,903
26,53,130,909
27,52,130,911
25,51,129,915
25,51,128,917
25,51,127,919
25,51,127,920
25,51,126,921
25,50,126,921
25,50,125,923
26,50,125,923
25,50,124,920
25,49,123,906
25,49,123,887
25,49,122,877
25,48,122,867
25,48,121,859
24,48,121,849
25,48,120,841
24,48,120,831
24,47,119,825
24,49,119,819
28,49,118,809
28,48,117,803
27,48,117,794
27,48,116,788
27,48,115,782
27,47,115,774
27,47,114,767
27,47,114,760
27,47,113,753
26,46,113,746
26,46,112,740
25,47,112,735
27,47,111,728
27,46,111,723
27,46,110,716
27,46,110,711
26,46,109,705
26,45,108,699
26,45,108,694
25,45,108,687
25,45,107,683
25,45,107,676
25,44,106,671
25,46,105,668
26,45,105,662
26,45,105,657
26,45,103,652
25,45,103,647
26,44,103,643
25,44,103,637
25,44,102,633
25,44,102,627
25,44,101,624
25,43,101,619
24,43,100,615
26,46,99,611
26,46,99,608
25,46,99,602
25,46,98,599
25,45,98,595
25,45,97,591
25,44,97,587
25,45,97,583
25,44,96,579
25,44,96,575
24,44,96,572
24,44,95,568
24,56,94,566
37,55,94,562
36,54,94,558
35,54,93,555
35,54,93,551
35,53,93,548
35,53,92,544
35,53,92,541
34,52,92,538
35,52,91,536
34,51,91,531
34,51,91,528
34,62,90,526
35,63,89,523
35,63,89,519
35,62,89,516
34,62,88,513
34,62,88,510
34,61,88,507
33,61,87,504
33,61,87,501
33,60,86,499
33,60,86,495
33,60,86,493
32,60,85,490
34,63,85,487
34,62,85,484
33,61,84,482
33,61,83,480
33,61,83,477
33,61,83,474
33,60,83,472
32,60,83,469
32,60,82,467
31,59,81,463
31,59,81,462
31,59,81,460
31,59,81,457
32,58,79,454
32,58,79,451
31,58,79,449
31,57,82,448
31,57,89,446
31,57,89,442
31,57,88,440
31,56,88,438
31,56,87,435
30,56,87,433
30,56,86,432
30,56,86,430
32,56,86,428
32,55,85,425
32,55,85,423
31,54,85,421
31,54,84,419
31,54,83,415
31,53,83,414
31,53,82,412
31,53,82,411
31,52,82,408
31,52,81,406
31,52,81,404
30,53,81,403
30,52,81,399
30,52,79,398
30,52,79,396
30,51,79,395
29,51,79,391
30,51,78,391
30,50,78,389
29,51,78,387
29,50,78,385
29,50,77,384
29,50,77,382
29,49,77,380
29,49,76,377
29,49,76,376
28,49,76,374
29,48,75,373
28,48,75,371
28,48,75,369
28,48,74,368
28,48,74,366
27,47,73,364
28,47,73,363
27,47,72,361
27,47,71,359
28,46,71,357
29,46,71,355
29,46,71,354
29,46,71,353
29,45,71,351
28,45,71,350
28,45,70,348
28,44,70,346
28,44,70,344
27,44,69,344
28,44,69,342
27,43,69,340
27,44,69,338
37,43,68,337
37,43,67,335
37,43,67,334
37,42,67,332
37,42,67,331
36,42,66,330
36,42,67,327
36,41,66,327
36,41,66,325
35,41,65,323
35,41,65,323
49,40,65,321
63,39,64,319
63,39,65,318
63,39,63,317
62,39,63,316
62,39,63,314
61,39,63,313
61,39,63,312
61,39,63,311
60,39,62,309
60,38,62,307
60,38,62,307
59,38,62,305
61,38,67,304
60,38,99,303
60,38,102,302
60,37,102,300
59,37,101,299
59,37,100,297
59,36,99,295
58,36,99,295
58,36,99,294
58,35,98,292
57,36,97,291
57,35,97,290
57,35,97,289
57,35,96,287
56,35,96,286
56,35,95,285
56,35,95,284
56,34,94,283
56,34,94,281
55,34,93,280
55,34,93,280
55,34,93,291
54,34,92,315
54,33,92,313
54,35,91,312
53,35,91,310
53,35,90,308
52,35,90,306
52,35,89,305
52,35,89,303
51,35,89,302
51,34,88,300
51,34,88,299
51,34,88,297
51,33,88,295
50,33,87,294
53,33,86,295
75,33,86,408
73,33,85,489
73,33,85,486
72,33,85,482
71,32,84,479
71,32,83,475
71,32,83,472
71,31,83,470
71,31,82,467
70,31,82,463
70,31,82,460
69,31,82,458
69,31,81,455
69,31,80,451
68,31,80,449
67,31,79,447
67,31,79,444
67,31,79,441
67,31,79,439
67,31,78,436
66,30,78,434
66,30,77,537
65,30,77,674
65,30,77,684
65,30,77,678
64,30,76,670
64,30,76,665
63,29,75,659
63,29,75,655
63,29,75,648
63,29,152,644
63,29,150,639
62,28,149,633
62,28,147,629
61,28,147,624
61,28,146,619
61,28,145,614
61,28,145,609
61,28,143,605
60,28,143,600
60,28,142,596
60,27,142,591
60,27,140,587
59,27,140,583
59,27,139,579
59,26,139,575
58,27,138,571
58,26,171,568
58,26,169,563
57,26,169,559
57,26,167,556
56,25,167,551
56,26,166,548
56,25,165,543
56,25,163,540
56,25,163,537
55,25,163,533
55,25,161,530
55,25,160,526
54,24,159,523
77,24,159,519
77,24,158,516
76,24,157,513
76,24,156,509
75,24,156,506
75,24,155,503
75,24,154,499
75,24,153,497
74,24,153,493
73,23,152,491
73,29,152,487
79,35,150,484
102,41,150,481
100,39,149,479
100,39,148,475
99,39,147,473
98,39,181,470
98,39,179,467
97,39,178,463
97,39,177,462
96,39,176,459
96,38,176,455
95,38,174,454
94,38,174,451
94,38,173,448
94,37,172,446
93,37,171,443
93,37,172,441
92,37,172,438
91,36,171,435
91,36,169,433
91,36,169,431
91,35,167,428
89,35,167,426
89,35,166,423
106,35,166,421
107,35,165,419
105,34,163,416
105,34,163,414
105,34,162,412
103,34,161,409
103,34,159,408
103,33,159,405
102,33,159,402
102,33,158,400
101,33,157,398
100,33,156,396
103,32,156,393
102,32,155,391
101,31,154,389
101,31,153,387
100,31,152,385
99,31,152,383
99,31,151,381
99,31,150,379
98,31,150,377
97,30,149,376
97,30,148,373
98,30,147,371
97,30,146,369
97,30,146,368
97,30,145,366
96,30,144,364
96,29,143,362
95,29,143,359
94,29,142,359
94,29,142,357
93,29,141,355
93,28,140,353
92,28,169,352
92,28,224,350
92,28,222,348
91,28,220,346
91,28,219,345
90,27,218,343
90,27,217,341
89,27,216,339
89,27,214,338
89,27,213,336
88,27,211,335
88,26,211,333
88,26,210,332
87,26,207,330
87,26,207,327
86,25,206,327
86,25,205,325
85,25,205,323
85,25,204,322
84,25,202,320
83,25,201,319
83,25,199,318
83,25,199,316
82,25,198,315
87,24,198,313
87,24,196,312
87,24,195,310
86,24,194,309
86,24,193,307
85,24,192,306
84,24,192,304
84,23,191,303
83,24,189,302
83,23,188,300
82,23,188,299
83,23,187,298
83,23,186,295
82,22,185,295
82,23,184,293
81,22,184,292
81,22,182,291
80,22,182,289
80,22,181,288
79,22,179,287
79,22,179,286
79,21,178,284
79,22,177,283
78,27,176,282
79,31,176,280
78,31,175,280
78,31,174,278
78,30,173,277
77,30,172,275
77,30,172,274
76,30,171,273
76,30,170,271
76,30,169,271
75,30,167,269
75,115,167,268
81,183,167,267
83,181,166,267
82,179,165,265
82,178,164,263
82,177,163,263
81,175,163,261
80,174,162,261
79,173,161,259
79,173,160,258
79,171,159,257
79,170,159,255
79,169,158,254
80,169,158,253
79,167,156,252
79,167,156,251
79,167,155,250
78,166,154,249
78,164,153,248
77,163,153,247
77,162,152,245
76,162,152,245
76,161,151,243
76,159,150,243
75,159,149,241
75,158,149,240
75,157,147,239
74,157,147,238
74,156,146,237
73,155,146,236
73,154,145,235
73,153,144,234
71,152,143,233
71,152,143,231
71,151,142,231
75,149,142,230
74,149,141,229
74,148,140,227
74,147,140,227
73,146,139,226
73,145,139,225
72,145,137,224
71,143,137,223
71,143,135,222
71,142,135,222
71,142,135,220
71,141,134,220
71,140,134,218
71,140,133,218
70,139,133,216
70,139,131,216
70,137,131,215
69,136,131,214
69,135,130,213
68,135,130,212
68,135,129,211
67,134,128,211
67,133,127,209
67,132,127,209
67,131,127,207
67,131,126,207
66,130,125,206
66,130,125,205
65,129,124,204
65,127,123,204
64,127,123,203
64,127,122,201
63,126,122,201
63,126,121,199
65,125,120,199
65,125,120,199
64,124,120,198
63,123,119,197
63,122,119,195
63,121,118,195
63,121,117,194
63,120,117,193
62,120,116,193
62,120,115,192
62,119,115,191
62,118,115,190
62,117,114,189
61,117,114,189
61,116,113,188
60,115,112,187
60,115,112,187
60,114,112,185
60,114,111,185
59,113,111,184
59,113,110,184
59,112,110,183
60,112,109,182
60,111,109,181
60,110,108,180
59,110,108,179
59,109,107,179
59,109,107,178
58,108,106,177
58,108,105,177
58,107,105,176
57,107,103,175
57,106,103,175
57,105,103,174
57,105,103,173
57,103,103,173
56,103,103,172
56,103,102,171
56,103,102,170
56,103,101,170
55,102,101,169
55,101,100,167
54,101,99,167
54,100,99,167
56,99,98,166
57,99,98,166
57,99,98,166
56,99,97,165
56,98,97,164
56,98,96,163
56,97,96,163
56,97,96,162
55,96,95,162
55,96,95,161
54,95,94,161
54,95,94,159
54,94,94,159
60,94,94,159
60,94,93,158
60,93,93,157
59,92,93,157
59,93,92,157
59,92,92,156
58,92,92,155
58,91,91,155
57,91,91,154
57,90,90,153
57,90,89,153
57,89,89,153
58,89,89,152
58,89,89,152
58,88,88,151
58,88,89,150
57,88,102,150
57,87,147,149
56,87,159,149
56,86,158,148
56,86,157,147
56,86,156,147
56,85,156,146
56,85,154,146
56,83,153,145
57,83,153,145
56,83,153,144
56,83,153,143
56,82,163,143
56,82,163,142
55,81,162,142
55,81,161,141
54,81,160,141
55,81,159,140
54,80,159,140
53,79,158,140
55,79,157,139
54,79,156,138
54,79,155,138
54,78,154,137
53,78,153,137
53,78,153,135
53,77,152,135
52,77,152,135
52,76,151,135
51,76,150,134
51,76,149,134
51,75,148,133
51,75,147,132
51,74,147,132
51,74,146,131
51,73,145,131
51,73,145,131
50,73,143,130
50,73,143,130
49,71,143,129
49,71,142,129
49,71,141,128
49,71,140,127
51,71,140,127
51,71,139,126
50,71,139,126
50,70,138,126
49,70,137,125
49,69,135,125
49,69,135,124
49,69,135,124
48,68,135,123
48,68,134,123
48,67,133,123
48,67,133,121
48,67,131,121
48,67,131,121
48,66,131,121
48,66,130,120
47,66,129,120
47,65,129,120
46,65,128,119
46,65,127,118
46,64,127,118
46,64,126,118
45,63,126,117
46,63,125,116
46,63,125,116
46,63,124,115
46,63,124,115
46,62,123,115
45,62,122,114
45,62,121,114
45,61,121,113
45,61,120,113
44,61,120,113
44,60,120,112
44,60,119,112
44,60,119,112
44,60,118,111
44,59,117,111
44,59,116,110
44,58,116,110
43,58,115,109
43,58,115,109
43,57,115,109
43,58,114,108
43,57,114,108
42,57,113,108
42,57,112,107
42,57,112,106
43,56,111,106
43,56,111,105
43,56,110,105
43,56,110,105
42,56,109,103
42,55,109,103
41,55,108,103
41,55,108,103
41,54,107,103
41,54,107,102
41,53,106,102
42,53,106,102
41,53,105,101
41,52,105,101
41,52,104,101
41,52,103,100
39,51,103,100
40,51,103,99
39,51,103,99
39,51,102,99
39,51,102,99
39,51,101,98
39,50,101,98
39,50,100,97
39,50,99,97
39,50,99,97
39,49,99,96
39,49,99,96
39,49,98,96
39,49,98,96
39,49,97,95
39,48,97,94
38,48,97,94
38,48,96,94
38,48,96,94
38,48,96,93
38,48,96,93
38,48,95,93
38,47,94,92
37,47,94,92
37,47,93,92
37,47,93,92
37,46,93,91
36,46,92,91
36,46,92,91
36,46,92,90
35,46,91,90
36,45,91,89
35,45,91,89
36,45,90,89
37,45,89,89
37,45,89,89
37,45,89,88
37,44,89,88
36,44,88,88
35,44,88,87
35,44,88,87
36,44,87,87
35,43,87,87
35,43,86,86
35,43,86,86
35,43,86,86
35,43,85,85
37,43,85,85
37,42,85,85
36,42,84,84
36,42,84,84
35,42,83,83
35,42,83,83
35,42,83,83
35,41,83,83
35,41,83,83
35,41,82,83
35,41,82,82
35,41,82,82
35,41,81,81
35,39,81,81
35,39,81,81
35,39,79,80
34,39,79,80
34,39,79,80
34,39,79,79
34,39,79,79
34,39,78,79
34,39,78,79
33,39,78,79
33,39,78,78
33,38,77,78
33,39,77,78
33,38,77,78
33,38,76,77
33,38,76,77
33,38,76,77
32,38,76,77
32,38,75,76
31,38,75,76
31,37,75,76
31,37,75,76
31,37,74,76
31,36,74,75
31,36,73,75
31,42,73,74
31,42,73,74
31,42,73,74
31,41,71,73
31,41,71,74
31,41,71,73
31,41,71,73
31,41,71,73
30,41,71,72
31,41,71,71
31,39,71,71
30,39,70,71
30,39,70,71
30,46,70,71
31,45,69,71
31,45,69,71
31,45,69,71
31,45,69,70
31,44,68,70
31,44,68,70
30,44,67,70
30,44,67,69
30,44,67,69
30,44,67,69
30,43,66,69
30,43,66,68
30,43,66,68
32,43,66,68
32,43,65,67
32,43,65,67
32,42,65,67
31,42,65,67
31,42,65,67
31,41,64,67
31,41,63,66
31,41,63,66
31,41,63,66
31,40,63,65
31,41,63,65
30,46,63,65
31,46,62,65
31,46,62,65
31,46,62,64
31,45,62,64
31,45,61,64
30,45,61,63
31,45,61,63
30,44,61,63
30,44,61,63
30,44,60,63
30,44,60,63
30,43,60,62
30,45,60,62
31,45,59,62
31,44,59,62
31,44,59,62
31,44,59,61
31,44,59,61
31,44,59,61
31,43,58,61
30,43,57,60
30,43,57,60
30,43,57,60
30,43,57,60
30,42,57,60
29,48,57,60
30,49,56,59
30,49,56,59
30,49,56,59
30,48,56,58
30,48,56,58
29,48,55,58
29,48,55,58
29,48,55,58
29,47,55,57
29,47,54,57
29,46,54,57
28,46,54,57
29,47,54,57
31,50,53,56
30,49,53,56
30,49,53,56
30,49,53,56
30,48,52,56
30,48,53,56
29,48,52,56
29,48,51,56
29,47,51,56
29,47,51,55
29,47,51,55
29,47,51,55
28,48,51,54
31,57,51,54
31,57,51,54
31,57,50,54
30,56,50,54
30,56,49,53
30,56,49,53
30,56,49,53
30,55,49,53
30,55,49,53
30,55,49,52
29,54,49,52
29,54,48,52
29,57,49,51
31,59,48,51
30,58,48,51
30,58,48,51
30,57,48,51
30,57,48,51
30,57,47,50
30,57,47,50
30,56,47,50
29,56,46,50
29,56,46,50
29,56,46,50
28,56,46,50
29,60,46,50
31,63,46,49
31,63,45,49
31,63,45,49
30,63,45,49
30,62,45,48
30,62,45,48
30,62,45,48
30,61,44,48
30,61,44,48
30,61,44,48
29,60,44,48
29,60,44,48
29,66,44,47
29,71,43,47
29,70,43,47
29,70,43,47
29,70,43,46
28,69,42,46
28,69,42,46
28,69,42,46
28,68,42,46
28,68,42,46
28,67,41,46
28,67,41,45
27,67,41,45
27,71,41,45
29,74,41,45
29,73,41,45
29,73,41,45
29,73,39,44
28,73,39,44
28,71,39,44
28,71,39,44
28,71,39,44
28,71,39,44
28,71,39,43
27,71,39,43
28,70,39,43
27,75,39,43
33,79,39,43
33,79,39,43
33,79,38,43
33,78,39,42
32,78,38,43
32,77,38,42
31,77,38,41
31,76,38,42
31,76,38,41
31,76,37,41
31,76,37,41
31,75,37,41
31,76,37,41
31,86,37,41
31,85,37,41
31,84,36,41
30,84,36,39
30,83,35,39
30,83,36,39
30,83,35,39
30,82,35,39
30,82,35,39
29,81,35,39
29,81,35,39
29,81,35,39
29,80,35,39
30,86,35,39
31,85,35,39
31,85,34,39
31,84,34,38
31,83,34,39
31,83,34,38
30,83,34,38
30,83,34,38
31,82,34,38
30,82,33,38
30,81,33,38
30,80,33,37
29,80,33,38
30,93,33,37
33,92,32,37
33,92,33,37
32,91,32,37
33,91,32,36
32,90,32,36
32,89,31,36
31,89,31,36
31,89,31,36
31,88,31,35
31,88,31,35
31,88,31,35
31,88,31,35
31,88,31,35
31,88,31,35
31,87,31,35
31,87,30,35
31,86,30,35
31,86,30,35
31,85,30,35
30,85,30,34
30,85,30,34
30,84,30,34
30,83,30,34
30,83,29,34
29,83,29,34
29,89,29,34
30,89,29,33
29,88,29,33
29,88,29,33
29,88,29,33
29,88,28,33
29,87,28,32
29,86,28,33
29,86,28,32
28,86,28,33
28,85,28,33
28,84,28,31
28,84,28,32
28,88,28,31
29,88,28,31
29,88,27,31
28,87,27,31
28,87,27,31
28,86,27,31
28,86,27,31
28,85,27,31
28,85,27,31
27,84,26,31
28,84,27,31
27,83,26,31
27,83,26,31
27,88,26,30
28,91,26,30
28,90,25,30
28,90,25,30
28,89,25,30
27,89,25,30
27,88,25,30
27,88,25,30
27,88,25,29
26,87,25,29
27,87,25,29
27,86,24,29
27,86,25,29
26,89,24,29
27,91,25,29
26,90,24,29
26,89,24,29
26,89,24,29
26,88,24,28
26,88,24,28
26,88,24,28
25,88,24,28
25,87,24,28
25,87,24,28
25,86,24,28
25,86,23,28
25,87,23,27
26,88,23,28
26,88,23,27
25,87,23,27
25,86,23,27
25,86,22,27
25,85,22,26
25,85,22,27
25,85,22,26
25,83,22,26
24,84,22,26
24,83,22,26
24,83,22,26
24,85,22,26
25,92,22,26
25,92,21,26
25,91,21,25
24,91,21,25
25,90,21,25
24,89,21,25
24,89,21,25
24,89,21,25
24,89,20,25
24,88,20,25
24,88,20,24
24,88,20,25
24,88,20,25
24,88,20,24
24,88,20,25
24,87,20,25
24,87,19,24
24,86,19,24
24,86,19,24
23,85,19,24
23,85,19,24
22,85,19,24
23,84,19,24
22,83,19,24
22,83,19,24
22,83,19,24
25,83,19,24
25,83,19,24
25,82,19,24
25,82,19,23
24,82,19,23
24,81,18,23
24,81,18,23
24,80,19,23
24,80,18,23
24,79,18,23
24,79,18,23
23,79,18,22
24,79,18,22
24,80,18,22
24,79,17,22
24,79,17,22
23,78,17,22
23,78,17,22
23,78,17,21
23,77,17,22
22,77,17,21
22,77,17,21
22,76,17,21
22,76,17,21
22,76,17,21
22,76,16,21
22,77,16,21
23,76,16,21
22,76,16,21
22,76,16,20
22,75,16,21
22,75,16,20
22,75,16,20
22,74,16,20
21,73,16,20
21,73,15,20
21,73,15,19
21,73,15,19
21,72,15,20
21,73,15,19
22,73,15,19
22,73,15,19
21,73,15,19
22,71,15,19
21,71,15,19
21,71,15,19
21,71,15,19
21,71,15,19
21,70,15,19
21,70,15,19
21,70,14,19
21,69,14,19
22,71,14,18
22,71,14,19
22,71,14,19
22,70,14,19
22,70,14,18
22,70,14,18
22,70,14,18
21,69,14,18
21,69,14,18
21,69,14,18
21,68,14,18
21,68,14,18
21,67,13,17
21,69,14,18
22,69,13,18
21,69,13,17
21,68,13,17
21,68,13,17
21,67,13,17
21,67,13,17
21,67,13,17
21,67,13,17
20,66,13,17
20,66,13,17
20,65,13,16
20,65,12,17
20,71,13,17
20,71,13,16
20,70,12,16
20,70,12,16
19,70,12,16
19,69,12,16
19,69,12,16
19,69,12,16
19,68,12,16
19,68,12,16
19,67,12,16
19,67,12,16
19,67,12,15
19,69,12,15
19,68,11,15
19,67,12,15
19,67,12,15
19,67,11,15
19,67,11,15
19,67,11,15
19,66,11,15
19,66,11,15
19,65,11,15
18,65,11,15
18,65,11,15
18,64,11,15
21,66,11,14
22,66,11,15
22,66,10,15
22,65,10,15
21,65,10,14
21,65,11,14
22,64,11,15
21,63,10,14
21,63,10,14
21,63,10,14
21,63,10,14
21,63,10,14
20,62,10,14
20,62,9,14
21,62,10,14
22,62,9,14
21,61,10,13
21,61,10,14
22,61,9,13
21,61,9,13
21,60,9,13
20,60,9,13
20,60,9,13
21,60,9,13
20,59,9,13
20,59,9,13
20,60,9,13
21,61,9,13
21,60,9,13
21,60,9,13
21,60,9,13
21,59,9,13
21,59,9,13
20,59,9,13
20,58,9,13
20,58,9,12
20,58,8,12
20,57,9,12
20,57,9,12
20,57,7,12
20,58,9,12
23,61,8,12
23,61,9,12
23,61,8,12
22,60,7,12
22,60,7,12
22,60,7,12
22,60,7,12
22,59,7,12
22,59,7,12
22,59,7,12
22,58,7,12
22,58,7,12
21,57,7,12
21,59,7,12
29,60,7,12
28,60,7,11
28,59,7,11
28,59,7,11
27,59,7,11
28,59,7,11
27,58,7,11
27,58,7,12
27,57,7,12
27,57,7,13
27,57,7,12
26,57,7,12
26,56,7,12
26,61,7,12
28,61,7,12
27,60,7,12
27,60,7,11
27,60,7,12
27,60,7,12
27,59,7,12
27,59,7,12
27,59,7,12
26,58,7,11
26,58,7,11
26,58,7,11
26,57,7,11
26,57,7,11
25,61,6,11
29,60,7,11
29,60,7,11
29,60,6,11
28,60,7,11
28,59,6,11
28,59,6,11
28,59,6,11
28,58,6,11
27,58,6,11
27,57,6,10
27,57,6,11
27,57,6,10
27,57,6,11
30,63,6,11
30,63,6,10
30,62,6,10
29,62,6,10
29,62,6,10
29,61,6,10
28,61,6,10
28,61,6,9
28,60,6,10
28,60,6,10
28,60,5,10
28,60,6,9
28,60,6,9
28,59,5,9
28,60,5,9
30,60,5,9
30,60,5,24
30,60,5,33
29,59,5,33
29,59,5,33
29,58,5,33
29,58,5,33
29,58,5,32
28,57,5,31
28,57,5,31
29,57,5,31
28,57,5,31
28,57,5,31
28,57,5,31
30,57,5,31
30,57,5,31
29,56,4,31
29,56,5,31
29,56,5,30
28,56,5,30
29,56,5,30
28,55,5,30
28,55,4,30
28,55,4,29
28,55,4,30
28,54,4,29
28,57,5,29
31,58,4,29
31,58,4,29
31,58,4,28
31,57,4,28
31,57,4,29
30,57,4,28
30,57,4,28
30,56,4,28
30,56,4,28
30,56,4,28
30,56,4,28
29,55,3,28
29,55,4,27
29,57,4,27
31,58,4,27
31,58,4,27
31,57,3,27
31,57,3,27
31,57,4,26
31,56,4,26
30,57,4,26
30,56,4,26
30,56,3,26
30,56,3,25
29,56,3,26
30,56,3,25
29,55,3,25
29,57,3,25
29,59,3,25
29,59,3,25
29,59,3,25
29,58,3,25
29,58,3,25
29,57,3,25
28,57,3,24
28,57,3,25
28,57,3,24
28,56,3,24
28,56,3,24
28,56,3,24
28,56,3,24
27,59,3,24
28,59,3,24
28,58,3,24
28,58,3,23
28,58,3,23
28,58,3,23
28,57,3,23
28,57,3,23
28,57,3,22
28,57,3,23
27,56,3,23
27,56,3,22
27,56,3,22
27,56,3,22
29,58,3,22
30,57,3,22
30,57,2,22
30,57,3,21
30,57,3,21
30,56,2,21
30,56,2,21
30,56,3,21
29,56,3,21
29,56,3,21
29,56,3,20
29,55,3,21
29,55,3,21
28,54,3,20
28,59,3,20
28,59,3,20
28,58,2,20
28,58,2,20
28,57,2,20
28,57,2,19
28,57,2,19
28,56,2,19
27,56,3,19
27,56,2,19
27,56,2,19
27,56,2,19
27,55,2,19
26,55,2,19
27,57,2,19
27,57,2,19
27,56,2,19
27,56,2,19
26,56,2,19
25,56,2,18
26,56,2,19
26,54,2,18
25,55,2,18
26,54,2,18
25,54,2,18
25,54,2,18
25,53,2,18
25,54,2,17
27,58,2,17
27,57,2,17
27,57,2,17
26,57,2,17
26,56,2,17
26,56,2,18
26,56,2,17
26,56,2,17
26,56,2,16
26,55,2,17
26,55,2,17
25,55,1,16
25,54,1,16
25,56,2,16
26,57,2,16
26,57,2,16
26,56,1,16
26,56,2,15
26,56,2,15
25,56,2,16
25,55,2,15
25,55,2,15
25,55,2,15
25,55,1,15
25,54,1,15
25,54,1,15
25,54,1,15
25,60,1,15
28,60,1,15
28,60,1,15
28,59,2,15
28,59,1,15
27,59,1,15
27,58,1,14
27,58,1,15
27,57,1,14
27,57,1,14
26,57,1,14
26,57,1,14
26,56,1,14
26,57,1,14
26,60,1,14
26,59,1,14
26,59,1,14
26,59,1,14
26,59,1,14
26,58,1,14
25,57,1,13
25,57,1,13
25,57,1,13
25,57,1,13
25,57,1,13
25,56,1,14
25,56,1,13
25,56,1,13
28,57,1,13
29,56,1,13
29,56,1,13
29,56,1,13
29,56,1,13
29,55,1,12
28,55,1,13
28,54,1,13
28,54,1,13
28,54,1,12
28,54,1,12
28,53,1,12
28,53,1,12
27,53,1,12
28,55,1,12
29,55,1,12
29,54,1,12
29,54,1,12
28,54,0,12
28,53,1,12
28,53,1,12
28,53,1,12
28,53,1,12
28,52,1,11
27,52,1,12
27,52,1,11
27,51,1,12
27,52,1,11
28,55,1,11
28,54,0,11
28,54,1,11
28,54,1,11
28,54,1,11
28,53,1,11
28,53,1,11
28,53,1,11
27,52,1,11
27,52,0,11
27,52,1,11
27,51,0,10
27,51,1,11
27,54,1,10
30,54,1,10
30,54,1,10
30,54,1,10
29,53,1,10
29,53,1,10
29,53,1,10
29,52,1,10
29,52,0,9
28,52,1,10
28,51,1,10
28,51,1,10
28,51,0,9
28,51,1,9
28,57,0,9
30,59,0,9
30,59,0,9
30,59,1,9
29,58,0,9
30,58,0,9
29,57,0,9
29,57,0,9
29,57,1,9
29,57,0,9
29,56,0,9
29,56,0,9
28,56,0,9
28,56,0,9
28,56,0,9
28,57,0,9
29,57,0,8
29,57,0,9
29,57,0,9
29,56,0,7
29,56,0,9
28,56,0,7
29,56,0,8
28,56,1,8
28,55,0,8
28,55,0,8
28,55,0,8
28,54,0,8
28,54,0,7
27,54,0,7
28,56,0,7
28,55,0,7
28,55,0,7
28,55,0,7
27,54,0,7
27,54,0,7
27,53,0,7
27,54,0,7
27,53,0,7
26,53,0,7
27,52,0,7
27,52,0,7
26,52,0,7
26,51,0,7
26,56,0,7
27,59,0,7
28,59,0,7
27,59,1,7
27,58,0,7
27,57,0,7
27,57,0,7
27,57,0,7
27,57,0,7
26,57,0,7
26,56,0,7
26,56,0,7
26,56,0,7
26,56,0,7
26,56,0,7
25,57,0,7
28,57,0,7
28,57,0,7
28,57,0,7
28,56,0,7
27,56,0,7
27,56,1,7
27,56,0,7
27,56,0,7
27,56,0,7
27,55,0,6
26,55,0,7
26,54,0,7
26,54,0,6
26,54,0,6
27,57,0,6
27,57,0,6
27,57,0,6
27,57,0,6
27,56,0,7
27,56,0,6
27,56,0,6
27,56,0,6
26,56,0,6
26,56,0,6
26,55,0,6
25,54,0,6
25,54,0,6
25,54,0,6
25,57,0,6
28,59,0,6
28,58,0,6
28,58,0,6
27,57,0,6
27,57,0,6
27,57,0,6
27,57,0,6
27,57,0,6
26,56,0,6
26,56,0,6
26,56,0,6
26,56,0,6
26,56,0,6
26,56,0,6
26,56,0,5
26,56,0,5
26,56,0,5
25,55,0,5
25,55,0,6
25,54,0,5
25,54,0,5
25,54,0,5
25,54,0,5
25,53,0,5
25,53,0,5
25,53,0,5
24,53,0,5
24,53,0,5
24,52,0,5
24,53,0,5
25,52,0,5
24,52,0,5
24,51,0,5
24,51,0,5
24,51,0,5
24,51,0,5
24,51,0,6
24,51,0,5
24,50,0,5
24,50,0,4
24,50,0,5
24,50,0,5
23,49,0,5
24,49,0,5
24,52,0,4
24,52,0,4
24,52,0,4
24,51,0,5
24,51,0,4
24,51,0,5
23,51,0,4
23,51,0,4
23,51,0,4
23,50,0,4
23,50,0,4
23,50,0,4
22,49,0,5
22,49,0,4
22,56,0,4
27,63,0,4
27,62,0,4
27,62,0,5
26,62,0,4
26,61,0,4
25,61,0,4
25,61,0,4
25,60,0,4
25,60,0,4
25,60,0,4
25,60,0,3
25,60,0,4
25,59,0,4
25,59,0,4
25,60,0,3
31,60,0,4
31,60,0,4
31,59,0,4
30,59,0,3
30,59,0,3
30,58,0,3
30,57,0,3
30,57,0,3
30,57,0,3
30,57,0,3
29,57,0,3
29,57,0,3
29,57,0,3
29,56,0,3
32,57,0,3
34,57,0,3
34,57,0,4
34,57,0,3
34,56,0,3
33,56,0,3
33,56,0,3
33,56,0,3
33,56,0,3
33,55,0,3
32,55,0,3
32,54,0,3
32,54,0,3
31,54,0,3
31,55,0,3
34,55,0,3
34,54,0,3
34,54,0,3
34,54,0,3
33,54,0,3
33,53,0,3
33,53,0,3
33,53,0,3
32,53,0,3
32,52,0,3
