
70,14,0,86,78,0,

70,15,0,85,77,0,

69,15,0,85,76,0,

69,14,0,85,76,0,

69,14,1,83,76,0,

71,14,0,83,75,0,

71,14,0,83,75,0,

71,14,0,83,75,0,

71,14,0,82,75,0,

70,14,0,82,74,0,

70,14,0,82,73,0,

70,14,0,81,73,0,

69,14,0,81,73,0,

69,14,0,81,73,0,

68,14,0,80,71,0,

68,14,0,80,71,0,

68,14,0,79,71,0,

67,14,0,79,71,0,

67,14,0,79,71,0,

67,14,0,78,71,0,

67,14,0,78,71,0,

66,13,0,78,70,0,

66,13,0,77,70,0,

66,14,0,77,70,0,

65,13,0,77,69,0,

65,13,0,77,69,0,

65,13,0,76,69,0,

65,13,0,76,68,0,

64,13,0,75,68,0,

63,13,0,75,68,1,

63,13,0,75,67,0,

63,13,0,75,67,0,

63,13,0,74,67,0,

62,13,0,74,66,0,

62,12,0,73,66,0,

62,12,0,73,65,0,

62,12,0,73,65,0,

61,12,0,72,65,0,

61,12,0,71,65,1,

61,12,0,71,64,0,

60,12,0,71,64,0,

60,12,1,71,63,0,

60,12,0,71,63,0,

60,12,0,71,63,0,

60,12,0,70,63,0,

59,12,0,70,63,0,

59,12,0,70,62,0,

59,11,0,69,62,0,

59,11,0,89,62,0,

58,12,0,143,62,0,

58,12,0,143,61,0,

57,24,0,142,61,0,

57,24,0,141,61,0,

57,24,0,141,60,0,

57,24,0,140,60,0,

56,24,0,139,60,0,

56,24,0,138,59,0,

56,24,0,137,59,0,

56,24,0,137,59,0,

56,23,0,135,59,0,

56,23,0,135,59,0,

55,22,0,135,58,0,

54,23,0,134,58,0,

55,22,0,134,57,0,

54,22,0,133,57,0,

54,22,0,132,57,0,

53,22,0,132,57,0,

53,22,0,131,57,0,

53,21,0,131,56,0,

52,22,0,130,56,0,

53,21,0,129,56,0,

52,21,0,129,56,0,

52,21,0,128,56,0,

51,21,0,127,55,0,

51,23,0,127,55,0,

51,22,0,126,54,0,

51,22,0,126,54,0,

51,22,0,125,54,0,

51,22,0,125,54,1,

50,22,0,124,53,0,

50,22,0,123,53,0,

50,22,0,123,53,0,

49,22,0,123,53,0,

49,22,0,122,52,0,

49,21,0,121,52,0,

49,22,0,121,51,0,

49,21,0,120,51,0,

48,21,0,120,51,0,

48,21,0,120,51,0,

48,21,0,119,51,0,

48,21,0,119,51,0,

47,20,0,118,50,0,

47,20,0,117,50,0,

47,20,0,117,50,0,

47,20,0,116,50,0,

47,20,0,115,49,0,

47,20,0,115,49,0,

46,19,0,115,49,0,

46,19,0,114,49,0,

46,19,0,114,48,0,

46,19,0,113,48,0,

45,19,0,113,48,1,

45,19,0,112,48,0,

45,19,0,112,48,1,

45,19,0,111,47,0,

47,19,0,111,47,0,

49,19,0,110,47,0,

48,18,0,110,47,0,

48,18,0,109,47,0,

48,18,0,109,46,0,

48,18,0,109,46,0,

48,18,0,108,46,0,

48,18,0,108,45,0,

47,18,0,107,45,0,

47,17,0,106,45,0,

46,18,1,106,45,0,

46,17,0,105,45,0,

46,18,0,105,44,0,

57,17,0,104,44,0,

60,17,0,103,44,0,

59,17,0,103,44,0,

59,17,0,103,43,0,

59,17,0,103,43,0,

58,17,0,103,43,0,

58,17,0,102,43,0,

58,17,0,102,43,0,

57,16,0,101,43,0,

57,16,0,101,42,0,

57,16,0,101,42,0,

57,16,0,100,42,0,

67,16,0,99,42,0,

67,16,0,99,41,0,

67,15,0,98,41,0,

66,15,0,98,41,1,

66,15,0,98,41,0,

65,15,0,97,41,0,

65,15,0,97,39,0,

65,15,0,96,39,0,

64,15,0,96,39,0,

63,15,0,96,39,1,

63,15,0,96,39,0,

63,15,0,96,39,0,

63,15,0,95,39,0,

63,15,0,94,39,0,

62,15,0,94,39,0,

62,14,0,94,39,0,

62,14,0,93,39,0,

62,14,0,93,39,0,

61,14,0,92,38,0,

61,14,1,119,38,0,

61,14,0,131,43,0,

60,15,0,137,48,0,

60,14,0,135,47,0,

60,14,0,135,47,0,

60,14,0,135,47,0,

60,14,0,134,46,0,

59,14,0,134,46,0,

59,14,0,133,46,0,

59,14,0,132,46,0,

58,14,1,131,45,0,

58,17,0,131,45,1,

58,29,0,130,45,0,

57,43,0,129,44,0,

57,43,0,129,44,0,

57,43,0,128,44,0,

56,42,0,127,44,0,

56,42,0,127,44,0,

56,42,0,127,43,0,

56,41,0,126,43,0,

68,41,0,125,43,0,

75,41,0,125,43,0,

74,40,0,125,43,0,

74,41,0,124,43,0,

73,39,0,123,42,0,

73,41,0,123,42,0,

73,41,0,122,41,0,

71,41,0,121,41,0,

71,41,0,121,41,0,

71,41,0,120,41,0,

71,39,0,120,41,0,

71,39,0,120,41,0,

71,39,0,119,40,0,

70,39,1,118,39,0,

70,39,0,118,39,0,

69,39,0,117,39,0,

69,39,0,117,39,0,

68,39,0,116,39,1,

68,39,0,115,39,0,

68,38,0,115,51,0,

67,38,0,114,52,0,

67,38,0,114,51,0,

67,38,0,114,51,0,

67,37,0,113,51,0,

66,38,0,113,51,0,

66,37,0,112,50,0,

65,37,0,112,50,0,

65,37,0,112,50,0,

65,36,0,111,49,0,

65,36,0,110,49,1,

64,36,0,110,49,0,

63,36,0,109,49,0,

63,35,0,108,49,0,

63,35,0,108,48,0,

63,35,0,108,60,0,

63,35,0,108,62,0,

62,35,0,107,62,0,

88,35,0,107,61,0,

87,35,0,106,61,0,

86,34,0,105,60,0,

85,35,0,105,60,0,

85,35,0,103,60,0,

84,34,0,103,59,0,

83,34,0,103,59,0,

83,34,0,103,59,0,

83,34,0,103,59,0,

83,34,0,102,58,0,

82,33,0,102,58,0,

82,33,0,101,58,0,

81,33,0,101,114,0,

81,33,0,101,198,0,

81,33,0,99,197,0,

80,32,0,99,195,0,

79,32,0,99,194,0,

79,31,0,99,193,0,

79,31,0,98,192,0,

79,31,0,98,192,0,

78,31,0,97,190,0,

78,31,0,97,189,0,

78,31,0,96,188,0,

77,31,0,96,187,0,

77,31,0,96,187,0,

77,31,0,96,185,0,

76,31,0,95,184,0,

76,30,0,95,184,0,

75,30,0,94,183,0,

75,35,0,94,182,0,

75,35,0,93,181,0,

75,35,0,93,180,0,

74,35,0,93,179,0,

73,35,0,92,178,0,

73,34,0,92,177,0,

73,34,0,92,177,0,

72,34,0,91,176,0,

71,34,0,91,175,0,

71,34,0,90,174,0,

71,33,0,90,173,0,

71,33,0,89,173,0,

71,42,0,89,172,0,

70,71,0,96,171,0,

70,71,0,96,171,0,

70,71,0,96,169,0,

70,70,0,95,169,0,

69,71,0,94,167,0,

69,70,0,94,167,0,

68,69,0,94,167,0,

68,69,0,93,179,0,

68,69,0,93,205,0,

68,68,0,92,204,0,

67,67,0,92,203,1,

67,67,0,92,201,0,

67,67,0,91,199,0,

67,67,0,90,199,0,

66,66,1,90,199,0,

66,66,0,90,197,1,

66,66,0,89,196,0,

65,65,0,89,195,1,

65,65,0,88,195,0,

65,64,0,88,193,0,

65,64,0,88,192,0,

65,63,1,88,192,0,

66,63,0,87,191,0,

66,63,0,87,190,0,

66,63,1,86,189,1,

66,63,0,86,188,0,

65,62,1,86,187,0,

64,62,1,85,186,1,

64,62,0,84,185,1,

64,61,0,84,184,0,

63,61,1,84,184,0,

63,61,1,83,183,1,

63,60,1,83,182,0,

63,60,0,83,181,1,

63,60,1,83,180,0,

62,60,0,82,179,0,

75,59,0,82,178,1,

89,59,1,81,178,0,

89,59,0,81,177,0,

88,59,0,81,176,0,

88,59,1,80,175,1,

88,59,0,80,174,0,

87,58,0,79,174,1,

86,58,0,79,173,0,

86,57,0,79,172,1,

86,57,0,79,171,0,

85,57,1,78,171,0,

85,57,1,78,170,1,

85,56,1,78,169,0,

83,56,1,77,167,0,

112,56,1,77,167,0,

110,56,0,77,167,0,

109,55,1,76,166,0,

109,55,1,76,165,0,

108,55,1,76,164,0,

108,54,0,76,163,0,

107,54,1,75,163,1,

106,54,0,75,162,0,

106,54,0,74,161,1,

105,54,1,74,160,0,

105,53,0,73,159,0,

103,53,1,73,159,0,

103,53,1,73,159,0,

103,52,0,73,158,1,

103,52,0,73,157,0,

102,52,0,71,156,0,

102,51,0,71,155,0,

101,51,1,71,155,1,

101,51,1,71,154,0,

100,50,1,71,153,0,

99,50,0,70,153,0,

99,50,0,70,152,1,

99,50,0,70,152,0,

98,49,0,69,151,1,

98,49,1,69,150,0,

97,49,0,69,149,1,

97,49,0,69,149,0,

96,49,0,68,148,1,

96,48,0,68,147,0,

95,48,1,68,147,0,

95,48,1,67,146,0,

94,48,0,67,145,0,

94,48,0,67,145,0,

94,47,0,66,144,0,

93,47,0,67,143,0,

93,47,1,66,143,0,

113,46,0,66,142,0,

113,46,1,66,142,0,

112,46,0,65,141,0,

112,46,0,65,141,0,

111,45,0,65,140,0,

110,45,0,64,139,0,

109,45,0,63,139,0,

109,45,0,63,138,0,

108,45,0,63,137,0,

108,44,0,63,137,0,

108,44,0,63,135,0,

118,44,0,90,135,0,

117,44,0,126,135,0,

115,44,0,125,134,0,

115,43,0,123,134,0,

115,43,1,123,133,0,

114,42,0,122,133,0,

113,43,0,121,132,0,

113,43,0,121,131,0,

112,42,0,120,131,0,

112,41,0,120,130,0,

111,42,0,119,130,0,

111,41,0,119,129,0,

110,41,0,118,128,0,

120,41,1,117,127,0,

119,39,0,116,127,0,

118,39,0,115,127,0,

117,39,0,115,126,0,

117,39,0,115,125,0,

115,39,0,114,125,0,

115,39,0,113,124,0,

115,39,0,113,124,0,

114,39,0,112,123,1,

114,39,0,112,123,0,

113,39,0,111,121,1,

112,39,0,110,121,0,

112,38,0,110,121,0,

112,38,0,110,120,0,

111,38,0,109,120,0,

110,37,0,108,119,1,

110,38,0,108,119,0,

109,37,0,108,118,0,

109,37,0,107,118,0,

109,37,0,106,117,0,

108,37,0,105,117,0,

138,36,0,105,116,0,

171,36,0,105,138,0,

169,37,0,103,137,0,

167,37,0,103,135,0,

167,36,0,103,135,0,

166,36,0,103,135,0,

166,36,0,102,134,0,

164,36,0,102,134,0,

163,35,0,102,133,1,

163,35,0,100,131,0,

161,35,0,100,147,0,

161,35,0,99,247,1,

159,35,0,99,245,1,

159,35,0,99,243,0,

159,35,0,98,241,0,

158,34,0,98,240,0,

157,34,0,98,238,0,

156,34,0,97,237,0,

155,34,0,97,236,0,

155,34,0,96,234,0,

154,33,0,96,233,0,

153,33,0,95,231,0,

152,33,0,95,231,0,

152,33,0,95,230,0,

151,69,0,108,228,1,

151,79,0,108,227,0,

150,79,0,108,226,0,

149,78,0,107,225,0,

148,78,0,106,223,0,

147,77,0,106,223,0,

147,77,0,105,221,0,

146,76,1,105,220,0,

145,76,0,103,219,0,

144,76,0,103,218,0,

143,75,0,103,217,0,

143,75,0,103,216,0,

142,75,0,102,215,0,

142,74,0,101,213,0,

141,74,0,101,212,0,

140,73,0,101,211,0,

140,73,0,99,210,0,

139,73,0,99,209,0,

138,72,0,99,207,0,

137,71,0,99,207,0,

137,71,0,98,206,0,

137,71,0,97,205,0,

135,76,0,97,204,0,

135,85,0,96,204,0,

135,84,0,96,202,0,

135,83,0,96,201,0,

134,83,0,96,199,0,

134,82,0,95,199,0,

133,82,0,94,199,0,

132,81,0,94,197,0,

131,81,0,93,197,0,

131,81,0,93,195,0,

130,81,0,93,195,0,

129,88,0,121,194,1,

129,92,1,235,271,0,

129,91,0,233,332,0,

128,90,0,231,329,0,

127,89,0,229,326,0,

127,89,0,227,323,0,

126,88,0,227,322,0,

125,88,0,225,319,0,

125,88,0,224,318,1,

124,87,0,223,316,0,

124,87,0,221,314,0,

123,86,0,220,313,0,

123,86,0,219,311,0,

121,85,0,218,309,0,

121,84,0,217,307,0,

121,84,0,216,305,0,

120,83,0,215,304,1,

120,83,0,214,302,0,

119,83,1,212,301,0,

118,83,0,211,299,0,

118,82,1,210,297,0,

117,82,0,209,295,0,

117,81,1,207,294,0,

116,80,0,207,292,0,

115,80,1,206,291,1,

115,79,0,205,289,1,

114,79,1,204,287,0,

114,79,0,203,286,0,

113,78,0,201,285,1,

113,78,0,201,283,0,

112,77,1,199,281,1,

112,77,0,199,280,0,

111,77,0,198,280,1,

111,76,0,197,277,1,

110,76,0,196,275,1,

110,76,1,195,275,1,

109,76,0,194,272,1,

109,75,0,193,271,1,

108,75,0,192,270,1,

108,74,1,192,269,1,

107,74,0,190,267,1,

107,73,0,190,266,1,

106,73,1,189,265,1,

105,73,1,188,263,0,

105,71,1,187,262,1,

105,71,1,186,261,1,

103,71,1,185,259,0,

103,71,0,184,258,1,

103,71,0,184,257,0,

103,71,0,183,255,1,

102,70,0,182,254,1,

102,70,0,181,253,1,

101,70,1,179,252,1,

101,69,1,179,250,1,

100,69,0,178,249,1,

99,68,0,178,248,1,

99,68,1,183,247,1,

99,67,1,197,246,1,

98,67,1,196,244,1,

98,67,1,195,243,1,

98,67,1,194,242,1,

97,67,1,193,241,1,

97,66,1,192,240,1,

96,66,1,192,239,1,

96,66,1,191,238,1,

96,66,1,189,237,1,

95,65,1,189,236,1,

135,65,1,188,235,1,

135,64,1,187,233,1,

134,77,1,186,231,1,

133,76,1,185,231,1,

133,76,1,184,231,1,

131,75,1,184,229,1,

131,75,1,182,227,1,

131,74,1,181,227,1,

130,74,1,180,226,1,

129,73,1,179,225,1,

128,73,1,179,224,1,

127,72,1,178,223,1,

127,71,1,177,222,1,

161,71,1,176,220,2,

159,71,2,175,220,1,

158,71,1,174,218,1,

157,71,1,174,217,1,

156,70,1,172,216,1,

156,70,1,172,216,1,

155,70,1,171,214,1,

153,69,1,170,213,1,

153,68,1,169,212,1,

152,68,1,184,211,1,

152,68,1,222,210,1,

158,67,1,220,210,1,

225,70,1,219,208,1,

224,70,1,217,207,2,

222,69,1,217,207,2,

220,69,1,216,206,1,

219,69,1,214,204,2,

217,69,1,213,204,2,

216,67,1,211,203,1,

216,68,1,211,202,2,

214,67,1,209,201,2,

213,67,1,208,199,1,

211,82,1,207,199,1,

211,87,1,206,198,2,

209,86,2,205,197,1,

207,86,1,204,197,1,

207,85,1,203,195,1,

206,84,1,202,194,1,

205,84,2,201,193,1,

204,83,1,199,192,1,

203,83,1,199,192,2,

202,83,1,199,191,1,

199,82,1,197,190,1,

199,82,1,195,189,1,

199,81,1,195,188,1,

198,81,1,194,188,1,

196,80,1,193,187,1,

195,79,1,192,186,1,

195,79,1,192,185,1,

194,79,1,190,184,1,

192,79,1,189,184,1,

192,78,2,189,183,1,

191,78,1,188,182,1,

190,77,1,187,181,1,

189,77,1,190,179,1,

188,77,1,189,179,1,

187,76,1,188,178,1,

186,76,1,187,178,1,

185,76,1,187,177,1,

184,75,1,185,176,1,

184,74,1,184,176,1,

182,74,1,184,175,1,

181,74,1,183,174,1,

182,73,1,182,173,1,

181,73,1,181,173,1,

181,73,1,180,172,1,

179,71,1,179,170,1,

179,71,1,179,170,1,

236,71,1,178,169,1,

263,71,2,177,169,1,

261,71,1,176,167,1,

259,70,1,175,167,1,

258,70,1,174,167,1,

255,70,1,173,166,1,

255,70,1,173,165,1,

253,69,1,172,164,1,

252,69,1,171,163,1,

251,69,1,170,163,1,

249,68,1,169,162,2,

248,68,1,167,162,1,

246,67,1,167,160,1,

245,67,1,167,160,1,

243,67,1,167,159,1,

243,66,1,166,158,1,

241,66,1,165,158,1,

240,66,1,164,157,1,

239,66,1,163,157,1,

237,65,1,163,156,1,

236,65,2,162,156,1,

256,87,1,161,155,1,

259,86,1,160,154,1,

258,86,2,163,153,1,

256,85,1,217,152,1,

255,84,2,217,152,2,

253,83,1,216,151,1,

252,83,2,214,151,2,

250,83,1,213,150,1,

249,82,1,211,149,2,

248,82,1,210,148,1,

246,81,2,209,147,2,

245,81,2,207,147,1,

243,81,1,207,146,1,

242,80,2,206,146,2,

241,79,1,205,145,1,

239,79,1,204,144,1,

238,79,1,203,144,2,

237,79,1,201,143,1,

236,78,1,201,143,2,

235,78,1,199,142,1,

233,77,2,199,141,1,

231,77,1,197,141,1,

231,76,1,197,140,1,

230,76,1,195,140,2,

229,76,1,195,139,1,

227,75,1,194,139,2,

226,75,1,193,138,1,

225,74,1,192,137,1,

224,74,1,191,137,1,

223,73,1,190,135,1,

222,73,1,189,135,1,

221,73,1,188,135,1,

220,71,1,187,134,1,

219,71,1,187,134,1,

217,71,1,185,133,1,

216,71,1,184,132,1,

216,71,1,184,132,1,

214,70,1,183,131,1,

214,70,1,182,131,1,

212,70,1,181,130,1,

211,69,1,180,130,1,

210,69,1,179,129,1,

209,69,1,178,129,1,

208,68,1,178,128,1,

207,67,1,177,127,1,

206,67,1,176,127,1,

205,67,1,175,127,1,

204,67,1,174,126,1,

203,66,1,173,126,1,

202,66,1,172,125,1,

201,66,1,172,124,1,

199,65,1,171,124,1,

199,65,1,170,123,1,

198,65,1,169,123,1,

198,87,1,167,123,1,

230,175,1,167,122,1,

227,175,1,167,121,1,

226,174,1,166,121,1,

225,172,1,165,120,1,

223,171,1,164,120,1,

222,170,1,163,119,1,

221,169,1,163,119,1,

220,167,1,162,118,1,

219,167,1,161,117,1,

217,166,1,160,117,1,

216,165,1,159,117,1,

215,164,1,159,116,1,

214,163,0,158,115,1,

212,162,1,157,115,1,

211,161,1,156,114,1,

210,160,1,156,114,1,

209,159,1,155,113,1,

207,159,1,154,113,1,

207,158,1,153,112,1,

205,157,1,153,112,1,

204,156,1,152,111,1,

204,156,1,152,111,1,

203,155,1,151,111,1,

201,154,1,150,110,1,

199,153,1,150,109,1,

199,152,1,149,109,1,

198,152,1,148,108,1,

197,151,0,147,108,1,

196,149,1,147,108,1,

195,149,0,146,107,1,

194,148,0,145,106,1,

193,147,1,144,106,1,

203,158,0,143,105,1,

222,161,1,143,105,1,

220,159,1,142,105,1,

219,159,1,142,103,0,

218,158,1,141,103,1,

217,157,1,141,103,1,

216,156,1,140,103,0,

214,155,0,140,102,0,

213,154,1,139,102,0,

211,153,0,138,101,0,

211,152,0,137,101,1,

209,152,1,137,101,1,

209,157,1,135,100,0,

207,156,1,135,99,0,

207,156,1,135,99,0,

206,154,1,135,123,1,

205,153,1,134,122,1,

203,153,0,133,121,1,

203,152,1,132,121,1,

201,152,0,131,120,1,

199,150,0,131,119,0,

199,149,1,130,119,1,

257,149,1,152,118,0,

258,147,1,152,117,1,

255,147,1,152,121,0,

254,146,0,151,120,0,

253,145,0,149,119,0,

252,144,1,149,118,0,

249,143,0,147,118,0,

248,143,0,147,117,1,

247,142,0,147,117,0,

246,142,0,145,115,1,

244,141,0,145,115,0,

243,140,0,144,114,0,

241,140,0,190,114,1,

240,139,0,188,113,0,

239,138,1,187,112,0,

237,137,0,186,112,0,

236,137,0,185,111,0,

235,135,1,184,111,0,

233,135,0,183,110,0,

231,135,0,182,110,1,

231,183,1,206,109,1,

357,306,1,204,108,0,

387,347,0,203,108,0,

384,344,1,201,107,0,

380,341,0,201,107,0,

378,339,0,199,106,0,

376,335,0,199,105,1,

373,334,0,197,105,0,

370,332,0,195,105,0,

368,329,1,195,103,0,

366,327,1,194,103,0,

363,326,0,193,103,0,

361,324,1,192,102,0,

359,322,0,191,102,0,

356,319,0,190,101,0,

354,318,1,189,101,0,

352,316,0,188,100,0,

350,314,0,187,100,0,

348,312,0,185,99,0,

346,311,0,185,99,0,

344,309,0,185,98,1,

342,307,0,230,98,0,

340,305,0,228,97,0,

359,304,0,226,97,0,

357,304,0,225,97,0,

355,302,0,224,96,0,

352,300,0,223,96,0,

350,298,0,222,96,0,

348,295,1,220,95,0,

346,295,0,219,94,0,

344,293,0,218,108,1,

342,291,0,217,108,0,

339,290,0,216,107,0,

338,289,0,214,107,0,

335,287,0,213,105,0,

334,285,0,212,105,0,

332,284,0,211,103,0,

330,282,0,210,103,0,

327,281,0,209,103,0,

326,280,0,207,103,0,

324,278,0,206,102,0,

323,276,0,206,102,0,

321,275,0,204,101,0,

319,273,0,204,100,0,

318,271,1,202,140,1,

315,271,0,201,140,0,

313,269,0,199,138,0,

312,268,1,199,137,0,

310,266,0,198,135,0,

308,265,0,197,135,0,

307,263,0,197,135,0,

305,262,0,195,134,0,

304,261,0,195,134,0,

302,259,0,193,132,0,

301,258,0,193,132,0,

299,257,0,192,131,0,

297,255,0,190,130,0,

295,254,0,190,130,0,

294,253,0,189,129,0,

293,252,0,188,129,0,

291,250,0,187,127,1,

290,249,0,186,127,0,

288,248,0,185,127,0,

287,247,1,184,126,0,

285,246,0,184,163,0,

284,243,0,188,161,1,

282,243,0,187,160,0,

281,241,0,186,159,0,

280,240,0,185,158,1,

278,239,0,184,157,0,

276,238,1,183,157,1,

275,237,1,182,156,1,

273,235,0,181,155,1,

271,234,1,180,153,1,

270,233,1,179,153,1,

269,231,1,178,152,1,

268,231,1,178,152,1,

267,230,1,177,150,1,

265,229,1,176,149,1,

263,227,1,175,149,1,

263,226,1,174,147,1,

261,225,1,173,147,1,

259,224,1,173,146,1,

258,223,1,172,146,1,

257,222,1,171,145,1,

255,220,1,170,143,1,

254,220,1,169,143,1,

253,219,1,167,143,1,

252,217,1,167,142,1,

251,216,1,167,141,1,

249,216,1,166,192,1,

248,215,1,165,193,1,

248,214,1,164,192,1,

246,212,1,163,190,1,

244,211,1,163,189,1,

243,210,1,162,188,1,

242,209,1,161,187,1,

241,207,1,161,185,1,

240,207,1,159,185,1,

238,206,1,159,184,1,

237,205,1,158,183,1,

236,204,1,157,182,1,

235,203,1,156,181,1,

234,203,1,156,179,1,

233,201,1,155,179,1,

231,199,1,155,177,1,

231,199,1,153,176,1,

230,199,1,153,176,1,

228,197,1,152,175,1,

227,197,1,152,174,1,

226,195,1,151,173,1,

225,195,1,150,172,1,

224,193,1,149,171,1,

223,193,1,148,170,1,

222,192,1,148,169,1,

220,191,1,147,167,1,

220,190,1,147,167,1,

219,189,1,145,166,1,

217,188,1,145,165,1,

216,187,1,144,164,1,

216,186,1,143,164,1,

214,185,1,143,163,1,

214,185,1,142,162,1,

212,184,1,142,161,1,

211,183,1,141,160,1,

210,182,1,140,159,1,

209,181,1,140,159,1,

208,180,1,139,158,1,

207,179,1,138,157,1,

207,179,1,138,156,1,

206,178,1,137,156,1,

205,177,1,135,155,1,

204,176,1,135,154,1,

203,175,1,135,153,1,

202,175,1,135,152,1,

201,174,1,134,152,1,

199,173,1,133,151,1,

199,172,1,133,150,1,

198,171,1,132,149,1,

197,170,1,131,148,1,

196,170,1,131,147,1,

195,169,1,130,147,1,

194,167,1,130,146,1,

193,167,1,129,145,1,

192,166,1,129,144,1,

192,166,1,127,143,1,

191,165,1,127,143,1,

190,164,1,126,142,1,

189,163,1,126,142,1,

188,163,1,126,141,1,

187,162,1,125,140,1,

186,161,1,125,140,0,

185,160,1,124,139,1,

185,159,1,123,138,1,

184,159,1,123,137,1,

183,158,0,122,137,0,

182,157,1,121,135,1,

181,157,1,121,135,0,

180,156,1,120,135,1,

179,156,1,120,134,1,

179,155,1,120,134,1,

178,154,1,120,133,1,

177,153,1,119,132,1,

176,152,1,118,131,0,

176,152,1,117,131,0,

175,152,1,117,130,1,

174,150,1,116,130,1,

173,150,1,115,129,0,

172,149,1,115,128,1,

172,148,1,115,127,1,

171,147,1,114,127,1,

169,147,1,113,127,1,

169,146,0,113,126,1,

167,146,1,113,125,1,

167,145,0,112,125,0,

167,144,1,112,124,1,

166,143,1,111,123,0,

165,143,0,111,123,0,

164,142,1,110,122,0,

163,141,0,109,121,0,

163,141,0,109,121,1,

162,140,0,108,120,1,

161,140,0,108,120,1,

161,139,1,108,120,0,

159,138,0,107,119,0,

159,138,1,107,118,1,

158,137,0,106,118,1,

158,137,0,105,117,0,

157,135,1,105,116,1,

156,135,0,105,115,0,

156,135,0,103,115,0,

155,134,0,103,115,1,

155,134,0,103,114,0,

154,133,1,103,114,1,

153,132,1,102,113,0,

152,132,0,102,113,1,

152,131,0,102,112,0,

151,130,0,101,111,0,

151,130,0,100,111,0,

150,129,0,99,110,0,

149,129,0,99,110,0,

148,128,0,99,109,1,

147,127,0,99,109,0,

147,127,0,98,108,0,

146,126,0,98,108,1,

146,126,0,97,108,0,

145,125,0,97,107,0,

144,125,0,97,107,0,

143,124,0,96,105,0,

143,124,0,96,105,0,

143,123,0,96,105,0,

142,123,0,95,103,0,

141,122,0,94,103,1,

141,121,0,94,103,0,

140,121,0,94,103,1,

140,121,0,93,103,0,

139,120,0,93,102,0,

139,120,0,93,101,0,

138,120,0,92,101,0,

137,119,0,92,100,0,

137,118,0,92,100,0,

135,118,0,91,99,0,

135,117,0,91,99,0,

135,117,0,90,99,0,

134,116,0,90,98,1,

134,115,0,89,98,0,

133,115,0,89,98,0,

133,114,0,89,97,1,

133,114,0,88,97,0,

131,113,0,88,96,0,

131,113,0,88,96,0,

131,113,0,88,96,0,

130,112,0,87,95,0,

130,112,0,87,95,0,

129,111,0,86,94,0,

129,111,0,86,94,0,

128,110,0,85,93,0,

127,110,0,85,93,0,

127,110,0,85,93,0,

127,109,0,84,92,0,

126,109,0,83,92,0,

126,108,0,83,92,0,

125,108,0,83,91,0,

125,108,0,83,91,0,

124,107,0,83,91,0,

124,107,0,82,90,0,

123,106,0,82,89,0,

123,105,0,81,89,0,

122,105,0,81,89,0,

121,104,0,82,88,0,

121,105,0,190,88,0,

121,103,0,268,88,0,

120,103,0,299,88,0,

120,103,0,295,87,0,

120,102,1,295,87,0,

119,102,0,293,86,0,

118,102,0,291,86,0,

118,101,0,289,86,0,

117,101,0,287,85,0,

117,100,0,286,85,0,

116,100,0,284,84,0,

116,99,0,283,83,0,

115,99,0,281,83,0,

115,99,0,280,83,1,

115,98,0,279,83,0,

114,97,0,277,83,0,

113,97,1,275,82,0,

113,97,0,274,82,0,

112,96,0,273,82,0,

112,96,0,271,81,0,

112,96,0,270,81,0,

111,96,0,268,80,0,

111,96,0,267,80,0,

110,95,0,266,80,0,

110,94,0,265,79,0,

109,94,0,263,79,0,

109,94,0,262,79,0,

109,93,0,261,79,0,

108,93,0,259,78,0,

108,92,0,258,78,0,

107,92,0,257,78,0,

107,92,0,255,77,0,

107,91,0,254,77,0,

106,91,0,253,76,0,

106,91,0,252,77,0,

105,90,0,251,76,0,

105,90,0,249,76,0,

109,96,0,248,76,0,

108,96,0,247,75,0,

108,96,0,246,75,0,

107,95,0,245,75,0,

106,94,0,243,74,0,

106,94,0,243,74,0,

105,93,0,241,73,0,

105,93,0,240,73,0,

105,93,0,240,73,0,

103,92,0,238,73,0,

103,92,0,237,72,0,

103,91,0,236,71,0,

103,91,0,235,71,0,

102,90,0,234,71,0,

102,90,0,233,71,0,

101,89,0,231,71,0,

101,89,0,231,71,0,

101,89,0,230,71,0,

100,88,0,228,70,0,

99,88,0,227,70,0,

99,88,0,227,70,0,

99,88,0,226,69,0,

99,87,0,224,69,0,

98,87,0,224,69,0,

98,86,0,223,68,0,

98,86,0,222,68,0,

97,86,0,221,68,0,

97,85,0,220,67,0,

96,85,0,219,67,1,

96,84,0,218,67,0,

96,84,0,217,67,0,

96,84,0,216,67,0,

95,83,0,216,67,0,

94,83,0,214,66,0,

94,83,0,214,66,0,

94,83,0,212,66,0,

93,82,0,211,65,0,

93,81,0,211,65,0,

93,81,0,210,65,0,

93,81,0,209,65,0,

92,81,0,207,64,0,

92,80,0,207,64,0,

91,80,0,206,63,0,

91,79,0,206,63,0,

91,79,0,205,63,0,

90,79,0,204,63,0,

90,79,0,203,63,0,

89,79,0,202,62,0,

89,78,0,201,62,0,

96,78,0,199,62,0,

96,78,0,199,61,0,

96,77,0,199,61,0,

95,77,0,198,61,0,

94,77,0,197,61,0,

94,77,0,196,61,0,

93,76,0,195,61,0,

93,76,0,195,60,0,

92,76,0,194,60,1,

92,75,0,193,60,0,

92,75,0,193,60,0,

92,75,0,192,60,0,

91,74,0,191,59,0,

90,74,0,190,59,0,

90,74,0,189,59,0,

90,73,0,189,58,0,

89,73,0,188,58,0,

89,73,0,187,58,0,

89,73,0,186,58,0,

88,71,0,185,58,0,

88,71,0,185,57,0,

87,71,0,184,57,0,

87,71,0,184,57,0,

88,71,0,183,56,0,

88,71,0,182,56,0,

87,71,0,181,56,0,

86,70,0,180,56,0,

86,70,0,179,56,0,

86,70,0,179,55,0,

85,70,0,179,55,0,

85,69,0,177,55,0,

85,69,0,177,55,0,

84,69,0,176,55,0,

84,68,0,176,54,0,

84,68,0,175,54,0,

83,69,0,174,54,0,

83,69,0,173,54,0,

83,69,0,173,53,0,

83,68,0,172,53,0,

82,68,0,171,53,0,

82,67,0,171,53,0,

81,67,0,170,53,0,

81,67,0,169,53,0,

81,67,0,167,52,0,

81,66,1,167,52,0,

80,66,0,167,51,0,

80,66,0,167,51,0,

82,66,0,166,51,0,

82,65,0,165,51,0,

81,65,0,165,51,0,

81,65,0,164,50,0,

80,65,0,163,51,0,

79,65,0,163,50,0,

79,64,0,162,50,0,

79,63,0,162,50,0,

79,63,0,160,49,0,

79,63,0,160,50,0,

78,63,0,159,49,0,

78,63,0,159,49,0,

78,62,0,158,49,0,

77,62,0,158,49,0,

77,62,0,157,48,0,

77,62,0,157,48,0,

77,62,0,156,48,0,

76,61,0,155,48,0,

76,61,0,155,48,0,

76,61,0,154,48,0,

76,61,0,153,47,0,

75,60,0,153,47,0,

75,61,0,152,47,0,

75,60,0,152,46,0,

74,60,0,151,46,0,

75,60,0,150,47,0,

74,60,0,150,46,0,

73,59,0,149,46,0,

73,59,0,148,45,0,

73,59,0,147,46,0,

73,59,0,147,45,0,

71,58,0,147,45,0,

71,58,0,146,45,0,

71,58,0,146,45,0,

71,58,0,145,44,0,

71,57,0,144,44,0,

71,57,0,143,44,0,

71,57,0,143,44,0,

71,57,0,143,44,0,

70,56,0,142,44,0,

70,56,0,141,43,0,

70,56,0,141,44,0,

70,56,0,141,43,0,

69,56,0,140,43,0,

69,56,0,140,43,0,

69,56,0,139,42,0,

68,55,0,138,42,0,

68,55,0,138,42,0,

67,55,0,137,42,0,

67,54,0,137,42,0,

88,63,0,135,41,0,

87,63,0,135,41,0,

86,63,0,135,41,0,

86,63,0,135,41,0,

86,62,0,135,41,0,

85,62,0,134,41,0,

84,61,0,133,41,0,

83,61,0,133,40,0,

83,61,0,132,39,0,

83,61,0,131,39,0,

83,60,0,131,39,0,

83,60,0,131,39,0,

82,60,0,130,39,0,

109,82,0,130,39,0,

108,86,0,129,39,0,

108,86,0,128,39,0,

107,85,0,127,39,0,

107,85,0,127,39,0,

106,84,0,127,39,0,

105,83,0,127,38,0,

105,83,0,126,38,0,

103,83,0,125,38,0,

103,82,0,125,38,0,

103,82,0,124,38,0,

103,81,0,124,37,0,

115,81,0,124,37,0,

114,80,0,123,37,0,

113,80,0,123,37,0,

113,79,0,122,37,0,

112,79,0,121,37,0,

112,79,0,121,37,0,

112,78,0,121,36,0,

111,78,0,120,36,0,

110,78,0,120,36,0,

109,77,0,119,36,0,

192,77,0,118,36,0,

227,76,0,118,35,0,

225,76,0,118,35,0,

224,76,0,117,35,0,

222,75,0,117,35,0,

221,75,0,116,35,0,

220,75,0,116,35,0,

218,74,0,115,34,0,

217,73,0,115,34,0,

216,73,0,115,34,0,

215,73,0,114,34,0,

214,73,0,113,34,0,

213,71,0,113,34,0,

211,71,0,113,34,0,

210,71,0,112,34,0,

209,71,0,112,33,0,

207,71,0,112,33,0,

207,70,0,111,33,0,

206,70,0,110,33,0,

205,70,0,110,33,0,

204,70,0,110,33,0,

203,69,0,109,32,0,

202,69,0,109,32,0,

201,68,0,108,31,0,

199,77,0,108,32,0,

199,83,0,108,31,0,

199,83,0,107,31,0,

197,82,0,106,31,0,

196,82,0,106,31,0,

195,81,0,105,31,0,

194,81,0,105,31,0,

193,80,0,105,31,0,

192,79,0,105,31,0,

192,79,0,103,30,0,

191,79,0,103,30,0,

190,79,0,103,30,0,

189,79,0,103,30,0,

188,78,0,103,30,0,

187,77,0,102,30,0,

186,77,0,102,29,0,

185,77,0,101,30,0,

184,76,0,101,29,0,

184,76,0,100,29,0,

183,76,0,99,29,0,

182,76,0,99,29,0,

181,75,0,99,29,0,

180,75,0,99,29,0,

179,74,0,98,28,0,

179,75,0,98,29,0,

178,74,0,97,29,0,

177,73,0,97,28,0,

176,73,0,97,28,1,

176,73,0,96,28,0,

175,71,0,96,28,0,

174,71,0,96,28,0,

173,71,0,96,28,0,

173,71,0,95,28,0,

172,71,0,95,28,0,

171,71,0,94,27,0,

171,71,0,94,27,0,

170,70,0,94,27,0,

169,70,0,94,27,0,

167,70,0,134,27,0,

167,69,0,132,27,0,

167,68,0,131,26,0,

166,68,0,131,26,0,

165,68,0,130,26,0,

164,67,0,130,26,0,

163,67,0,129,27,0,

163,67,0,128,26,0,

162,67,0,127,26,0,

161,66,0,127,25,0,

161,66,0,127,25,0,

159,66,0,126,25,0,

159,65,0,125,25,0,

159,65,0,125,25,0,

158,65,0,124,25,0,

157,64,0,124,25,0,

156,64,0,123,25,0,

156,63,0,122,25,0,

155,63,1,121,25,0,

154,63,0,121,25,0,

153,63,0,120,24,0,

153,63,0,120,24,0,

152,62,0,120,24,0,

152,62,0,119,24,0,

151,62,0,118,24,0,

151,61,0,118,24,0,

150,61,0,117,24,0,

149,60,0,116,24,0,

148,61,0,115,23,0,

147,60,0,115,23,0,

147,60,0,114,23,0,

146,60,0,114,23,0,

146,59,0,114,23,0,

145,59,0,113,23,0,

145,59,0,113,23,0,

145,59,0,112,23,0,

144,58,0,112,22,0,

143,58,0,111,22,0,

143,57,0,111,22,0,

142,57,0,110,22,0,

142,57,0,109,22,0,

141,57,0,109,22,0,

140,56,0,108,22,0,

140,56,0,108,21,0,

139,56,0,108,21,0,

139,56,0,107,21,0,

138,55,0,107,21,0,

137,55,0,106,22,0,

137,55,0,105,21,0,

135,55,0,105,21,0,

135,54,0,103,21,0,

135,54,0,103,21,0,

134,54,0,103,20,0,

134,54,0,103,21,0,

133,53,0,103,20,0,

132,53,0,102,19,0,

131,53,0,102,20,0,

131,53,0,102,20,0,

131,52,0,101,19,0,

130,52,0,100,19,0,

130,51,0,99,19,0,

129,51,0,99,19,0,

129,51,0,99,19,0,

128,51,0,99,19,0,

127,51,0,98,19,0,

127,50,0,98,19,0,

126,51,0,97,20,0,

126,50,0,97,19,0,

125,50,0,96,19,0,

125,59,0,96,19,0,

126,69,0,96,18,0,

125,68,0,96,31,0,

125,68,0,95,95,0,

124,67,0,94,100,0,

124,67,0,94,100,0,

123,67,0,94,99,0,

123,66,0,93,99,0,

121,66,0,93,99,0,

121,66,0,93,98,0,

121,65,0,92,97,0,

121,65,0,92,97,1,

120,65,0,92,96,0,

120,64,0,91,96,0,

119,64,0,91,95,0,

119,63,0,91,95,0,

118,63,0,90,94,0,

118,63,0,89,94,0,

117,62,0,89,93,0,

117,63,0,89,93,0,

116,62,0,88,92,0,

116,62,0,88,92,0,

115,61,0,88,92,0,

115,61,0,88,91,0,

114,61,0,88,91,0,

114,61,0,87,90,0,

157,60,0,86,90,0,

156,60,0,86,89,0,

156,60,0,86,89,0,

155,60,0,86,88,0,

154,59,0,85,88,0,

153,59,0,85,88,0,

152,59,0,84,87,0,

152,59,0,84,87,0,

151,57,0,84,86,0,

150,57,0,83,86,0,

149,57,0,83,86,0,

149,57,0,83,85,0,

148,57,0,83,85,0,

147,57,0,82,84,0,

147,56,0,82,84,0,

146,56,0,82,83,0,

145,56,0,81,83,0,

145,56,0,81,83,0,

143,56,0,80,82,0,

143,55,0,80,82,0,

143,55,0,80,81,0,

142,55,0,79,81,0,

141,54,0,79,81,0,

140,54,0,79,80,0,

140,54,0,79,80,0,

140,53,0,79,79,0,

139,53,0,78,79,0,

138,53,0,78,79,0,

137,53,0,77,78,0,

137,53,0,77,78,0,

135,52,0,77,78,0,

135,52,0,77,77,0,

135,52,0,77,77,0,

135,51,0,76,77,0,

134,51,0,76,76,0,

133,51,0,76,76,0,

132,51,0,75,76,0,

131,51,0,75,76,0,

131,50,0,75,75,0,

131,50,0,75,75,0,

130,50,0,74,74,0,

129,49,0,74,74,0,

129,49,0,73,74,0,

128,49,0,73,73,0,

127,49,0,73,73,0,

127,49,0,73,72,0,

127,48,0,71,71,0,

126,48,0,71,71,0,

126,48,0,71,71,0,

125,48,0,71,71,0,

124,48,0,71,71,0,

124,48,0,71,71,0,

123,47,0,71,70,0,

123,47,0,71,70,0,

122,47,0,70,70,0,

121,47,0,70,69,0,

121,46,0,70,69,0,

121,46,0,70,69,0,

120,46,0,69,68,0,

120,46,0,69,68,0,

119,46,0,69,68,0,

119,46,0,68,67,0,

118,45,0,68,67,0,

117,45,0,68,67,0,

117,44,0,67,66,0,

116,45,0,67,66,0,

115,44,0,67,66,0,

115,44,0,67,65,0,

115,44,0,67,65,0,

114,44,0,66,65,0,

114,44,0,66,65,0,

114,43,0,65,64,0,

113,43,0,65,64,0,

113,43,0,65,63,0,

112,43,0,65,63,0,

112,43,0,65,63,0,

111,43,0,64,63,0,

110,42,0,64,63,0,

110,42,0,63,62,0,

110,42,0,63,62,0,

109,42,0,63,62,0,

109,42,0,63,61,0,

108,41,0,63,61,0,

108,41,0,62,61,0,

108,41,0,62,61,0,

107,41,0,62,60,0,

107,41,0,62,60,0,

106,41,0,62,60,0,

106,39,0,62,59,0,

105,39,0,61,59,0,

103,39,0,61,59,0,

105,39,0,61,59,0,

103,39,0,60,58,0,

103,39,0,60,58,0,

103,39,0,60,57,0,

103,39,0,60,58,0,

102,39,0,60,57,0,

102,39,0,60,57,0,

102,39,0,59,57,0,

101,39,0,59,57,0,

101,38,0,59,56,0,

100,38,1,59,56,0,

99,38,0,58,56,0,

99,38,0,58,56,0,

99,37,0,57,56,0,

99,37,0,57,55,0,

99,37,0,57,55,0,

98,37,0,57,54,0,

98,37,0,57,55,0,

97,37,0,56,54,0,

97,37,0,56,54,0,

96,37,0,56,54,0,

96,36,0,56,54,0,

96,36,0,56,53,0,

96,36,0,56,53,0,

95,35,0,55,53,0,

95,36,0,56,52,0,

94,35,0,55,52,0,

94,35,0,55,51,0,

93,35,0,55,51,0,

93,35,0,54,51,0,

93,35,0,54,51,0,

92,35,0,54,51,0,

92,35,0,54,51,0,

92,34,0,54,51,0,

92,34,0,53,50,0,

91,34,0,53,50,0,

91,35,0,53,50,0,

90,34,0,53,50,0,

90,34,0,52,49,0,

89,34,0,52,49,0,

89,34,0,52,49,0,

89,34,0,51,49,0,

89,33,0,51,49,0,

89,34,0,51,48,0,

88,33,0,51,48,0,

88,33,0,51,48,0,

88,33,0,51,48,0,

87,33,0,50,48,0,

86,33,0,51,48,0,

86,33,0,50,47,0,

86,33,0,50,47,0,

86,33,0,50,47,0,

85,33,0,50,46,0,

85,32,0,50,46,0,

85,32,0,49,46,0,

84,31,0,49,46,0,

84,32,0,49,45,0,

83,31,0,49,45,0,

83,31,0,49,45,0,

83,31,0,48,45,0,

83,31,0,48,45,0,

82,31,0,48,45,0,

82,31,0,48,45,0,

82,31,0,47,44,0,

81,31,0,48,44,0,

81,31,0,48,44,0,

81,30,0,47,44,0,

80,30,0,47,44,0,

80,30,0,47,43,0,

79,30,0,46,43,0,

79,30,0,46,43,0,

79,30,0,46,43,0,

79,30,0,46,42,0,

79,30,0,46,43,0,

78,30,0,45,42,0,

78,29,0,45,42,0,

78,29,0,45,41,0,

77,29,0,45,42,0,

77,29,0,45,41,0,

77,29,0,45,41,0,

77,29,0,44,41,0,

76,29,0,44,41,0,

76,29,0,44,41,0,

76,28,0,44,40,0,

75,28,0,44,41,0,

75,28,0,44,39,0,

75,28,0,44,39,0,

74,28,0,44,39,0,

74,28,0,43,39,0,

74,28,0,43,39,0,

74,28,0,43,39,0,

73,28,0,43,39,0,

73,28,0,43,39,0,

72,27,0,42,39,0,

73,27,0,42,39,0,

71,27,0,42,39,0,

71,27,0,42,38,0,

71,27,0,42,38,0,

71,52,0,41,38,0,

71,51,0,41,38,0,

71,51,0,41,38,0,

71,51,0,41,40,0,

70,50,0,41,42,0,

70,50,0,41,41,0,

70,50,0,41,41,0,

69,49,0,39,41,0,

69,49,0,39,41,0,

69,49,0,39,41,0,

69,48,0,39,40,0,

68,48,0,39,39,0,

68,48,0,39,39,0,

68,48,0,39,39,1,

67,48,0,39,39,0,

67,47,0,39,39,0,

67,47,0,39,39,0,

67,47,0,39,39,0,

67,47,0,39,39,0,

66,46,0,38,39,0,

66,46,0,39,39,0,

66,46,0,38,39,0,

66,46,0,38,38,0,

65,46,0,38,38,0,

65,45,0,38,38,0,

65,45,0,38,38,0,

64,45,0,37,38,0,

64,45,0,37,37,0,

63,45,0,37,37,0,

63,45,0,37,37,0,

63,44,0,37,37,0,

63,44,0,37,36,0,

63,44,0,37,37,0,

62,43,0,36,36,0,

62,44,0,36,36,0,

62,43,0,36,36,0,

62,43,0,35,35,0,

61,43,0,36,35,0,

62,43,0,36,35,0,

61,42,0,35,35,0,

61,42,0,35,35,0,

61,42,0,35,35,0,

61,42,0,35,34,0,

60,42,0,35,35,0,

60,41,0,35,34,0,

60,41,0,35,34,0,

60,41,0,35,34,0,

60,41,0,34,34,0,

60,41,0,34,34,0,

59,39,0,34,33,0,

59,39,0,34,33,0,

58,39,0,34,33,0,

59,39,0,34,33,0,

58,39,0,34,33,0,

58,39,0,33,33,0,

58,39,0,33,32,0,

57,39,0,33,32,0,

57,39,0,33,32,0,

57,39,0,33,32,0,

57,39,0,33,31,0,

57,38,0,32,31,0,

56,38,0,33,31,0,

56,38,0,33,31,0,

56,38,0,32,31,0,

56,38,0,31,31,0,

56,37,0,51,31,0,

56,55,0,84,31,0,

56,55,0,84,30,0,

55,54,0,83,31,0,

54,54,0,82,30,0,

54,53,0,82,30,0,

54,53,0,82,30,0,

54,53,0,81,30,0,

54,52,0,81,30,0,

54,52,0,80,30,0,

54,51,0,80,29,0,

53,51,0,79,30,0,

53,51,0,79,29,0,

53,51,0,79,29,0,

53,51,0,78,29,0,

52,51,0,78,29,0,

52,50,0,78,29,0,

52,50,0,77,29,0,

51,50,0,77,28,0,

51,50,0,77,28,0,

51,49,0,77,28,0,

51,49,0,76,28,0,

51,49,0,76,28,0,

50,48,0,75,28,0,

50,49,0,75,28,0,

51,48,0,75,28,0,

50,48,0,74,27,0,

50,48,0,74,27,0,

50,48,0,74,28,0,

50,47,0,73,27,0,

49,47,0,73,27,0,

49,47,0,73,27,0,

49,46,0,71,27,0,

49,46,0,71,26,0,

49,46,0,71,26,0,

48,46,0,71,26,0,

48,46,0,71,26,0,

48,45,0,71,26,0,

48,45,0,71,26,0,

48,45,0,70,26,0,

47,45,0,70,26,0,

47,45,0,70,25,0,

47,45,0,69,26,0,

47,44,0,69,25,0,

47,44,0,69,25,0,

46,44,0,68,25,0,

46,44,0,68,25,0,

46,43,0,68,25,0,

46,43,0,67,25,0,

46,43,0,67,25,0,

45,43,0,67,24,0,

45,43,0,67,24,0,

45,42,0,66,24,0,

45,44,0,66,24,0,

45,44,0,65,24,0,

45,43,0,65,24,0,

45,43,0,65,24,0,

44,43,0,65,24,0,

44,43,0,65,24,0,

44,42,0,64,24,0,

44,42,0,63,24,0,

44,42,0,63,23,0,

43,42,0,63,23,0,

44,41,0,63,23,0,

43,41,0,63,23,0,

43,41,0,62,23,0,

43,49,0,62,22,0,

43,57,0,62,23,0,

42,57,0,61,23,0,

43,57,0,62,23,0,

42,57,0,61,22,0,

42,56,0,61,22,0,

41,56,0,60,22,0,

42,56,0,61,21,0,

41,56,0,60,22,0,

41,56,0,60,21,0,

41,55,0,60,21,0,

41,55,0,60,21,0,

41,55,0,59,21,0,

39,55,0,59,21,0,

41,54,0,58,21,0,

39,54,0,58,21,0,

39,54,0,58,21,0,

39,54,0,57,20,0,

39,54,0,57,20,0,

39,53,0,57,20,0,

39,53,0,57,20,0,

39,52,0,57,20,0,

39,52,0,56,20,0,

39,52,0,56,19,0,

39,51,0,56,20,0,

39,51,0,56,20,0,

38,56,0,56,19,0,

38,69,0,55,19,0,

38,77,0,55,19,0,

38,77,0,55,19,0,

38,76,0,55,19,0,

38,76,0,54,19,0,

38,76,0,54,19,1,

37,75,0,54,19,0,

37,75,0,53,19,0,

37,74,0,53,19,0,

37,73,0,53,19,0,

37,73,0,53,18,0,

37,73,0,53,18,0,

37,73,0,52,18,0,

36,71,0,52,18,0,

36,71,0,51,18,0,

35,71,0,52,18,0,

35,71,0,51,18,0,

35,71,0,51,18,0,

35,71,0,51,18,0,

35,70,0,51,18,0,

35,70,0,51,18,0,

35,70,0,51,18,0,

35,69,0,50,17,0,

35,69,0,50,18,0,

35,69,0,50,17,0,

35,69,0,49,17,0,

34,68,0,49,17,0,

34,67,0,49,17,0,

34,67,0,49,17,0,

34,67,0,49,17,0,

34,67,0,49,17,0,

34,66,0,48,17,0,

34,66,0,48,16,0,

34,66,0,48,16,0,

33,65,0,48,16,0,

33,65,0,48,16,0,

33,65,0,48,16,0,

33,65,0,48,16,0,

33,70,0,47,16,0,

33,79,0,47,16,0,

33,81,0,46,16,0,

32,80,0,47,16,0,

32,79,0,46,15,0,

32,79,0,46,15,0,

31,79,0,46,15,0,

31,79,0,46,15,0,

31,78,0,45,15,0,

31,78,0,45,15,0,

31,77,0,45,15,0,

31,77,0,45,15,0,

31,77,0,45,15,0,

31,76,0,44,15,0,

31,76,0,44,15,0,

31,76,0,44,15,0,

31,75,0,44,15,0,

30,75,0,44,15,0,

30,75,0,43,15,0,

30,74,0,43,15,0,

30,73,0,43,15,0,

30,73,0,43,15,0,

30,73,0,43,14,0,

30,73,0,43,14,0,

30,72,0,42,14,0,

30,72,0,42,14,0,

29,71,0,42,14,0,

29,71,0,49,16,0,

30,71,0,49,16,0,

29,71,0,49,16,0,

29,71,0,49,15,0,

29,70,0,48,16,0,

29,70,0,48,16,0,

29,69,0,48,16,0,

28,69,0,48,15,0,

28,69,0,47,15,0,

28,69,0,47,15,0,

28,68,0,47,15,0,

28,67,0,47,15,0,

28,68,0,46,15,0,

28,68,0,46,15,0,

28,68,0,46,15,0,

27,68,0,46,15,0,

27,67,0,46,15,0,

27,67,0,46,15,0,

27,67,0,46,14,0,

27,67,0,45,15,0,

27,66,0,45,14,0,

27,67,0,45,14,0,

27,66,0,44,14,0,

27,66,0,44,14,0,

26,65,0,44,14,0,

26,65,0,61,14,0,

26,65,0,69,14,0,

26,65,0,68,14,0,

26,64,0,67,14,0,

