
49,30,4,32,60,3,

49,29,3,33,60,3,

51,34,3,32,60,4,

50,34,3,32,60,3,

51,34,5,32,59,4,

50,33,4,31,60,3,

50,33,3,32,59,4,

49,33,3,31,59,3,

50,33,3,31,59,3,

49,32,3,31,58,4,

49,31,4,31,58,4,

49,31,4,31,57,4,

49,32,4,31,57,4,

48,31,4,31,57,3,

48,31,4,30,57,4,

48,33,4,30,56,3,

48,31,4,30,56,3,

47,31,4,30,56,4,

47,31,3,31,56,3,

47,31,3,29,56,3,

47,31,4,30,56,4,

46,31,3,30,56,3,

47,30,3,29,55,3,

46,30,4,29,54,3,

45,30,3,30,54,3,

46,30,4,29,54,4,

46,31,3,29,54,3,

45,30,4,30,54,4,

46,30,3,29,53,4,

46,30,3,28,53,3,

45,30,3,28,53,3,

46,30,4,28,52,4,

46,30,3,28,53,5,

45,29,4,44,52,3,

45,30,3,73,51,4,

44,29,3,95,52,3,

45,29,4,94,52,4,

45,30,5,93,52,3,

44,29,3,93,51,3,

44,28,3,92,51,4,

44,29,4,92,51,4,

53,30,4,92,51,3,

54,30,3,92,51,4,

53,29,3,91,50,3,

52,30,4,90,49,3,

52,29,4,89,50,3,

52,29,3,90,49,4,

52,29,3,89,49,3,

51,29,4,88,49,4,

51,29,4,88,49,3,

51,28,3,88,48,4,

51,28,3,88,48,4,

51,29,3,87,48,4,

50,28,4,87,48,3,

71,36,3,86,48,4,

71,37,4,86,48,3,

71,36,3,85,48,4,

70,36,3,85,47,4,

69,36,3,85,47,4,

70,35,4,84,47,4,

70,35,3,83,47,3,

69,35,3,83,47,4,

69,34,3,83,47,4,

69,34,4,83,46,3,

68,35,3,83,45,4,

67,34,4,82,46,4,

67,34,3,82,46,4,

68,42,4,81,45,4,

67,44,3,82,45,3,

67,43,4,80,45,3,

67,44,4,81,45,5,

67,42,4,79,44,3,

66,42,3,79,44,3,

67,41,4,79,44,3,

67,42,3,79,44,4,

66,42,3,79,44,3,

66,41,4,78,43,4,

65,41,3,78,44,4,

65,41,3,77,43,4,

65,40,3,78,43,4,

64,41,4,77,43,3,

63,41,4,77,43,5,

64,40,3,77,42,3,

63,41,3,76,42,3,

63,39,3,76,42,4,

63,39,3,76,42,3,

63,39,4,76,41,3,

63,39,3,75,41,3,

62,39,5,75,41,3,

61,39,3,74,41,4,

62,39,3,75,41,3,

62,39,4,74,57,3,

61,39,4,73,61,3,

61,38,4,73,62,4,

61,38,4,73,61,3,

60,38,4,73,61,3,

60,37,3,71,60,3,

60,38,4,71,60,3,

60,37,3,71,59,3,

59,37,3,71,59,3,

59,38,3,71,59,3,

59,37,3,71,59,3,

59,37,3,71,58,3,

58,36,4,70,58,4,

58,36,3,70,57,4,

58,37,4,70,57,3,

57,35,4,69,57,4,

57,36,4,69,57,4,

57,35,4,68,57,3,

56,36,4,68,56,3,

56,36,4,68,56,3,

56,35,3,68,56,4,

56,35,3,68,56,3,

56,35,4,67,56,3,

56,35,3,67,55,4,

56,34,4,67,55,3,

55,35,4,66,55,3,

54,34,3,66,54,4,

54,34,3,66,54,3,

81,47,4,66,54,4,

84,49,4,65,54,3,

83,49,4,65,54,4,

83,49,3,64,53,3,

83,48,4,64,53,3,

82,48,3,64,53,3,

81,48,3,65,53,3,

81,48,3,64,52,3,

81,48,4,63,51,3,

81,47,3,63,52,3,

79,47,4,63,51,3,

80,46,3,63,51,3,

79,47,4,63,51,4,

79,46,3,62,51,4,

78,47,4,62,51,3,

78,45,4,61,50,4,

78,45,4,61,50,3,

78,46,3,61,50,4,

77,45,3,62,50,3,

78,45,4,61,50,3,

76,44,4,60,49,3,

76,44,4,60,49,3,

76,45,4,60,49,4,

76,44,3,60,49,3,

75,44,4,59,49,4,

76,43,4,59,49,3,

75,44,4,59,48,4,

75,44,4,58,48,4,

74,43,4,58,48,4,

73,43,3,58,48,3,

73,43,3,58,47,3,

73,42,3,57,47,3,

73,41,4,57,47,3,

71,42,3,57,47,3,

71,41,4,57,46,4,

71,41,3,57,46,3,

71,42,5,57,46,4,

71,41,3,57,47,4,

71,41,3,56,46,4,

73,42,4,57,46,3,

89,49,3,56,45,3,

88,48,3,56,44,3,

88,49,3,56,44,4,

88,49,4,55,44,3,

87,49,3,54,44,3,

87,48,3,55,45,4,

86,48,4,54,44,4,

86,47,3,54,44,3,

85,48,3,54,44,4,

85,47,3,54,43,3,

84,46,4,54,43,3,

85,46,3,54,44,3,

83,46,4,53,44,4,

83,46,3,53,43,3,

83,46,3,52,43,4,

83,45,3,53,42,3,

82,46,3,52,42,4,

81,46,3,52,42,3,

82,45,3,51,43,3,

81,45,3,52,41,3,

81,44,4,51,41,4,

80,44,3,51,42,3,

79,44,3,50,41,3,

79,44,3,51,41,4,

80,44,3,50,41,4,

79,44,3,61,41,4,

79,44,3,110,41,3,

79,43,5,110,39,3,

78,43,4,109,41,3,

78,43,4,108,39,4,

77,43,3,108,39,3,

76,42,4,107,39,4,

76,42,4,107,39,3,

76,43,4,106,39,3,

76,41,4,106,39,3,

76,41,4,105,39,3,

75,41,3,105,39,4,

75,41,4,103,38,3,

75,41,4,103,38,4,

75,41,4,103,38,4,

75,41,5,103,38,3,

74,41,3,102,38,3,

74,39,3,101,37,5,

73,41,4,101,38,3,

73,39,3,101,37,3,

71,39,3,100,37,4,

71,39,3,101,37,3,

71,39,3,99,37,4,

71,39,5,99,36,3,

71,39,4,99,46,3,

71,39,5,98,87,3,

71,43,4,98,103,3,

71,43,3,97,102,4,

69,42,3,98,101,3,

70,42,3,97,100,4,

69,42,4,96,100,4,

69,42,4,96,99,4,

69,41,4,96,99,4,

69,41,3,95,99,3,

68,41,4,95,98,4,

67,40,4,94,97,4,

67,40,3,93,97,4,

67,39,4,93,97,3,

67,41,4,93,96,4,

66,41,3,93,96,4,

67,39,3,92,95,4,

67,39,3,92,95,3,

65,39,5,91,94,3,

66,39,4,91,94,4,

65,39,3,91,93,4,

66,39,3,90,94,3,

65,39,3,90,93,3,

64,39,4,89,92,4,

64,38,3,89,92,3,

63,38,3,88,92,3,

63,38,4,89,91,4,

63,38,4,88,91,4,

64,37,3,88,91,5,

63,37,3,88,91,3,

63,37,4,88,89,3,

63,37,4,88,89,3,

63,37,3,86,89,3,

62,37,4,86,88,3,

63,37,4,86,89,4,

62,36,4,86,88,4,

62,36,3,86,87,3,

61,37,3,85,87,4,

62,36,4,84,87,4,

62,36,4,83,87,4,

61,36,3,83,129,3,

60,35,4,83,130,3,

60,35,4,83,129,3,

60,35,3,83,127,4,

60,35,4,82,127,3,

60,35,3,82,126,3,

59,35,4,81,126,3,

59,35,4,82,125,4,

59,34,3,81,133,4,

58,34,3,80,132,4,

58,34,4,79,131,3,

57,34,3,79,131,3,

58,34,3,79,130,5,

57,33,4,79,129,3,

57,33,4,79,129,3,

56,33,3,79,128,3,

56,32,4,78,127,3,

57,33,3,79,127,4,

56,33,4,78,126,4,

56,31,4,78,125,3,

56,33,4,77,125,4,

56,32,3,77,124,4,

55,31,3,77,124,4,

56,31,4,77,123,4,

54,31,3,76,123,4,

67,34,4,76,123,4,

78,51,3,76,124,4,

77,51,4,75,122,3,

77,51,3,75,121,3,

76,50,4,75,121,4,

76,49,4,74,120,3,

75,49,3,74,120,5,

76,49,5,74,119,4,

75,49,4,73,119,4,

74,48,4,73,118,3,

74,49,3,73,119,3,

75,48,4,71,124,4,

73,48,4,71,123,4,

73,48,4,71,123,3,

73,48,3,71,122,4,

73,48,4,71,121,4,

71,47,4,71,121,4,

71,47,3,73,120,4,

71,46,4,71,120,5,

71,46,4,71,119,4,

71,46,4,71,119,3,

70,46,3,71,118,3,

70,45,4,71,117,3,

70,46,4,71,117,4,

70,45,4,70,116,4,

69,46,3,70,116,4,

134,45,4,70,115,4,

162,44,3,69,115,4,

161,44,4,68,113,4,

159,44,3,69,114,3,

159,44,3,68,113,3,

158,43,3,68,113,4,

157,43,3,67,112,3,

157,44,3,67,113,4,

155,43,4,67,120,3,

155,43,3,67,119,3,

154,42,4,67,119,4,

155,78,4,66,118,3,

161,82,4,66,147,3,

159,81,3,65,145,3,

159,81,4,65,143,3,

158,80,4,65,143,3,

157,79,4,65,142,4,

156,80,3,146,142,4,

156,79,4,207,141,3,

155,78,4,210,140,3,

154,78,4,209,139,5,

154,78,4,207,183,4,

152,77,4,206,191,4,

152,77,4,205,189,3,

150,76,4,204,188,4,

150,76,3,203,187,5,

150,76,3,201,186,4,

148,75,3,199,184,4,

147,75,3,199,184,4,

147,75,4,198,183,4,

146,75,4,197,182,3,

145,73,3,196,181,3,

144,73,3,195,179,3,

143,74,5,194,179,4,

143,83,3,193,178,3,

142,83,3,192,177,4,

142,82,4,192,176,4,

141,81,4,190,176,4,

140,81,3,189,175,3,

140,81,4,188,173,4,

139,80,3,188,172,3,

139,79,3,186,172,4,

137,79,4,186,171,4,

137,78,4,185,171,4,

137,79,4,185,295,5,

154,94,4,184,343,4,

153,93,4,182,340,3,

152,93,3,182,337,4,

152,92,3,180,335,4,

150,92,4,179,333,4,

150,91,4,178,332,4,

149,90,5,177,329,4,

149,89,4,177,327,4,

147,89,4,176,325,4,

147,89,4,175,348,5,

146,89,4,175,439,5,

145,111,5,174,494,3,

144,110,4,173,489,4,

143,110,5,172,486,4,

143,109,4,172,482,5,

142,108,5,171,478,4,

142,108,4,170,475,3,

141,108,5,167,471,4,

140,107,5,167,468,5,

140,106,4,167,465,4,

138,105,4,167,461,4,

138,109,5,166,458,4,

137,183,4,165,454,5,

135,180,5,164,451,5,

135,178,4,163,448,4,

135,177,4,162,446,4,

134,176,4,162,441,4,

134,175,3,160,440,4,

133,174,5,159,436,4,

132,173,5,159,434,4,

131,172,4,159,431,4,

131,171,4,157,429,4,

131,188,5,157,425,5,

130,192,5,156,423,4,

129,190,5,156,420,5,

129,189,5,154,418,4,

127,188,4,154,415,4,

127,187,5,153,412,5,

126,185,5,152,409,4,

125,185,4,152,408,5,

125,184,5,151,405,5,

125,182,4,150,402,4,

124,181,4,150,399,4,

124,180,4,150,398,5,

123,179,5,190,396,4,

123,179,5,189,393,5,

123,178,6,281,480,4,

121,177,5,281,555,5,

121,176,5,278,548,5,

120,174,5,276,543,5,

120,174,5,275,538,4,

118,173,5,273,534,4,

118,172,4,271,531,5,

118,171,5,269,526,5,

117,170,5,268,523,5,

115,169,5,268,519,4,

115,169,5,265,515,5,

115,167,5,263,511,4,

115,167,5,263,507,5,

114,167,5,261,503,5,

113,165,4,259,500,5,

113,164,5,258,496,5,

112,163,4,257,493,4,

112,163,5,255,567,5,

112,161,4,254,571,5,

111,161,5,252,565,6,

111,159,5,251,560,5,

109,159,5,250,555,5,

109,159,5,248,551,4,

109,158,4,247,547,5,

108,157,5,246,542,5,

108,156,5,245,538,5,

107,156,4,243,535,5,

106,155,5,241,531,5,

106,154,5,241,527,4,

106,153,6,240,523,5,

105,152,5,239,519,5,

105,152,5,237,515,5,

103,151,5,236,511,5,

103,149,5,235,508,4,

103,149,5,234,504,5,

103,148,6,231,501,5,

103,147,5,231,496,6,

101,147,5,230,494,5,

101,146,5,229,489,5,

100,146,5,227,487,5,

99,145,5,227,483,6,

99,143,5,225,481,6,

99,143,5,224,478,5,

99,142,5,224,473,5,

98,142,5,223,472,5,

98,141,4,221,468,6,

98,141,5,221,467,5,

98,140,5,220,463,5,

97,139,5,219,460,6,

96,139,5,217,458,5,

96,139,5,217,454,5,

96,138,5,216,452,5,

95,137,6,216,449,6,

94,137,6,213,446,5,

94,135,5,324,444,6,

94,135,6,420,485,6,

94,135,6,564,481,6,

93,134,6,689,477,6,

93,133,5,865,475,6,

92,133,7,907,474,6,

93,131,6,912,611,6,

92,131,6,913,647,6,

90,131,6,909,639,5,

91,131,7,890,635,6,

89,130,6,878,629,6,

89,129,6,871,623,6,

89,128,7,860,619,6,

89,127,6,853,613,6,

89,127,6,843,609,7,

88,126,6,835,604,6,

88,125,7,827,598,6,

87,125,6,817,595,7,

87,125,6,811,590,7,

87,124,7,803,586,6,

86,124,7,795,581,7,

85,124,7,788,577,7,

85,122,6,780,572,6,

85,121,7,774,569,7,

85,121,7,765,565,7,

83,120,7,760,560,7,

84,120,6,753,557,7,

83,120,7,745,551,6,

83,119,6,739,548,7,

82,119,7,733,545,7,

82,119,7,728,541,7,

82,117,6,721,537,6,

81,117,6,716,534,6,

81,117,7,709,529,6,

81,115,7,702,526,7,

81,115,7,698,523,7,

80,115,7,691,519,7,

79,114,6,687,515,6,

79,114,6,681,513,6,

79,113,7,675,509,6,

78,112,7,670,505,6,

78,112,7,665,502,6,

77,112,7,660,499,6,

77,112,6,654,496,7,

77,111,6,649,492,7,

77,112,6,645,489,7,

76,111,6,639,487,6,

76,110,7,636,483,6,

76,109,7,630,481,7,

75,109,7,627,477,7,

75,109,7,622,473,6,

74,109,6,615,472,7,

74,108,7,614,470,7,

74,108,6,608,467,7,

74,107,7,605,463,7,

73,106,7,600,462,7,

74,106,7,595,459,7,

74,105,7,592,455,7,

73,105,7,588,453,7,

71,105,7,583,450,7,

71,103,7,579,448,7,

71,103,7,575,445,7,

71,103,7,572,441,7,

71,103,7,568,440,7,

71,102,7,564,438,7,

90,102,7,561,435,7,

89,102,7,558,432,7,

90,101,7,553,430,7,

89,100,7,550,427,7,

88,100,7,547,423,7,

88,99,7,543,423,7,

88,99,7,540,420,7,

87,99,7,537,418,7,

87,98,7,533,415,7,

86,99,9,530,413,7,

86,98,7,527,412,7,

85,98,7,524,409,7,

85,97,7,520,407,7,

84,96,7,518,406,7,

83,96,9,515,403,7,

83,96,9,511,401,8,

83,96,9,509,399,8,

83,95,7,505,397,7,

82,94,7,503,394,9,

82,94,7,500,391,9,

81,94,7,496,391,7,

82,93,7,494,388,9,

81,93,8,491,386,9,

79,92,7,487,384,8,

79,92,8,485,382,7,

79,92,8,483,381,7,

79,91,9,480,379,9,

79,91,8,477,377,9,

78,89,8,475,375,7,

78,89,7,472,373,8,

78,90,7,470,371,9,

78,89,7,467,369,9,

77,88,8,465,368,9,

76,89,7,463,365,7,

76,88,7,459,364,9,

76,88,7,457,362,8,

76,88,8,455,359,7,

75,87,8,452,359,7,

75,86,7,450,357,7,

74,86,7,448,355,8,

74,85,7,446,353,9,

73,86,7,443,352,7,

73,85,7,440,350,9,

73,84,7,439,348,8,

73,85,7,436,347,9,

72,83,7,434,345,7,

71,84,7,432,344,7,

82,92,7,430,342,7,

81,91,7,428,340,7,

81,90,7,425,339,7,

80,91,7,423,337,8,

81,90,7,420,335,7,

79,89,7,419,333,7,

79,88,7,416,332,7,

79,88,7,415,331,7,

78,88,7,413,329,7,

79,88,7,411,327,7,

78,87,7,408,326,7,

78,87,7,406,324,7,

78,87,7,404,323,7,

77,85,7,402,321,7,

76,85,7,400,320,7,

76,85,7,398,319,7,

76,85,7,396,318,7,

75,83,7,395,316,7,

76,83,7,391,315,7,

75,83,7,391,312,7,

74,83,7,389,311,7,

74,83,7,387,310,7,

75,83,7,385,309,7,

78,81,7,383,307,7,

77,82,7,381,305,7,

77,81,7,379,304,7,

77,81,7,377,304,7,

76,80,7,376,302,7,

76,80,7,374,300,7,

76,79,7,372,299,7,

75,79,7,371,298,7,

75,79,7,369,295,7,

74,79,7,367,295,7,

109,78,7,365,294,7,

187,78,7,364,293,7,

187,82,7,361,291,7,

185,106,7,359,289,7,

184,105,7,357,289,7,

182,103,7,355,287,7,

181,103,7,355,286,7,

180,103,7,353,284,7,

179,102,7,350,283,7,

178,102,7,348,281,7,

177,101,7,348,280,7,

176,101,6,345,279,7,

175,99,7,344,278,7,

174,99,7,342,275,7,

174,99,7,341,275,7,

172,99,7,339,274,7,

171,98,6,338,272,7,

170,97,7,335,271,7,

170,97,6,334,271,7,

169,96,7,332,269,7,

167,96,6,332,268,7,

167,95,6,329,267,6,

166,95,7,327,265,7,

165,94,6,326,263,6,

165,94,7,325,263,6,

163,93,6,323,262,6,

163,93,7,322,260,7,

162,93,6,321,260,7,

237,162,7,319,259,7,

312,223,6,317,257,7,

308,220,6,316,255,6,

306,219,6,314,255,6,

304,217,7,313,254,6,

302,216,6,312,252,6,

300,215,6,311,252,6,

298,214,6,308,249,6,

317,223,7,308,249,7,

408,277,7,307,248,7,

479,339,7,304,277,7,

475,337,7,306,421,6,

472,334,7,304,460,6,

467,331,6,303,455,6,

463,329,6,301,454,6,

460,327,7,300,450,6,

457,325,6,299,447,6,

454,323,6,297,444,6,

451,322,7,295,440,6,

448,319,6,295,438,6,

445,317,6,293,434,6,

441,315,6,291,431,6,

439,314,6,290,429,7,

435,312,6,289,425,6,

432,310,6,287,423,6,

430,307,6,286,420,6,

427,306,6,285,418,7,

425,324,5,284,459,6,

422,321,6,283,455,6,

425,319,6,281,452,6,

423,318,5,280,448,6,

419,316,6,279,446,6,

418,313,6,278,443,6,

415,312,6,277,440,6,

412,311,7,275,436,6,

411,308,5,274,434,7,

408,306,7,273,431,7,

406,305,6,271,428,6,

437,303,7,271,425,6,

531,371,6,269,423,6,

527,368,6,338,420,7,

523,366,7,435,509,6,

518,363,6,440,504,6,

514,361,6,436,507,6,

509,358,6,432,527,6,

505,355,7,430,524,6,

502,353,6,427,519,6,

499,352,6,423,515,6,

496,350,6,504,512,6,

560,348,7,556,508,6,

719,349,6,551,504,6,

711,348,6,544,500,6,

704,345,6,540,497,7,

696,343,7,537,492,6,

690,341,7,610,489,7,

684,339,6,761,487,7,

678,337,6,751,483,6,

671,334,7,743,479,7,

665,332,7,737,476,6,

659,331,7,729,472,7,

654,329,7,722,470,7,

647,327,6,715,467,7,

643,326,7,710,579,7,

637,323,7,702,600,7,

632,322,7,696,595,7,

626,319,7,689,590,7,

623,318,7,684,585,7,

616,316,7,679,580,7,

611,315,7,741,575,7,

615,313,7,733,571,7,

611,311,6,728,567,7,

606,309,7,719,562,7,

601,307,7,713,559,7,

596,306,7,705,554,7,

591,304,7,700,550,7,

588,303,7,694,545,7,

583,301,7,687,542,7,

579,299,7,681,537,7,

574,298,7,676,534,7,

569,295,7,670,530,7,

566,295,7,664,526,7,

562,293,7,657,523,6,

558,291,7,654,519,7,

553,290,7,647,515,7,

550,289,7,643,511,6,

545,287,7,636,507,7,

542,285,7,632,504,7,

538,284,7,627,500,7,

534,283,6,622,496,7,

530,281,6,617,494,7,

527,280,7,611,489,7,

524,278,7,608,487,7,

519,276,7,604,483,7,

518,276,7,599,481,7,

513,275,7,594,478,7,

510,273,7,591,475,7,

506,271,7,585,472,7,

503,270,7,581,468,7,

499,269,7,577,466,7,

496,268,7,574,463,7,

493,265,7,569,460,7,

489,265,7,565,457,7,

487,263,7,561,454,7,

483,262,7,558,451,7,

480,260,7,553,448,7,

477,259,7,549,446,7,

474,258,7,545,443,7,

472,257,7,542,440,7,

469,255,7,538,437,7,

466,254,7,535,435,7,

463,253,7,531,432,7,

460,252,7,527,429,7,

457,249,7,524,427,7,

454,249,7,519,423,7,

451,248,7,517,421,7,

449,247,7,513,419,7,

446,245,7,510,415,7,

444,243,7,507,414,7,

441,243,7,504,412,7,

438,241,7,499,409,7,

435,240,7,497,407,7,

433,240,9,493,404,7,

430,238,7,490,402,7,

428,237,7,487,399,7,

425,236,7,484,397,7,

423,235,7,481,395,7,

419,233,7,478,393,7,

418,231,8,475,391,7,

415,231,7,473,389,7,

413,230,8,470,386,7,

411,230,8,467,384,7,

408,228,8,463,382,7,

407,227,7,462,380,7,

404,226,7,459,377,7,

401,225,8,455,376,7,

399,224,9,452,374,7,

397,222,7,451,371,7,

395,221,8,448,369,7,

391,221,7,445,368,7,

390,220,7,442,365,7,

388,219,7,440,363,7,

386,217,9,437,361,7,

384,217,7,435,359,7,

382,216,7,432,358,7,

380,215,7,429,355,7,

377,214,9,428,354,7,

376,212,7,425,352,7,

373,211,7,423,350,7,

371,210,7,419,348,7,

370,209,7,418,346,7,

368,209,7,415,344,7,

366,207,7,413,343,7,

363,206,7,410,340,7,

361,206,7,409,338,7,

359,204,7,406,337,7,

357,203,7,403,335,7,

355,203,7,401,334,7,

353,201,7,399,331,7,

352,199,7,397,329,7,

350,199,7,395,327,7,

348,199,7,391,327,7,

346,198,7,391,325,7,

345,197,7,389,323,7,

343,195,7,386,321,7,

341,195,7,384,319,7,

339,194,7,383,318,7,

337,193,7,380,316,7,

335,192,7,377,315,7,

333,191,7,376,313,7,

332,191,7,374,312,7,

330,189,7,373,311,7,

329,189,7,371,309,7,

327,188,7,368,307,7,

326,187,7,366,305,7,

324,186,7,365,304,7,

323,185,7,362,302,7,

320,184,7,361,302,7,

319,184,7,359,300,7,

317,183,7,357,298,7,

316,182,7,355,295,7,

314,182,7,353,295,7,

312,180,7,352,294,6,

311,179,7,349,292,7,

309,179,7,348,291,7,

307,178,7,345,289,7,

307,177,6,344,287,6,

305,176,7,343,286,7,

304,176,6,341,285,7,

302,174,7,339,284,7,

300,174,7,337,283,7,

300,173,7,335,281,7,

297,172,7,334,280,6,

295,172,7,332,279,7,

295,170,7,331,277,7,

294,170,6,329,276,6,

292,169,6,327,275,6,

291,167,6,326,274,6,

289,167,6,323,271,6,

287,167,6,323,271,6,

286,167,6,321,270,6,

285,165,6,319,268,7,

284,164,7,318,267,7,

283,164,6,316,265,6,

281,163,7,315,263,6,

280,162,6,313,263,7,

279,161,6,312,262,7,

277,161,7,310,260,6,

275,159,6,309,259,7,

274,159,6,307,258,6,

272,159,6,306,257,6,

271,158,6,304,255,6,

270,157,5,302,254,6,

268,156,5,301,253,6,

268,156,6,300,252,5,

266,154,6,298,251,6,

265,154,6,297,249,6,

263,153,6,295,248,5,

262,153,6,294,248,6,

261,153,6,293,246,6,

260,152,6,291,245,6,

259,151,5,290,243,5,

258,151,5,288,242,7,

257,149,5,287,241,6,

255,149,6,286,240,6,

254,147,5,285,239,5,

253,147,5,284,239,5,

252,147,6,282,237,6,

251,146,5,280,236,5,

249,145,6,280,235,5,

248,145,6,278,233,5,

247,145,5,277,233,5,

246,144,5,275,231,6,

245,143,5,275,231,6,

243,142,6,273,230,6,

243,141,6,271,229,6,

241,141,6,271,228,6,

240,141,5,270,227,6,

239,140,6,268,225,5,

238,140,5,267,224,6,

237,139,5,266,224,6,

236,139,5,265,223,5,

236,137,5,263,222,6,

233,137,5,262,222,5,

233,135,6,261,219,5,

231,135,5,260,219,5,

231,135,5,259,217,5,

230,135,6,258,217,5,

229,134,5,257,216,5,

228,134,6,255,215,5,

227,132,6,254,214,5,

225,132,5,253,213,5,

224,132,5,252,212,5,

224,130,6,251,211,5,

224,130,5,249,210,5,

222,129,5,248,209,5,

220,129,6,248,207,5,

220,128,5,246,207,6,

219,127,5,246,207,5,

218,127,5,275,206,6,

216,127,6,274,205,5,

216,126,6,330,204,6,

216,126,6,341,203,5,

214,126,5,338,202,5,

213,124,6,335,201,6,

212,124,6,334,199,5,

211,124,6,332,199,5,

210,123,5,330,199,5,

209,123,5,327,198,5,

207,121,6,326,198,6,

207,121,5,324,195,5,

206,121,6,322,195,6,

205,120,5,319,195,5,

205,120,5,317,193,5,

204,120,6,316,193,5,

203,119,6,314,192,5,

202,119,5,312,192,5,

201,118,5,311,190,5,

199,117,5,309,189,4,

199,116,5,307,188,5,

199,116,5,305,188,5,

197,115,5,304,187,5,

197,115,5,302,187,5,

196,114,5,300,185,5,

195,115,5,299,185,5,

194,113,5,297,184,5,

193,113,6,295,184,5,

193,112,5,294,183,5,

192,112,5,292,181,5,

191,112,5,291,181,5,

191,112,5,289,179,5,

190,111,5,287,179,5,

189,110,6,287,178,5,

188,111,5,284,178,5,

187,110,5,283,177,5,

187,109,5,281,176,5,

185,109,6,281,176,5,

184,108,5,279,176,5,

184,108,5,277,174,5,

184,108,5,276,174,5,

183,107,5,274,172,5,

182,107,4,273,172,4,

180,105,5,271,171,5,

179,105,5,270,171,5,

179,103,4,269,170,4,

178,103,5,267,169,4,

177,103,5,265,167,5,

176,103,5,265,167,5,

176,103,5,263,167,5,

175,102,4,262,166,5,

175,102,5,261,166,5,

174,102,5,259,165,5,

173,101,5,258,163,5,

172,101,6,256,164,5,

172,100,4,255,163,5,

171,99,5,254,162,5,

170,100,5,253,161,4,

170,99,5,252,161,5,

167,99,5,251,160,5,

167,98,4,249,159,4,

167,98,4,248,159,4,

167,97,5,248,158,5,

166,97,5,246,158,4,

165,96,4,245,157,4,

164,96,5,243,157,5,

164,96,6,243,156,5,

163,95,5,241,155,5,

163,95,5,241,155,5,

162,95,4,240,154,4,

161,94,5,238,153,4,

161,94,5,238,153,5,

159,93,5,236,152,4,

159,93,6,236,152,5,

158,92,5,235,151,5,

158,92,4,233,150,4,

157,91,5,231,150,4,

157,91,4,231,149,4,

156,91,4,231,148,4,

155,90,5,230,148,4,

155,90,4,229,147,5,

154,90,4,227,147,5,

154,89,4,227,147,5,

154,89,5,226,146,5,

152,89,4,225,145,4,

152,88,4,224,144,5,

152,88,4,223,143,5,

150,88,4,223,143,5,

150,88,4,222,143,5,

150,87,4,221,143,5,

149,87,4,220,142,4,

148,86,4,219,141,4,

147,87,4,218,140,4,

147,86,4,217,141,4,

146,85,4,216,139,5,

145,85,4,216,139,4,

145,85,4,215,139,4,

144,84,4,214,137,5,

143,83,4,213,137,4,

143,83,4,211,136,5,

143,83,4,211,135,4,

143,82,4,210,135,4,

141,82,4,209,135,5,

141,82,4,208,134,4,

141,81,4,207,134,4,

141,81,4,207,134,4,

140,80,5,206,133,5,

140,79,4,205,133,4,

139,80,4,204,131,4,

137,79,4,203,132,4,

137,79,5,203,131,4,

136,79,5,202,131,4,

135,79,5,201,129,5,

135,78,5,199,129,5,

135,78,4,199,129,5,

134,78,5,199,129,5,

134,77,4,199,127,5,

134,77,5,197,127,4,

133,77,4,196,127,5,

132,76,5,195,127,4,

131,76,4,195,125,3,

131,76,4,194,125,4,

131,76,4,193,125,4,

130,75,4,193,124,3,

130,76,3,192,124,5,

130,74,5,192,124,3,

129,74,4,190,123,4,

129,74,5,190,123,4,

127,74,4,189,123,4,

127,73,4,188,121,4,

127,73,3,188,121,4,

127,73,4,187,121,4,

126,71,5,186,120,5,

125,71,4,185,119,5,

124,71,4,185,120,4,

124,71,4,184,119,4,

124,71,4,183,118,5,

123,71,4,183,118,4,

123,71,4,182,118,5,

122,70,4,181,116,4,

122,70,4,179,117,4,

121,70,4,179,116,3,

121,70,4,179,115,4,

120,69,4,178,115,3,

120,69,4,177,114,4,

120,68,4,176,114,4,

119,68,4,176,113,4,

119,68,4,176,113,3,

118,67,4,175,113,4,

118,67,4,174,112,4,

117,67,4,173,112,3,

116,67,3,173,112,5,

116,66,4,172,111,4,

115,67,4,171,110,4,

115,66,5,171,110,4,

115,66,5,169,110,4,

114,66,4,169,109,3,

114,65,4,167,109,4,

113,65,5,167,108,4,

113,64,4,167,108,4,

112,64,5,166,107,4,

112,64,4,167,108,3,

112,63,5,165,107,3,

112,63,3,165,106,3,

112,63,5,163,106,3,

110,62,4,163,106,4,

110,62,4,163,105,4,

110,62,4,162,105,4,

109,62,3,161,103,4,

109,62,4,161,103,4,

109,61,3,160,103,4,

108,61,4,159,103,5,

107,61,4,159,103,4,

107,60,4,158,102,4,

106,60,3,158,102,4,

106,60,4,157,102,5,

106,60,5,157,101,5,

105,60,4,156,102,4,

105,59,3,155,100,4,

103,60,4,155,99,5,

103,59,4,154,99,3,

103,59,4,154,99,5,

103,58,4,153,98,4,

103,58,3,153,98,4,

103,58,4,152,98,4,

103,58,4,152,97,4,

102,57,4,152,97,4,

102,57,5,151,98,4,

101,57,5,150,97,4,

101,57,4,149,96,4,

100,57,4,149,96,4,

100,57,4,147,96,4,

99,56,4,148,96,4,

99,56,4,147,95,4,

99,56,5,147,94,4,

98,56,4,146,94,4,

97,56,3,145,93,5,

97,55,4,145,93,3,

97,55,4,144,93,3,

97,55,4,143,93,3,

96,55,4,143,92,4,

96,54,3,143,92,4,

96,54,3,143,92,3,

95,53,3,142,92,4,

96,53,4,142,91,4,

95,53,3,142,91,4,

94,53,4,141,91,4,

94,53,5,141,91,4,

94,52,3,140,90,4,

93,52,4,140,89,3,

93,51,3,140,89,4,

93,51,3,138,89,3,

92,52,4,138,88,3,

92,52,4,137,89,3,

91,51,4,137,89,3,

92,51,5,136,88,3,

91,51,3,135,88,4,

91,51,3,135,87,4,

90,51,4,135,87,4,

90,50,4,135,86,4,

90,50,3,134,86,3,

89,51,4,135,86,3,

89,50,3,133,85,4,

89,50,4,132,85,4,

88,49,3,132,85,3,

88,49,3,131,84,5,

88,49,4,131,84,3,

88,49,4,131,84,4,

88,48,4,130,83,3,

87,48,3,130,83,3,

87,48,4,130,83,3,

86,48,3,129,83,3,

85,48,3,129,82,3,

86,47,3,127,82,4,

85,47,4,127,82,3,

85,48,3,127,82,4,

85,47,3,127,81,4,

85,46,4,126,81,3,

83,46,3,126,81,4,

83,47,3,126,80,3,

83,47,4,126,80,4,

83,46,3,124,79,3,

83,46,3,125,79,3,

83,45,4,124,79,4,

83,45,5,124,79,4,

82,45,3,123,79,4,

81,45,3,123,79,4,

81,44,3,122,78,4,

81,45,3,121,78,3,

81,45,3,121,77,3,

80,44,3,121,78,4,

79,45,4,120,77,3,

80,44,3,120,77,4,

79,44,4,120,76,4,

79,43,4,120,76,4,

79,44,4,120,76,4,

79,43,3,119,76,3,

79,43,3,118,76,3,

78,43,4,118,76,4,

78,43,4,118,75,3,

78,43,3,117,75,4,

77,43,3,117,74,4,

77,43,3,117,74,4,

77,42,3,116,74,3,

76,42,4,115,73,4,

76,42,4,115,73,3,

76,42,3,115,74,3,

76,42,3,114,73,3,

76,41,3,113,71,4,

76,42,3,114,71,3,

75,41,3,113,71,3,

74,41,3,113,71,3,

74,39,4,112,71,4,

74,40,4,112,71,3,

74,40,3,111,71,3,

73,39,4,112,71,3,

73,39,3,111,71,4,

73,41,3,110,70,4,

73,39,3,111,71,3,

73,39,3,109,70,5,

71,39,4,110,92,3,

71,39,4,109,127,3,

71,39,3,109,125,4,

71,39,5,108,125,4,

71,39,3,108,124,3,

70,38,3,108,123,3,

70,38,4,108,122,3,

70,38,3,107,123,4,

70,38,3,106,121,3,

70,38,4,106,121,5,

70,38,3,105,120,4,

69,38,4,106,120,3,

69,38,3,105,120,3,

69,46,3,105,119,4,

69,46,4,103,118,3,

68,45,3,103,118,4,

68,45,3,103,117,3,

67,45,3,103,116,4,

67,45,3,103,116,3,

67,44,3,102,115,4,

67,45,4,102,115,4,

67,44,5,102,114,3,

66,44,4,102,114,3,

66,44,3,101,113,4,

66,120,4,101,113,4,

133,216,4,100,112,3,

137,213,4,100,111,4,

135,211,3,99,111,3,

135,211,4,99,110,3,

134,207,3,99,110,3,

133,207,3,98,110,4,

132,206,4,98,109,3,

132,205,4,98,108,3,

131,204,3,97,108,4,

130,203,4,97,108,4,

130,201,4,96,106,3,

129,199,3,96,106,3,

128,199,3,96,106,4,

127,198,4,96,105,4,

127,197,3,95,103,3,

126,196,3,94,103,3,

125,195,3,95,103,3,

125,195,3,94,103,3,

124,193,4,94,102,3,

124,193,4,93,102,3,

123,192,3,93,102,3,

122,191,4,93,102,3,

121,189,4,92,101,4,

121,188,3,92,100,3,

121,188,4,91,99,3,

120,187,4,91,99,3,

120,185,3,91,99,3,

119,184,4,91,98,3,

119,184,3,90,98,4,

118,184,4,90,97,3,

118,182,4,89,97,3,

116,182,4,89,97,3,

116,180,4,89,96,4,

115,179,4,88,95,4,

115,179,3,88,96,4,

115,178,4,88,95,3,

114,177,4,88,94,3,

113,176,3,88,94,3,

113,176,4,88,93,4,

113,174,4,87,93,3,

112,174,4,86,93,4,

111,173,3,86,93,4,

111,172,3,86,92,5,

110,172,5,86,91,4,

110,171,3,85,91,5,

109,170,4,85,91,4,

109,169,3,84,90,4,

109,167,4,84,91,4,

108,167,4,84,89,4,

108,167,4,83,89,4,

107,166,4,83,88,3,

107,166,4,83,88,3,

107,164,3,83,88,4,

105,164,5,82,88,3,

105,163,4,82,87,3,

103,163,4,82,87,4,

103,161,4,82,86,3,

103,161,4,82,86,4,

103,159,4,82,85,4,

103,159,3,82,85,3,

103,158,3,81,84,5,

102,159,4,80,83,3,

102,157,3,80,83,4,

101,156,4,79,84,5,

100,156,5,79,83,4,

100,155,3,79,83,4,

99,154,4,79,83,3,

99,153,5,79,82,3,

99,153,4,78,83,4,

98,153,4,78,81,4,

98,152,4,78,80,3,

97,151,3,77,80,4,

97,150,4,77,81,3,

96,150,4,77,79,4,

96,150,4,77,79,4,

95,148,4,77,79,3,

95,148,3,76,79,3,

95,147,3,76,79,3,

94,147,3,76,78,3,

94,146,3,76,78,3,

93,145,4,75,78,4,

93,144,4,75,78,4,

93,143,4,75,77,3,

92,143,3,74,77,4,

92,143,4,74,76,3,

92,143,3,74,76,3,

91,141,3,74,76,4,

91,142,4,73,76,3,

91,141,4,73,76,3,

90,140,3,73,75,4,

90,139,4,73,74,4,

89,139,4,73,75,4,

89,138,4,71,73,4,

88,137,4,71,73,3,

89,137,3,71,74,4,

88,135,3,71,73,4,

88,135,3,71,72,4,

87,135,4,71,71,3,

87,135,4,71,81,4,

87,135,3,71,81,4,

87,134,4,70,79,4,

86,133,4,70,80,4,

85,133,4,70,79,3,

86,132,4,70,79,3,

84,131,5,69,79,4,

108,131,4,69,125,4,

179,130,3,69,237,3,

190,129,3,69,246,3,

192,129,3,68,268,3,

190,129,4,68,263,3,

189,127,3,68,263,3,

188,127,4,68,262,4,

187,127,4,67,259,4,

186,126,4,67,259,3,

185,125,4,67,257,3,

184,125,4,67,255,4,

184,124,4,66,254,4,

204,124,3,67,253,4,

215,124,3,65,251,3,

215,123,3,66,249,4,

212,123,4,65,249,3,

211,122,4,65,247,4,

210,121,4,65,246,4,

209,121,4,64,245,4,

207,120,3,63,243,4,

207,120,3,64,242,4,

205,119,4,64,240,3,

204,118,3,63,239,3,

205,119,4,63,238,3,

231,117,4,63,237,4,

230,117,4,63,236,3,

228,116,4,63,234,4,

227,115,3,62,233,3,

225,115,3,62,231,3,

224,115,4,62,257,3,

224,114,4,61,263,3,

222,114,3,62,262,5,

220,113,4,61,260,3,

220,113,4,61,262,3,

218,113,3,61,263,3,

217,112,4,60,261,5,

216,111,3,60,259,4,

215,110,3,60,258,4,

214,111,3,60,255,3,

213,110,3,60,255,3,

211,109,3,60,254,4,

211,109,4,59,252,3,

210,108,4,59,251,4,

207,108,4,59,249,4,

207,108,3,59,248,3,

206,106,3,59,247,3,

205,107,3,58,246,3,

204,105,4,57,244,3,

204,105,3,57,242,4,

203,105,4,57,241,4,

201,103,3,57,240,4,

199,103,3,56,239,3,

199,103,4,56,238,4,

198,103,5,57,237,4,

197,103,4,57,236,4,

197,103,5,56,235,4,

195,102,3,56,234,4,

195,102,3,56,231,4,

194,101,3,56,231,4,

193,101,4,56,230,4,

192,101,4,56,229,4,

190,101,4,56,227,4,

190,99,4,55,227,4,

190,99,5,54,225,3,

188,98,4,54,224,4,

187,99,4,54,224,3,

187,98,3,54,223,4,

185,97,4,55,221,4,

185,97,4,53,220,5,

184,96,4,54,219,4,

183,96,4,54,218,4,

183,96,4,53,217,4,

181,95,4,52,216,5,

180,96,4,53,216,4,

179,94,5,52,214,4,

179,95,4,52,213,5,

178,93,3,52,211,4,

178,93,4,51,211,5,

176,93,4,51,210,3,

175,92,3,51,209,4,

175,92,4,51,209,5,

174,92,5,51,207,4,

173,92,4,51,206,4,

172,91,4,51,205,3,

172,91,3,50,204,4,

171,91,4,51,204,4,

170,90,4,50,203,4,

169,90,4,50,202,4,

169,89,3,50,201,3,

167,88,4,50,199,4,

167,88,4,49,199,4,

167,88,4,50,198,4,

166,88,4,49,198,5,

165,88,5,50,196,4,

164,87,4,48,195,3,

164,87,4,48,195,4,

163,86,3,48,194,4,

162,85,5,48,193,4,

161,86,4,48,192,4,

161,85,4,48,191,3,

159,85,3,48,190,4,

159,84,4,47,189,4,

159,83,4,48,189,4,

158,83,4,48,188,4,

158,83,4,47,187,4,

216,83,4,47,186,4,

249,83,5,46,186,4,

248,83,4,46,184,3,

247,81,3,47,184,3,

246,81,3,46,184,4,

243,81,4,46,182,4,

242,80,4,46,181,4,

241,81,3,46,180,4,

240,79,4,46,180,5,

238,79,4,45,179,3,

238,80,4,45,178,4,

236,79,4,45,177,5,

234,79,5,45,176,4,

233,78,3,44,176,5,

231,78,3,45,175,4,

231,78,4,44,174,4,

230,77,4,44,174,3,

229,77,4,44,173,3,

227,76,4,44,172,3,

227,76,4,44,171,4,

225,76,4,43,170,3,

224,75,4,44,170,5,

224,75,4,43,169,4,

222,75,4,42,167,4,

221,75,4,43,167,5,

220,74,4,43,167,4,

219,74,4,42,166,4,

218,73,3,43,166,4,

216,73,3,41,165,3,

216,72,3,42,163,4,

215,73,3,42,163,3,

214,71,4,41,163,4,

213,71,5,41,163,4,

211,71,3,41,161,4,

210,71,3,41,161,3,

210,71,5,41,159,4,

207,71,4,41,159,4,

207,71,5,40,158,4,

206,70,3,41,158,4,

206,70,4,41,157,3,

205,69,3,39,157,3,

203,69,3,39,156,4,

203,70,4,39,155,3,

202,69,4,39,155,4,

199,68,5,39,154,4,

199,68,4,39,153,3,

199,67,3,39,153,4,

198,68,4,39,152,4,

197,67,4,39,152,4,

196,67,3,39,151,3,

195,66,3,39,151,4,

194,67,4,39,149,3,

193,67,4,39,150,3,

192,66,3,39,147,4,

192,65,5,38,148,4,

191,65,4,38,147,4,

190,66,4,38,147,3,

189,65,3,38,146,3,

188,65,4,37,145,5,

188,64,3,38,144,4,

187,64,4,37,144,3,

186,63,4,38,143,4,

185,63,5,37,143,4,

184,63,4,37,142,5,

184,63,4,37,142,4,

183,63,4,36,141,4,

181,62,4,36,140,4,

181,62,4,36,140,4,

179,62,4,36,140,3,

179,62,3,36,139,4,

178,61,4,36,139,5,

178,61,3,35,138,4,

177,61,4,35,137,3,

176,61,3,36,135,3,

176,60,3,35,135,4,

174,60,3,35,135,4,

174,60,5,35,135,4,

173,59,4,35,135,4,

172,59,4,35,134,3,

171,59,4,35,134,4,

171,59,3,34,133,4,

169,59,4,34,131,3,

169,58,3,34,131,5,

167,59,3,34,131,4,

167,58,4,34,130,5,

167,58,3,34,131,4,

166,57,5,33,129,3,

165,57,3,34,129,3,

164,57,3,34,127,3,

163,57,4,33,127,3,

163,56,3,33,127,4,

162,56,4,32,127,4,

162,56,4,33,127,4,

161,56,4,33,126,3,

159,56,4,33,125,5,

159,56,4,33,125,3,

159,55,3,32,125,3,

158,55,3,32,124,3,

157,55,4,32,123,4,

157,54,4,32,123,4,

156,54,3,31,123,3,

155,54,4,31,122,3,

155,53,4,31,121,4,

154,54,3,31,120,4,

154,52,4,31,120,3,

153,53,3,31,120,4,

152,52,3,31,119,4,

152,52,3,31,119,3,

151,52,3,31,118,4,

150,52,3,30,118,4,

149,51,3,30,118,3,

148,51,3,30,117,3,

148,51,3,30,116,4,

147,51,3,30,115,4,

147,50,3,30,115,3,

147,51,4,30,115,4,

146,51,4,30,114,3,

145,50,4,30,114,4,

144,50,4,31,113,3,

143,49,3,30,113,3,

143,49,3,30,112,4,

143,49,4,29,112,4,

142,49,3,29,112,4,

142,48,3,29,111,3,

141,48,3,29,111,3,

140,48,4,29,110,3,

140,48,4,29,110,3,

139,48,4,28,109,4,

138,48,4,29,110,3,

137,47,3,28,109,3,

138,47,3,28,108,4,

136,47,3,27,108,3,

135,47,3,28,108,4,

135,46,4,28,107,3,

135,46,3,28,107,3,

134,46,3,28,106,4,

134,46,3,28,105,4,

134,46,4,28,105,4,

132,45,4,28,104,3,

132,45,3,28,103,4,

131,45,4,27,103,4,

131,45,4,27,103,3,

130,45,3,27,103,3,

130,44,4,27,103,4,

129,44,3,27,103,3,

129,44,3,27,101,3,

128,44,3,26,102,3,

127,44,4,26,101,3,

127,44,3,26,101,3,

127,44,4,26,100,3,

126,43,4,26,99,4,

126,43,3,27,99,3,

125,43,3,26,99,4,

124,43,3,26,99,3,

124,42,3,26,98,4,

123,42,3,25,98,4,

124,42,4,26,98,5,

123,42,4,26,97,3,

123,42,3,25,97,3,

122,42,3,25,96,3,

121,42,3,25,96,4,

121,41,3,25,95,3,

120,41,3,25,96,4,

120,41,4,25,95,5,

120,41,3,25,95,3,

119,41,4,25,94,3,

119,41,3,25,93,4,

119,40,4,25,94,3,

117,39,3,25,94,4,

118,39,3,24,93,3,

116,39,4,24,92,4,

116,39,3,24,92,4,

115,39,3,24,92,3,

115,39,3,24,91,3,

115,39,3,24,91,3,

114,39,3,24,91,3,

114,39,4,24,91,3,

113,39,4,24,91,3,

112,39,3,24,90,4,

113,38,4,23,89,3,

112,38,4,23,89,3,

112,38,4,23,89,4,

111,38,3,23,88,4,

111,38,3,23,88,3,

110,37,4,23,88,5,

110,37,3,22,87,3,

110,37,3,22,87,3,

109,37,3,23,87,3,

109,37,3,22,86,4,

108,37,3,23,86,4,

108,37,4,22,85,3,

107,37,4,23,85,3,

107,37,3,22,86,4,

106,37,3,22,85,4,

106,36,3,22,84,4,

106,36,3,22,84,4,

105,35,3,22,83,3,

105,35,4,22,83,3,

103,35,3,22,83,4,

103,35,5,22,83,4,

103,35,5,22,82,4,

103,35,4,21,82,4,

103,35,4,21,81,3,

102,35,4,21,82,3,

102,35,4,21,81,3,

102,34,4,22,81,3,

101,35,3,20,81,3,

101,34,3,20,80,3,

100,34,4,22,81,3,

99,34,5,20,79,4,

99,34,3,20,79,3,

99,34,3,20,79,4,

99,33,4,21,79,3,

98,34,4,20,78,4,

98,33,3,20,79,4,

97,33,4,20,78,4,

98,33,4,20,77,3,

97,33,4,19,78,3,

98,33,3,20,77,3,

96,33,3,19,77,5,

97,32,3,20,77,4,

96,32,4,20,76,3,

96,31,4,20,76,3,

95,31,3,20,76,4,

95,31,3,19,76,4,

94,31,3,19,75,4,

94,31,3,19,75,3,

94,31,3,19,75,3,

93,31,4,19,75,4,

93,31,3,19,74,3,

93,31,3,19,74,3,

93,31,4,19,74,3,

92,31,3,19,74,3,

92,30,4,19,73,3,

92,30,4,19,73,3,

91,30,5,18,71,3,

91,31,3,19,71,3,

90,30,4,18,71,4,

90,30,4,18,71,3,

89,30,3,18,71,3,

89,30,3,18,71,4,

89,30,3,18,71,3,

89,30,4,18,71,3,

88,30,3,18,71,3,

88,29,3,18,70,4,

88,29,3,18,70,3,

88,29,3,18,70,3,

87,30,3,18,70,4,

87,29,5,18,70,3,

86,29,3,18,69,3,

86,29,3,17,69,4,

86,28,4,17,69,3,

85,28,4,17,68,4,

85,29,3,17,69,3,

84,29,3,17,67,4,

83,28,3,18,67,3,

83,28,3,17,67,3,

83,28,4,17,67,4,

83,28,4,17,67,4,

83,28,4,17,67,4,

83,29,4,18,67,3,

82,28,4,17,66,3,

82,28,3,17,65,3,

82,28,3,17,65,4,

81,28,3,17,65,3,

81,28,4,16,66,3,

81,27,4,16,65,4,

81,27,3,16,65,3,

80,27,3,16,65,4,

80,27,3,16,64,4,

80,27,3,16,64,3,

79,27,3,17,63,4,

79,26,3,16,64,3,

79,26,3,16,63,3,

79,26,3,16,63,3,

78,26,3,17,63,4,

79,25,4,16,63,3,

78,25,4,16,63,3,

77,26,3,16,62,3,

78,25,3,15,62,3,

77,25,3,15,62,4,

77,26,3,16,62,3,

76,26,3,15,62,4,

76,26,3,15,61,3,

76,25,3,16,61,4,

76,25,3,15,61,3,

76,25,3,15,61,3,

75,25,4,15,61,3,

75,25,4,15,60,4,

75,24,3,15,59,3,

74,25,4,15,60,3,

74,24,4,15,60,4,

74,25,4,15,60,3,

76,24,3,15,59,3,

76,25,3,15,59,3,

76,24,4,15,59,3,

75,24,3,15,59,4,

76,24,3,15,59,3,

75,24,3,15,59,4,

75,24,3,14,58,3,

74,24,3,15,57,4,

74,24,3,14,57,3,

73,24,4,14,57,3,

73,24,3,15,57,3,

73,23,3,14,57,4,

73,23,3,14,57,3,

73,24,3,15,56,4,

73,23,5,14,57,3,

71,23,4,14,56,3,

71,23,4,14,56,4,

71,23,3,13,56,3,

71,22,3,14,56,3,

71,22,4,14,56,3,

71,22,3,14,56,4,

71,22,4,13,55,3,

71,22,4,14,55,4,

70,22,3,14,55,3,

69,23,3,13,55,4,

70,21,4,14,54,3,

69,22,3,13,55,5,

70,22,3,14,55,4,

69,22,4,13,54,3,

69,21,3,14,54,3,

68,21,4,13,53,4,

67,22,4,13,54,4,

68,22,4,13,54,4,

68,21,3,13,52,4,

67,21,3,13,53,4,

67,21,3,13,52,4,

67,21,3,13,53,3,

67,21,3,13,52,4,

66,21,3,13,52,4,

66,21,4,13,51,3,

66,21,3,13,51,4,

66,21,3,13,51,3,

67,21,3,12,51,4,

66,21,3,13,51,4,

66,20,3,13,51,3,

66,19,3,13,51,3,

66,20,4,12,50,3,

65,20,4,13,50,3,

64,19,4,12,49,4,

65,19,3,13,50,3,

63,19,3,12,50,3,

63,20,3,12,49,4,

63,19,3,12,50,3,

63,19,4,12,49,3,

63,19,3,13,49,3,

63,19,4,12,48,3,

63,19,4,13,49,3,

63,19,3,12,49,3,

63,19,3,12,48,3,

63,19,4,12,49,3,

62,19,4,12,48,3,

62,19,3,12,48,3,

62,19,4,11,48,4,

61,19,3,12,48,4,

61,18,3,11,48,3,

73,18,3,11,48,3,

80,19,4,12,47,3,

79,18,4,11,47,3,

79,18,3,12,47,3,

79,18,4,11,47,3,

78,18,3,11,46,3,

78,18,3,12,46,3,

78,18,3,12,46,3,

77,19,3,11,46,4,

78,17,3,11,46,3,