
63,13,4,89,45,4,

65,13,3,90,46,3,

63,13,3,89,46,3,

63,12,3,89,45,4,

63,13,4,88,46,4,

63,12,3,88,44,4,

63,12,3,88,44,3,

63,12,4,87,44,3,

62,12,4,87,44,3,

62,12,4,87,44,4,

62,12,4,86,44,5,

61,12,3,86,44,4,

61,12,3,85,44,3,

61,12,3,85,44,4,

61,12,4,84,43,3,

60,12,4,84,43,3,

60,12,3,84,43,4,

60,12,3,83,42,4,

60,12,4,84,42,3,

59,11,4,83,42,3,

59,11,4,83,41,4,

60,12,4,82,43,3,

59,12,3,83,41,4,

58,12,4,82,42,4,

58,12,4,81,41,3,

57,12,3,81,41,3,

57,12,3,81,41,4,

58,12,3,81,41,4,

57,11,4,81,41,3,

57,12,3,80,39,3,

57,12,3,79,41,3,

57,11,4,79,39,3,

56,11,3,79,40,3,

56,11,3,79,39,3,

56,11,3,79,39,4,

55,11,3,78,39,3,

56,11,3,77,39,3,

55,11,4,78,39,4,

55,10,4,77,39,3,

55,12,3,77,39,3,

55,11,3,76,38,4,

54,11,3,76,38,4,

54,11,4,76,38,4,

54,11,3,76,38,3,

53,11,4,76,37,3,

53,11,3,75,38,3,

53,11,3,75,38,4,

53,11,3,75,37,4,

53,11,3,74,38,3,

52,11,3,74,38,3,

53,11,4,73,37,3,

55,11,3,73,37,4,

57,12,3,73,37,3,

58,12,3,73,36,4,

57,12,3,73,37,3,

57,11,4,71,36,3,

57,11,4,71,37,3,

57,11,4,71,37,3,

56,11,4,71,35,3,

56,11,4,71,36,3,

56,12,4,71,35,3,

56,12,3,71,35,4,

55,12,3,70,35,3,

55,11,5,70,35,3,

56,11,3,70,36,4,

55,11,3,70,36,3,

54,11,4,69,36,3,

54,11,3,69,35,3,

54,11,3,69,35,4,

54,11,3,68,35,3,

55,11,3,69,35,4,

54,10,3,68,35,3,

53,11,3,68,35,4,

53,10,3,67,35,4,

53,11,4,67,34,4,

52,10,4,67,34,4,

52,10,3,67,34,4,

53,11,4,66,34,4,

54,10,4,66,34,3,

53,11,4,66,34,3,

53,10,4,66,34,3,

52,11,3,65,33,4,

52,11,4,65,33,4,

52,11,3,65,33,3,

53,9,3,64,33,3,

52,11,4,63,33,4,

51,11,3,64,33,3,

51,9,3,63,33,3,

51,10,3,63,32,4,

51,9,3,63,33,3,

51,9,4,63,50,4,

51,10,4,63,56,4,

51,10,3,63,55,3,

51,10,3,62,54,4,

50,10,3,62,54,3,

50,9,3,62,54,4,

50,10,3,61,54,3,

50,9,3,61,54,4,

49,10,5,61,53,3,

49,9,3,61,53,4,

49,9,3,61,53,4,

49,9,4,61,52,3,

49,9,4,60,53,3,

49,9,3,60,80,3,

52,9,4,60,86,4,

59,9,4,60,84,3,

58,9,3,60,84,4,

58,10,3,59,83,3,

58,10,4,59,83,3,

58,9,3,60,83,5,

57,10,4,59,83,4,

57,10,3,59,82,3,

57,9,4,57,81,4,

57,9,3,57,81,4,

56,9,3,57,81,3,

56,9,4,57,81,4,

56,9,4,57,80,3,

56,10,3,57,79,3,

56,9,3,57,79,4,

56,9,3,56,79,4,

56,10,4,56,79,3,

56,9,3,56,79,3,

55,9,4,56,78,3,

55,9,3,56,78,4,

55,9,4,56,78,3,

55,9,4,55,77,3,

54,9,4,56,77,4,

53,9,4,56,76,3,

54,7,3,55,76,3,

53,9,4,54,76,3,

52,9,3,55,76,3,

52,8,3,54,75,3,

53,9,4,54,75,3,

51,9,3,54,74,3,

53,9,4,53,74,3,

51,9,3,53,73,3,

52,9,4,53,74,3,

51,9,4,52,73,4,

51,9,3,53,72,3,

51,9,3,52,73,3,

51,9,3,52,72,3,

51,7,3,51,71,3,

50,8,3,51,71,4,

50,8,4,51,71,3,

50,7,3,51,71,3,

51,9,3,51,71,3,

51,9,3,51,71,3,

50,9,4,51,71,3,

51,9,4,51,69,4,

50,9,3,50,70,3,

50,9,4,50,69,3,

50,9,4,50,70,3,

49,8,3,50,69,3,

50,9,3,49,68,3,

50,9,3,50,68,3,

49,8,3,49,67,3,

48,7,3,49,67,3,

49,7,3,49,67,3,

48,7,3,49,67,3,

48,9,3,49,67,3,

52,9,3,49,67,4,

52,7,3,48,66,3,

51,7,3,48,65,3,

51,9,3,48,65,3,

51,9,3,48,66,3,

51,7,3,47,66,4,

50,7,3,48,65,3,

50,7,3,48,65,3,

50,7,3,47,64,3,

49,7,3,47,63,3,

49,7,3,47,65,3,

50,7,5,47,63,3,

49,7,4,47,63,4,

50,7,3,46,63,3,

49,7,3,47,63,3,

49,9,4,47,62,3,

49,8,4,46,62,3,

49,8,3,45,62,3,

49,7,3,46,62,4,

49,7,3,45,137,3,

49,7,3,46,135,4,

48,7,3,45,135,3,

48,7,4,45,134,3,

48,8,3,45,134,3,

48,9,4,127,133,3,

48,7,4,193,133,4,

83,17,4,192,131,4,

90,17,3,190,131,4,

89,18,4,190,130,3,

88,18,3,188,129,3,

88,17,3,187,129,4,

88,18,3,186,128,3,

88,18,3,185,127,3,

86,17,3,184,127,4,

86,17,4,184,126,3,

86,17,4,182,126,3,

86,17,3,182,126,4,

85,17,3,180,124,3,

85,16,3,179,124,4,

84,17,3,179,123,3,

83,17,3,177,123,3,

83,17,3,177,122,3,

83,16,3,176,121,3,

82,16,3,176,121,3,

81,15,3,174,120,4,

81,16,4,173,120,4,

80,15,4,173,119,3,

80,15,3,172,119,3,

79,15,3,172,118,4,

79,16,3,170,117,4,

79,16,4,169,116,3,

79,15,3,169,117,3,

79,18,4,167,115,3,

78,44,3,167,115,3,

78,44,3,166,115,4,

77,44,3,165,114,3,

77,44,4,165,113,4,

77,43,3,164,113,4,

76,43,4,163,120,4,

77,43,4,163,131,3,

76,42,4,162,133,3,

78,42,3,162,131,4,

93,42,5,161,131,4,

92,43,3,161,131,3,

90,42,4,159,131,4,

90,43,4,159,129,3,

90,43,4,158,129,4,

89,42,4,157,127,4,

89,41,3,156,127,5,

89,41,3,156,126,4,

88,42,4,155,125,4,

88,41,4,155,126,4,

88,41,4,153,125,4,

120,41,5,153,125,4,

130,41,4,152,124,4,

129,39,4,152,123,4,

127,39,3,151,121,4,

127,39,4,151,122,5,

126,39,3,150,121,3,

125,39,4,149,120,4,

125,39,4,149,120,5,

125,39,4,147,120,4,

123,39,4,146,119,4,

123,39,4,147,118,3,

122,39,4,145,118,4,

135,39,4,145,117,4,

134,39,5,144,118,4,

133,39,4,143,124,4,

133,39,4,142,123,4,

132,38,3,142,165,3,

131,38,3,142,253,3,

130,38,4,141,252,3,

129,38,4,140,251,4,

129,37,3,140,248,4,

128,38,5,139,248,3,

127,37,4,138,246,4,

127,46,4,137,244,3,

127,54,4,137,243,4,

126,55,4,135,242,4,

126,54,3,135,240,4,

126,53,4,135,239,4,

125,53,3,134,237,5,

124,53,3,134,236,3,

124,52,4,134,235,5,

123,52,4,132,234,4,

122,51,3,132,233,3,

121,51,4,131,231,4,

121,51,4,131,231,4,

121,51,4,130,229,4,

120,51,3,130,227,3,

120,50,4,129,226,3,

119,50,4,129,225,3,

118,50,4,129,224,5,

118,50,4,127,223,4,

117,50,4,127,222,4,

116,49,4,126,220,4,

116,50,4,126,220,4,

115,49,4,125,219,5,

115,49,5,125,218,4,

115,49,4,124,217,3,

113,57,5,124,216,3,

113,57,4,123,215,5,

112,57,4,123,213,3,

112,56,4,122,212,4,

111,56,3,122,211,4,

112,56,4,121,210,4,

110,55,4,121,209,4,

110,55,4,120,209,4,

110,54,3,120,207,4,

109,54,4,120,207,5,

108,71,4,119,206,4,

108,71,4,119,205,3,

107,70,4,118,203,4,

106,70,5,117,201,5,

106,69,3,116,201,4,

105,69,4,117,199,3,

105,69,5,116,199,4,

104,68,3,115,198,4,

105,67,5,115,198,3,

103,67,4,114,196,4,

103,79,3,113,195,4,

103,90,4,113,195,3,

102,89,3,112,193,4,

102,89,4,113,193,4,

101,88,4,112,192,5,

100,88,4,112,192,3,

99,87,4,111,190,4,

99,87,4,110,190,4,

100,87,4,110,188,4,

99,86,3,110,187,5,

99,86,4,109,187,5,

98,85,5,109,227,4,

97,85,4,108,275,4,

97,87,4,108,273,4,

96,87,4,108,271,5,

96,86,5,107,269,5,

96,85,5,107,268,4,

95,85,4,106,266,4,

96,84,3,105,265,4,

94,84,4,105,263,4,

94,83,5,105,263,4,

94,83,4,103,261,5,

93,83,4,103,259,5,

93,82,4,103,258,4,

93,83,5,103,257,4,

92,82,4,103,255,4,

92,82,4,103,254,5,

92,81,5,102,253,4,

90,81,4,101,251,4,

91,79,5,101,250,5,

90,80,4,100,249,4,

90,79,4,100,248,4,

89,79,5,99,247,5,

89,79,4,99,245,5,

88,78,4,99,245,4,

88,94,5,99,243,4,

88,112,4,98,242,4,

88,112,5,98,241,4,

87,111,5,97,240,5,

86,110,4,97,239,4,

86,110,5,97,237,5,

86,109,4,96,236,5,

85,108,4,96,235,5,

85,107,4,95,234,4,

85,107,5,95,231,5,

84,107,4,94,231,4,

83,105,4,94,231,4,

83,105,5,95,230,5,

83,105,5,93,228,4,

83,104,5,93,263,4,

82,103,4,92,261,5,

81,103,5,92,259,4,

81,103,4,92,259,4,

81,103,5,91,257,4,

80,102,4,91,255,5,

80,102,4,91,254,5,

80,101,5,91,253,5,

80,101,5,89,295,4,

79,100,4,90,293,5,

79,103,5,89,323,6,

79,107,4,89,319,5,

79,105,5,88,319,5,

78,104,4,88,317,5,

78,103,5,88,315,4,

77,103,5,88,313,4,

76,103,4,87,312,5,

76,102,5,87,309,4,

77,102,4,86,307,4,

76,102,5,86,306,4,

76,101,4,86,304,5,

75,101,5,85,303,5,

75,206,5,86,302,5,

74,223,5,84,300,5,

75,220,4,84,298,4,

74,220,4,84,322,4,

73,218,5,83,319,5,

74,217,5,83,318,5,

73,216,5,83,316,5,

73,214,5,82,313,3,

71,213,4,82,312,4,

71,212,4,82,310,4,

71,211,5,82,308,4,

71,210,4,81,307,5,

71,209,5,81,305,5,

71,207,5,80,304,5,

71,207,4,80,303,5,

70,206,5,79,301,4,

70,205,5,79,299,4,

70,204,5,79,298,4,

69,203,5,79,295,4,

69,201,4,79,294,4,

69,199,5,78,293,4,

68,199,4,78,291,4,

68,199,4,78,289,5,

67,198,4,78,288,5,

67,197,5,77,287,5,

67,195,4,77,286,5,

66,194,5,77,284,5,

66,193,5,76,283,4,

66,193,5,76,281,5,

66,192,4,76,280,4,

65,191,5,76,278,5,

65,190,4,75,277,4,

65,189,4,75,275,5,

64,189,4,74,275,5,

63,187,4,74,273,5,

63,186,4,74,271,5,

63,185,4,73,270,5,

64,185,5,73,321,4,

63,184,5,73,334,5,

63,183,4,71,331,4,

63,182,5,71,329,4,

62,182,4,71,327,4,

62,180,4,71,326,5,

62,179,5,71,323,5,

61,179,5,71,321,4,

61,178,4,71,319,5,

61,177,4,71,318,4,

61,183,5,71,317,5,

60,185,5,71,315,5,

60,184,4,71,313,5,

60,184,5,71,312,5,

60,182,4,70,309,4,

60,181,5,70,308,5,

59,180,4,70,306,5,

59,179,4,69,304,5,

59,179,5,70,303,4,

59,178,5,69,302,5,

59,176,5,68,300,4,

59,176,5,69,298,4,

58,175,5,68,297,4,

58,174,4,68,295,4,

57,174,5,67,294,5,

57,174,5,67,293,4,

57,172,5,67,291,4,

56,171,4,67,290,4,

56,171,5,66,287,4,

56,170,5,66,287,4,

56,169,5,66,285,5,

56,169,5,157,284,5,

55,167,4,171,282,5,

55,167,4,170,281,5,

55,166,5,194,280,6,

55,166,4,247,278,5,

55,164,5,244,277,4,

54,163,5,243,275,5,

53,163,6,247,274,4,

53,162,5,274,273,4,

53,161,4,301,271,6,

53,161,5,375,270,5,

53,159,5,475,268,5,

52,159,5,483,267,6,

53,158,6,480,265,5,

52,157,5,476,265,5,

51,156,5,473,263,5,

52,156,6,469,262,5,

51,155,5,466,261,5,

51,154,5,463,259,5,

50,154,5,460,258,5,

50,153,5,457,255,5,

50,152,5,454,255,6,

49,152,5,451,254,5,

50,150,5,448,253,6,

49,151,5,445,252,5,

49,149,6,443,250,5,

49,154,5,440,249,5,

49,153,6,437,248,5,

49,152,5,435,246,5,

48,151,5,431,245,5,

49,150,5,429,245,5,

48,149,5,427,243,5,

48,149,6,423,241,5,

47,149,5,422,240,5,

47,147,5,418,240,5,

47,146,6,416,238,5,

47,146,6,414,238,4,

46,145,5,412,236,5,

46,145,5,409,236,5,

46,143,5,407,233,5,

46,143,5,404,231,5,

45,143,6,402,231,4,

45,142,5,399,230,5,

45,142,5,398,230,5,

45,141,5,396,229,5,

45,141,5,393,227,5,

44,139,4,391,227,4,

44,139,5,390,225,4,

44,137,5,387,225,5,

44,138,5,385,224,5,

44,137,5,383,222,5,

44,135,5,381,222,5,

44,135,5,379,220,6,

44,135,5,376,220,5,

43,135,6,374,218,5,

43,135,5,372,217,5,

43,133,5,370,216,4,

42,134,5,368,218,6,

42,132,5,367,227,5,

42,131,5,365,226,5,

42,131,5,363,225,5,

41,131,5,359,224,5,

42,130,5,359,222,5,

42,129,5,357,221,5,

41,128,5,355,220,5,

41,128,5,353,219,5,

39,127,6,352,218,5,

39,127,5,349,216,4,

41,126,5,348,216,5,

39,125,5,347,215,5,

39,126,5,344,213,5,

39,125,5,343,212,4,

39,124,5,341,211,5,

39,124,5,339,211,5,

39,123,4,337,210,5,

39,123,6,335,209,5,

39,123,6,334,207,4,

39,121,5,332,207,5,

39,121,5,331,206,5,

38,120,6,329,205,5,

38,120,6,327,204,5,

38,120,5,326,203,5,

38,119,5,324,202,5,

37,118,5,323,201,6,

38,117,5,321,199,5,

38,117,5,319,199,6,

37,116,5,318,199,4,

36,115,5,317,198,5,

37,115,6,315,197,5,

36,115,5,313,195,5,

36,114,5,312,195,5,

36,114,5,310,194,5,

37,114,5,309,194,6,

36,113,5,307,192,5,

36,113,5,306,192,6,

35,112,5,304,191,5,

35,112,5,303,190,5,

35,111,6,301,189,6,

35,110,5,300,188,5,

35,110,5,299,188,5,

34,109,5,297,187,5,

35,109,5,295,185,6,

34,109,5,295,185,5,

34,108,4,294,184,5,

34,108,5,291,184,5,

34,107,5,290,223,5,

33,107,5,289,271,5,

34,107,6,287,268,5,

34,105,4,286,267,5,

33,105,5,285,265,5,

33,105,5,284,263,5,

33,103,5,282,263,6,

32,103,5,281,261,5,

33,103,5,280,259,5,

33,103,6,279,258,5,

32,103,6,277,255,5,

31,102,5,277,255,5,

31,102,5,275,254,6,

31,101,5,274,253,5,

32,101,6,271,251,5,

31,101,5,271,249,5,

31,99,4,270,249,5,

31,99,5,268,247,5,

31,99,5,268,246,6,

31,99,5,266,245,5,

30,98,5,266,243,6,

31,98,5,263,242,5,

30,97,5,263,241,6,

30,97,6,262,240,6,

31,96,5,260,239,5,

30,96,5,259,259,6,

30,96,5,259,258,6,

30,95,5,258,255,6,

29,95,5,257,255,6,

30,94,5,255,254,5,

29,95,5,254,318,5,

29,94,6,254,316,5,

29,94,5,252,313,5,

29,94,5,251,312,5,

30,92,5,250,309,5,

28,92,5,249,308,5,

28,92,5,248,307,5,

58,92,6,247,304,5,

73,91,5,245,303,6,

71,90,6,245,302,5,

71,90,4,243,300,5,

71,89,5,243,358,5,

71,89,5,243,441,6,

70,90,5,241,553,5,

69,88,5,240,628,5,

69,88,5,238,624,6,

68,88,5,237,617,5,

70,90,5,237,612,5,

81,130,5,236,606,5,

81,129,5,234,602,5,

80,129,5,233,597,5,

79,128,5,231,593,5,

79,127,5,231,588,5,

99,127,6,231,583,5,

209,126,6,230,580,6,

236,152,5,228,574,5,

233,151,5,227,569,5,

231,150,5,226,564,5,

231,148,5,226,562,5,

229,147,5,225,557,5,

227,146,5,224,551,5,

226,146,4,223,547,5,

225,145,5,221,545,5,

223,145,5,220,541,5,

222,143,5,220,536,5,

222,143,5,219,533,5,

299,185,5,217,529,5,

310,211,5,217,525,4,

307,210,4,216,521,5,

305,208,5,215,518,5,

303,207,5,214,514,5,

302,206,5,213,510,5,

300,205,5,211,507,5,

298,204,5,211,504,5,

295,203,5,223,499,5,

294,201,5,222,497,5,

293,199,4,255,493,5,

291,199,5,263,489,5,

289,265,5,260,487,5,

287,263,5,259,483,5,

286,260,5,257,480,5,

284,263,5,255,478,5,

319,347,5,254,473,5,

449,343,6,258,472,6,

589,353,5,393,468,5,

663,350,5,499,465,5,

655,348,4,551,462,5,

647,346,5,546,459,5,

641,344,5,541,455,5,

636,341,5,537,454,6,

630,338,5,532,450,4,

624,337,5,528,448,5,

620,335,5,524,446,5,

614,334,6,521,444,6,

609,331,5,518,440,6,

605,329,5,513,439,5,

600,327,5,591,436,5,

682,326,6,625,433,6,

799,323,6,739,430,5,

790,322,6,871,428,6,

781,319,7,859,457,5,

773,318,6,847,633,6,

765,316,6,839,651,5,

757,314,6,830,644,6,

750,312,6,821,639,6,

787,349,6,812,633,6,

899,397,7,804,627,7,

910,393,7,796,621,7,

915,391,6,788,617,6,

918,388,6,780,697,6,

920,385,7,774,831,6,

921,383,7,765,822,6,

923,380,6,758,814,6,

922,377,7,750,804,6,

920,376,7,743,795,7,

901,372,7,737,786,6,

885,371,7,729,780,6,

876,368,6,723,771,6,

866,366,6,718,763,6,

857,364,7,711,755,7,

847,362,7,704,750,6,

838,359,6,698,742,7,

829,358,7,695,736,7,

822,355,7,777,728,7,

814,355,7,817,722,7,

806,352,7,807,716,7,

798,350,7,801,708,7,

789,348,7,792,702,7,

782,346,7,783,697,7,

775,344,7,775,690,7,

768,341,7,768,684,9,

760,339,7,761,678,7,

753,338,7,753,671,7,

747,336,7,745,668,9,

740,334,7,738,661,9,

733,332,7,733,655,8,

726,330,9,726,650,8,

719,329,8,719,646,9,

713,327,9,711,639,7,

707,324,8,707,635,9,

701,323,9,700,629,9,

695,321,10,695,624,9,

689,319,9,688,620,9,

683,318,9,681,615,9,

678,316,9,677,610,9,

671,315,9,671,604,10,

667,312,9,665,600,10,

660,311,10,659,595,10,

654,309,10,654,591,10,

649,307,10,647,585,10,

643,305,9,643,581,11,

639,304,11,638,575,10,

632,302,10,632,572,11,

627,300,11,627,569,11,

623,299,11,622,563,11,

617,297,11,615,560,11,

613,295,11,611,556,11,

608,294,12,607,551,12,

603,292,11,602,547,12,

599,291,11,597,543,12,

593,289,12,593,538,12,

588,287,13,588,535,12,

583,286,12,583,531,13,

579,285,12,578,527,12,

575,283,13,574,523,13,

571,281,13,569,519,13,

566,280,13,566,516,13,

561,278,13,561,511,13,

557,277,14,557,508,13,

553,275,14,553,504,14,

549,274,14,549,501,14,

545,271,14,545,497,14,

541,270,14,541,494,15,

537,269,15,536,490,15,

533,267,15,533,487,15,

529,266,14,529,484,15,

525,265,15,526,480,15,

521,263,14,522,477,15,

518,262,14,519,473,15,

515,261,15,515,471,14,

510,259,15,511,467,15,

507,257,15,508,463,15,

504,255,15,504,462,15,

500,255,15,499,459,15,

497,253,16,496,455,15,

493,252,15,493,452,15,

489,251,15,489,449,15,

487,249,15,487,447,15,

483,248,15,483,444,15,

480,247,15,480,441,15,

477,246,16,478,438,15,

474,245,15,475,435,15,

470,243,15,471,433,15,

467,241,15,467,430,15,

463,240,15,465,427,15,

461,239,15,462,423,15,

459,238,15,459,422,15,

455,237,15,455,419,15,

451,235,15,453,416,15,

450,234,15,450,413,15,

447,233,15,448,411,15,

444,231,15,445,408,15,

441,231,15,442,406,15,

438,230,15,439,404,15,

435,227,14,435,402,15,

432,227,14,434,399,15,

430,226,14,431,397,14,

427,225,15,428,395,15,

423,224,15,426,391,14,

422,222,15,423,390,15,

419,222,14,421,387,15,

417,220,14,418,384,14,

414,220,15,415,382,14,

412,218,14,412,381,14,

409,217,15,411,379,14,

407,216,14,408,376,14,

404,215,14,405,374,14,

402,214,14,403,372,14,

399,212,14,401,369,14,

397,211,14,399,367,14,

394,210,14,397,364,13,

391,209,14,394,363,14,

390,207,14,391,359,14,

387,207,13,389,359,13,

385,206,14,387,357,13,

383,205,13,385,355,14,

380,204,13,383,353,14,

379,203,13,380,352,13,

376,202,14,378,349,14,

374,201,13,377,347,14,

371,199,14,374,345,13,

370,199,13,372,343,13,

368,198,13,370,342,13,

366,197,14,368,339,13,

364,196,12,366,337,13,

361,195,13,364,335,12,

359,195,13,361,334,13,

358,193,12,359,332,13,

355,192,13,358,329,12,

353,192,12,355,327,13,

352,190,13,354,326,13,

349,189,13,352,324,13,

348,188,12,350,323,13,

345,188,12,348,321,12,

344,187,12,346,319,12,

342,185,12,344,318,12,

339,184,11,342,316,12,

337,184,12,339,315,12,

335,183,12,339,313,12,

334,182,12,336,311,12,

332,181,11,334,309,11,

330,179,11,333,307,12,

328,179,12,332,305,12,

327,178,11,329,304,12,

325,177,12,327,302,12,

323,176,11,326,301,12,

321,176,11,324,300,11,

319,175,11,322,297,12,

318,174,12,321,295,11,

316,173,11,319,294,11,

315,173,11,318,294,12,

313,172,11,316,291,11,

312,171,11,314,291,11,

310,169,11,312,289,11,

308,167,10,311,287,11,

307,167,10,310,286,11,

305,167,11,307,284,10,

304,166,10,306,283,10,

302,166,11,305,281,11,

300,165,10,303,280,11,

299,164,10,302,279,11,

297,163,9,300,277,11,

295,162,10,299,275,10,

294,162,10,297,274,11,

292,160,10,295,273,10,

291,161,10,294,271,10,

290,159,10,292,271,9,

288,158,10,291,269,10,

287,158,9,289,268,9,

285,157,10,287,267,11,

284,156,9,287,266,10,

283,156,9,285,263,9,

281,155,9,285,263,9,

280,154,10,283,262,9,

279,154,10,282,261,9,

277,153,9,281,259,9,

276,152,9,279,258,9,

274,152,9,278,257,9,

273,152,9,276,255,9,

273,150,9,275,255,9,

271,150,10,274,253,9,

269,149,9,273,252,9,

268,148,9,271,251,9,

267,147,9,270,250,9,

265,147,9,269,249,9,

263,146,9,268,248,10,

263,145,9,267,247,9,

262,145,9,266,245,8,

261,145,8,263,244,9,

259,143,9,263,243,9,

259,143,7,262,242,9,

258,142,9,261,241,9,

255,142,8,260,240,9,

255,142,9,259,239,9,

254,141,7,257,238,9,

252,139,7,255,236,7,

251,138,7,255,235,7,

249,137,7,253,235,7,

249,137,7,252,233,7,

248,137,7,252,231,7,

246,135,7,250,231,7,

245,135,7,249,230,7,

245,135,7,248,229,7,

243,134,7,247,227,7,

241,134,7,246,226,7,

241,134,7,245,226,7,

240,133,7,243,224,7,

239,132,7,243,224,7,

238,131,7,241,223,7,

236,131,7,240,222,7,

235,131,7,240,221,7,

235,129,7,263,220,7,

233,129,7,261,219,7,

231,128,7,259,218,7,

231,128,7,258,217,7,

231,127,7,257,216,7,

230,127,7,255,215,7,

228,127,7,253,215,7,

227,126,7,252,214,7,

226,125,7,251,213,7,

225,125,7,249,211,7,

224,125,7,248,211,7,

223,124,7,246,209,7,

223,123,7,245,209,7,

222,123,7,245,208,7,

220,122,7,243,207,7,

220,122,7,242,206,7,

219,121,7,240,205,7,

218,120,7,240,204,7,

217,120,7,238,203,6,

216,120,7,237,203,7,

215,120,7,236,201,6,

215,118,7,235,200,7,

213,118,7,234,199,7,

212,117,7,233,199,7,

211,117,7,231,199,7,

210,116,7,231,198,6,

209,115,6,230,197,7,

209,115,7,229,196,6,

207,114,7,227,195,7,

207,114,6,227,194,7,

206,115,7,226,193,7,

204,114,6,225,193,6,

204,113,7,224,192,6,

203,112,6,224,192,6,

203,112,6,222,190,6,

202,112,6,221,190,7,

199,111,6,220,188,7,

199,110,7,219,188,7,

199,110,7,218,187,6,

199,110,6,217,186,6,

197,109,6,216,185,6,

196,109,6,216,185,7,

195,108,7,215,184,6,

195,108,6,214,184,6,

193,107,6,213,183,7,

193,107,6,211,181,6,

192,107,6,211,180,6,

192,105,6,210,180,7,

190,105,7,209,179,6,

189,105,5,207,178,5,

189,103,6,207,177,6,

188,103,6,207,177,6,

187,103,5,206,176,6,

186,103,6,204,175,6,

185,103,5,204,174,7,

185,102,6,204,174,6,

184,102,6,202,173,6,

184,101,5,201,173,6,

183,101,6,201,172,6,

182,100,5,199,171,6,

180,99,6,199,171,5,

180,99,6,199,169,6,

179,99,5,198,169,5,

179,98,5,196,167,6,

178,99,6,196,167,6,

177,97,6,195,167,5,

176,97,6,195,166,6,

176,97,5,194,166,5,

175,97,5,192,164,5,

174,96,5,192,165,5,

174,96,5,191,164,6,

174,95,5,190,163,5,

173,95,6,190,163,6,

172,95,5,189,162,6,

172,94,6,188,161,5,

171,93,6,188,160,6,

169,94,6,187,160,6,

169,93,5,186,159,6,

167,92,5,185,158,6,

167,92,5,185,158,5,

167,92,6,184,158,6,

166,92,6,184,157,6,

166,91,5,183,156,6,

165,90,5,182,156,6,

164,90,6,181,155,5,

163,90,5,180,155,6,

163,90,5,179,153,6,

163,89,6,179,153,6,

162,89,6,179,153,5,

161,89,6,178,152,6,

161,88,6,177,152,6,

159,88,5,176,151,5,

159,88,6,176,151,5,

158,88,6,175,150,5,

158,87,5,174,149,5,

157,86,6,173,149,5,

157,86,6,173,147,5,

156,86,5,172,147,5,

155,85,5,172,147,5,

155,85,6,171,147,6,

154,84,6,170,146,6,

154,83,5,170,145,5,

153,84,6,169,143,5,

153,83,5,169,144,6,

152,83,5,167,143,5,

152,83,5,167,143,6,

151,82,6,167,142,5,

151,82,6,167,142,5,

149,82,5,165,141,5,

149,81,5,164,140,5,

148,81,6,164,140,4,

147,80,5,163,139,5,

147,80,5,162,139,5,

146,79,5,162,139,6,

146,79,5,161,138,6,

145,79,5,161,137,5,

145,79,6,160,137,5,

143,79,5,159,135,5,

144,78,5,159,135,5,

143,78,5,158,135,5,

143,78,5,158,134,5,

142,78,5,157,134,6,

142,77,6,157,134,4,

141,77,5,156,133,5,

140,76,5,156,133,5,

140,77,5,155,132,5,

140,76,5,154,131,6,

139,76,4,154,131,5,

138,75,5,153,131,5,

137,75,5,152,130,5,

138,75,4,152,129,6,

135,74,5,151,129,5,

135,73,5,151,128,5,

135,74,5,150,128,5,

135,74,5,150,127,5,

135,73,5,149,127,5,

134,71,5,148,126,5,

134,73,5,147,126,5,

134,71,5,147,126,5,

133,71,4,146,125,5,

131,71,5,146,124,5,

131,71,5,146,124,5,

131,71,4,145,124,6,

130,71,5,144,123,5,

130,70,5,144,123,5,

129,71,5,143,123,5,

129,70,5,143,122,5,

128,70,4,142,121,5,

127,70,5,142,121,6,

127,69,5,141,120,5,

126,68,5,141,121,5,

126,69,5,140,120,5,

125,68,5,140,119,4,

125,68,5,139,118,5,

125,67,5,139,118,5,

124,67,5,138,117,5,

124,67,5,138,117,5,

124,67,6,137,117,5,

123,67,4,137,115,5,

123,66,4,135,115,5,

122,66,5,135,116,4,

121,66,4,135,115,4,

121,65,4,135,115,4,

120,65,5,134,113,5,

120,65,4,133,114,5,

120,64,4,133,113,4,

120,64,5,132,112,4,

118,63,5,132,113,4,

118,63,4,131,112,5,

117,63,5,130,112,4,

117,63,5,131,111,4,

117,62,5,130,110,5,

116,62,4,129,111,5,

115,62,4,130,109,4,

115,62,5,128,109,5,

115,61,4,129,108,5,

114,61,4,127,108,4,

114,61,4,127,108,4,

113,61,5,126,108,4,

113,60,4,126,107,4,

112,61,4,125,107,5,

112,60,5,126,106,5,

112,60,4,125,105,5,

112,60,5,124,105,4,

111,59,5,124,105,4,

111,59,4,123,103,5,

110,60,4,123,103,5,

110,58,5,122,103,4,

110,58,5,121,103,5,

110,59,4,121,103,4,

108,58,4,121,102,5,

108,58,4,120,103,5,

108,58,5,121,102,5,

107,57,5,120,101,4,

107,56,5,119,101,4,

106,57,4,120,100,5,

107,57,5,119,101,4,

106,56,4,118,100,5,

105,56,5,118,100,5,

105,56,5,118,99,4,

103,56,4,116,99,5,

103,56,4,115,99,4,

103,56,5,115,98,4,

103,55,4,115,98,5,

103,55,4,115,98,5,

103,54,4,114,97,4,

102,55,5,115,97,4,

102,54,4,114,96,4,

101,54,4,114,97,4,

102,54,4,113,96,4,

100,54,3,112,95,4,

99,54,4,112,95,4,

100,53,4,112,95,4,

100,53,4,112,95,5,

99,52,4,111,94,4,

99,52,4,110,93,5,

98,52,4,110,94,5,

98,52,5,110,93,5,

97,51,5,109,93,4,

97,51,4,109,93,4,

97,51,5,109,92,4,

96,51,5,108,92,4,

96,51,4,109,91,4,

96,50,4,108,91,4,

96,50,4,107,91,5,

96,50,5,107,91,5,

95,50,5,107,91,5,

95,49,3,106,90,4,

94,49,4,106,89,4,

94,49,4,106,89,5,

94,49,4,105,89,5,

94,49,4,103,88,5,

93,49,4,105,89,4,

93,49,5,103,88,5,

93,49,4,103,88,4,

92,48,5,103,88,4,

92,48,3,103,88,4,

91,48,5,103,87,4,

91,48,5,103,86,4,

91,48,5,102,86,4,

91,48,5,102,86,4,

91,47,4,101,85,4,

89,46,4,101,86,4,

89,47,5,101,85,3,

89,47,4,100,85,4,

89,46,3,99,84,5,

89,46,4,99,84,4,

88,46,5,99,83,4,

88,46,4,99,83,4,

88,45,4,99,83,4,

88,46,4,98,83,4,

87,46,4,98,83,5,

86,45,3,97,82,4,

86,45,3,97,81,4,

86,44,3,97,81,3,

86,44,4,96,81,4,

85,44,5,96,81,4,

85,44,3,96,80,3,

85,44,5,96,81,4,

84,43,3,95,80,4,

84,43,4,95,79,4,

83,44,4,95,79,4,

83,43,3,95,79,5,

83,44,4,94,79,4,

83,43,3,94,79,4,

82,43,4,93,78,4,

82,42,3,93,78,5,

82,43,4,93,78,3,

81,42,4,93,78,3,

82,43,4,92,77,4,

81,41,3,92,77,4,

81,42,3,92,78,4,

81,42,4,92,77,3,

80,41,4,92,76,4,

81,42,3,91,76,4,

79,42,4,90,76,4,

79,42,3,90,75,4,

79,41,4,90,76,4,

79,41,4,89,75,3,

79,41,4,90,75,5,

79,42,4,89,75,3,

78,41,4,89,74,4,

78,41,4,88,74,4,

78,41,4,88,74,5,

78,39,4,88,74,4,

78,40,4,88,73,3,

77,39,4,88,73,4,

77,41,4,87,73,4,

77,39,4,87,73,4,

77,39,4,87,72,4,

76,39,4,86,71,3,

76,39,3,86,71,3,

75,39,4,86,71,4,

75,39,4,85,71,3,

75,39,4,85,71,3,

75,39,3,85,71,4,

75,39,5,85,71,4,

74,39,4,83,71,3,

74,38,3,83,70,3,

74,38,4,84,71,4,

73,38,4,83,71,5,

73,38,3,83,69,3,

73,38,4,83,70,3,

73,37,4,83,69,3,

72,38,4,82,69,4,

71,37,4,82,69,4,

71,38,4,82,68,4,

71,38,4,82,68,3,

71,37,3,81,67,4,

71,37,3,81,67,4,

71,37,4,81,67,4,

71,36,4,80,67,4,

71,36,3,79,67,3,

70,36,4,79,67,3,

70,37,4,79,67,4,

69,36,4,79,66,4,

69,35,4,79,66,5,

69,36,3,79,65,3,

70,35,4,79,66,3,

68,35,4,78,65,3,

69,35,3,78,65,3,

68,35,3,78,65,3,

68,35,3,77,65,4,

68,35,3,78,65,4,

67,35,4,77,64,4,

67,35,4,77,63,3,

67,35,4,76,63,3,

67,35,4,76,64,3,

67,41,4,77,63,4,

67,53,4,76,63,4,

66,53,4,75,63,3,

66,52,4,76,63,3,

65,52,4,76,62,4,

66,52,4,75,63,4,

65,51,4,74,62,3,

65,51,4,74,62,3,

65,51,3,74,61,3,

65,51,4,74,62,3,

64,51,3,74,62,4,

64,50,4,73,61,3,

64,71,4,74,61,4,

63,125,4,73,61,3,

63,124,4,73,61,3,

64,124,3,73,60,3,

63,122,4,71,60,4,

63,121,5,71,60,4,

63,121,3,71,59,4,

62,120,4,71,60,4,

62,120,3,71,60,4,

62,120,3,71,59,3,

62,119,3,71,58,3,

62,118,3,70,59,3,

61,117,4,70,59,3,

61,118,4,70,58,3,

61,116,4,70,59,4,

61,116,3,70,57,4,

60,115,4,70,57,4,

60,115,4,69,57,4,

60,114,3,69,57,3,

60,114,3,69,57,3,

60,114,3,69,57,3,

59,113,4,67,57,3,

59,112,3,68,57,3,

59,112,4,68,56,4,

59,111,3,68,56,3,

59,110,4,68,56,3,

59,137,3,67,56,4,

57,147,3,67,56,3,

58,145,3,67,56,4,

58,143,4,66,56,4,

58,143,3,67,55,4,

57,143,4,67,56,3,

57,143,4,66,55,3,

57,142,3,66,54,4,

57,140,4,65,54,4,

57,140,4,65,54,3,

56,140,3,65,54,3,

57,138,4,65,53,4,

56,138,4,64,53,4,

56,137,4,63,53,3,

56,136,3,63,53,4,

55,135,4,64,53,4,

55,135,4,63,51,4,

55,135,3,63,53,4,

55,134,3,63,53,4,

55,134,4,63,51,4,

54,133,4,62,51,3,

54,132,4,62,51,3,

53,131,4,62,51,4,

54,131,3,62,51,3,

53,130,3,61,51,3,

53,129,4,61,51,3,

53,129,3,61,51,5,

52,128,4,62,51,4,

53,128,3,61,50,4,

53,127,4,61,50,3,

53,127,3,61,49,4,

52,126,4,60,50,4,

52,125,3,61,50,4,

51,125,4,60,50,4,

51,124,3,60,50,3,

51,124,4,59,49,3,

51,123,4,59,49,4,

51,123,3,59,48,3,

51,123,4,59,48,3,

50,121,4,58,48,4,

50,121,4,58,48,3,

50,120,3,58,48,5,

50,120,4,58,48,3,

50,120,4,57,47,3,

49,120,4,58,48,4,

50,119,4,57,47,4,

49,118,4,57,47,3,

50,118,3,57,47,3,

49,117,4,57,47,3,

49,117,3,56,47,4,

49,115,4,56,46,4,

49,115,4,57,46,3,

48,115,4,57,46,3,

49,114,4,56,46,3,

48,113,4,56,46,3,

48,113,3,56,45,3,

48,113,4,56,46,4,

48,112,4,55,45,3,

47,112,4,55,45,5,

47,111,3,55,45,3,

46,111,3,54,45,3,

46,110,3,54,45,3,

47,110,4,54,44,4,

46,110,3,54,44,4,

46,109,4,54,44,3,

46,109,4,54,44,4,

46,108,4,53,44,3,

46,108,4,53,44,3,

45,107,3,53,44,4,

46,107,3,53,43,4,

46,106,3,53,43,5,

45,107,4,52,43,3,

45,105,3,52,43,4,

44,105,4,52,43,4,

45,103,3,51,42,3,

44,103,3,52,42,3,

44,103,4,51,42,3,

44,103,3,51,42,3,

44,103,3,51,41,4,

44,102,3,51,41,4,

44,102,4,51,42,3,

43,102,3,50,41,3,

43,101,4,50,41,4,

43,100,3,50,41,3,

43,100,4,51,41,3,

43,99,4,49,41,3,

43,99,4,50,41,4,

46,99,3,49,40,4,

47,98,3,49,39,4,

46,98,3,49,41,3,

46,97,3,49,39,4,

45,97,3,49,39,4,

45,97,3,48,39,3,

45,96,4,49,39,3,

45,96,4,48,39,4,

45,96,4,48,39,3,

45,96,4,48,39,4,

44,96,4,48,39,4,

44,95,4,48,39,4,

60,94,4,48,39,3,

159,94,4,48,39,4,

174,94,4,47,39,4,

172,93,3,47,39,4,

173,92,4,47,39,3,

170,92,3,47,38,3,

169,92,4,47,38,4,

169,91,3,46,38,4,

167,91,3,46,38,3,

167,91,3,46,38,3,

166,90,3,47,37,4,

166,90,3,45,38,4,

164,89,4,46,37,3,

163,89,4,46,37,4,

163,89,5,45,38,3,

162,88,4,45,37,3,

161,88,4,45,36,3,

161,88,3,45,37,3,

159,88,4,44,36,3,

159,87,5,45,37,4,

159,87,3,44,36,4,

158,86,4,44,35,4,

157,85,3,44,35,3,

156,85,4,44,35,4,

155,85,3,44,35,3,

155,85,3,43,35,5,

154,84,4,44,35,3,

153,83,3,43,35,3,

153,83,4,43,35,4,

152,83,4,43,35,4,

151,83,3,43,35,4,

151,82,3,42,34,3,

150,82,4,43,34,4,

149,81,3,42,34,3,

148,81,3,42,35,3,

148,81,3,42,34,3,

147,81,3,42,34,3,

147,80,4,42,34,4,

146,79,3,41,33,3,

145,79,4,41,34,4,

145,79,3,41,33,4,

143,79,3,41,33,4,

143,79,3,41,33,3,

143,78,3,41,33,5,

142,78,4,41,33,4,

142,77,3,39,33,3,

140,77,4,39,33,3,

140,77,3,39,32,4,

140,77,3,39,31,3,

139,77,4,39,33,3,

139,76,3,39,32,3,

138,76,4,39,31,3,

137,75,3,39,32,3,

135,75,3,39,31,3,

135,75,3,39,31,4,

135,75,3,39,31,4,

135,74,3,39,31,3,

135,74,3,39,31,3,

134,73,3,39,31,3,

133,73,4,38,31,3,

132,71,4,39,31,4,

133,71,4,38,30,4,

131,73,4,38,31,3,

131,72,3,38,31,3,

131,71,3,38,30,3,

129,71,4,38,30,4,

129,71,4,37,30,3,

129,71,3,38,30,4,

127,71,3,37,30,4,

127,71,3,37,30,3,

127,70,3,37,30,3,

127,70,3,37,29,4,

126,69,4,38,30,4,

125,70,3,37,30,3,

125,68,4,37,29,3,

124,69,4,37,30,3,

124,68,4,36,29,4,

123,68,4,35,29,4,

123,68,3,36,29,3,

122,67,3,36,29,3,

121,67,3,35,28,4,

121,67,3,36,29,3,

121,66,4,35,29,5,

120,67,4,35,29,3,

120,67,3,35,29,3,

119,66,3,35,28,4,

118,65,4,35,28,4,

118,65,4,35,28,3,

117,65,4,34,28,4,

117,64,4,35,28,3,

117,65,3,34,28,3,

116,64,3,34,28,4,

115,63,3,34,27,3,

115,63,3,34,28,3,

115,63,3,34,28,3,

114,62,3,34,27,3,

113,63,3,34,27,3,

113,63,4,34,27,3,

113,62,3,33,26,3,

113,62,3,34,27,3,

112,61,3,33,27,3,

112,62,4,33,27,3,

111,61,3,32,26,3,

110,61,4,33,26,3,

110,60,3,33,27,3,

109,61,3,33,26,4,

109,60,3,33,26,4,

108,60,3,31,25,4,

108,60,4,31,25,4,

108,59,3,32,26,3,

108,59,3,31,25,3,

107,59,4,31,25,3,

107,58,4,31,25,3,

106,58,5,31,25,3,

106,58,4,32,25,4,

105,58,3,31,26,3,

105,58,4,31,25,3,

103,57,4,31,25,3,

103,57,4,31,25,3,

103,56,4,31,25,3,

103,56,3,31,25,3,

102,56,3,30,24,3,

102,56,4,31,24,4,

102,56,3,30,24,3,

102,56,3,30,24,4,

101,56,4,30,24,4,

101,55,3,30,24,3,

100,55,3,30,25,3,

100,54,4,30,24,4,

99,54,4,30,24,5,

99,55,4,29,24,3,

99,54,3,29,24,3,

98,54,4,30,23,3,

97,54,3,30,24,4,

97,53,3,30,23,3,

97,53,3,29,23,3,

96,53,4,29,23,3,

97,52,3,29,24,3,

123,52,3,29,24,4,

126,52,3,29,23,4,

126,52,3,28,24,4,

125,53,5,28,23,3,

124,52,4,29,23,4,

124,51,4,28,22,3,

123,51,3,28,23,3,

122,51,4,28,22,4,

121,51,3,28,22,4,

121,51,3,28,23,4,

121,50,3,28,23,4,

120,50,3,27,22,3,

120,50,3,28,23,3,

119,49,4,28,21,3,

119,49,4,27,21,3,

118,49,4,27,22,3,

118,49,3,27,22,3,

116,49,3,26,22,4,

116,48,3,27,22,4,

116,48,3,27,21,3,

115,48,4,27,21,3,

115,48,4,27,21,3,

114,48,3,27,22,4,

114,48,3,27,21,4,

113,47,4,26,21,4,

117,48,5,26,21,3,

116,48,3,26,21,4,

116,46,4,26,21,3,

115,46,3,26,20,3,

115,46,3,25,21,4,

114,47,3,26,20,3,

114,47,3,26,20,4,

113,46,3,25,20,4,

113,46,3,26,21,3,

113,45,3,25,19,4,

112,46,3,25,19,3,

111,45,3,25,20,4,

111,45,4,25,19,3,

111,45,3,25,19,4,

110,44,4,25,19,3,

110,45,4,25,19,3,

109,44,3,24,19,3,

109,44,3,24,19,3,

108,44,3,25,19,3,

108,43,4,24,19,3,

107,44,3,24,19,3,

107,43,3,24,19,5,

107,44,3,24,18,3,

105,43,3,24,19,4,

105,44,4,24,19,3,

105,43,4,24,19,4,

103,42,3,24,19,3,

103,42,3,24,19,4,

103,42,3,24,18,3,

103,41,3,24,19,4,

103,42,3,24,18,3,

103,41,3,23,18,3,

101,41,3,23,18,3,

102,41,3,24,18,4,

100,41,3,23,18,3,

101,40,3,23,18,3,

99,39,4,24,18,3,

99,40,4,23,18,4,

99,39,4,23,18,3,

99,39,4,22,17,4,

99,39,3,23,18,3,

97,39,4,22,18,4,

97,39,3,22,17,3,

97,39,4,22,18,3,

97,39,3,22,18,3,

96,39,3,22,17,3,

96,39,3,22,17,3,

95,39,3,22,17,3,

96,38,4,22,17,3,

96,38,3,21,17,3,

105,39,3,21,17,3,

105,38,3,22,17,3,

105,38,3,21,17,4,

103,38,4,21,16,4,

103,38,3,21,17,4,

103,37,4,21,16,4,

103,38,3,21,17,3,

102,37,3,21,16,4,

102,37,3,21,18,4,

101,36,3,21,16,3,

100,37,4,21,16,3,

100,36,4,20,16,4,

99,36,3,20,16,3,

99,36,3,21,16,4,

99,35,3,20,16,3,

99,36,4,20,16,4,

98,35,3,21,16,4,

97,35,3,20,15,3,

98,35,3,20,15,3,

97,35,4,20,15,3,

96,35,3,20,15,4,

96,35,4,20,15,3,

96,34,3,20,15,3,

96,34,3,19,15,4,

96,34,4,19,15,3,

95,34,4,20,15,3,

95,34,3,19,15,3,

94,34,4,19,15,3,

93,34,3,19,15,4,

93,34,3,19,15,3,

92,34,3,19,15,3,

92,34,3,19,15,4,

92,34,3,19,15,4,

92,33,3,19,15,3,

91,33,3,19,15,3,

91,34,3,18,15,4,

90,33,4,19,14,3,

90,32,3,19,14,4,

89,33,4,19,14,4,

89,33,4,18,15,3,

89,31,3,18,15,3,

89,33,4,18,15,3,

89,32,4,18,14,4,

88,32,3,18,14,3,

88,33,3,18,14,4,

88,31,4,18,14,3,

87,31,3,19,14,3,

87,31,4,18,14,3,

86,31,3,17,14,3,

87,31,3,17,15,4,

86,31,3,18,14,3,

89,31,4,18,15,4,

171,31,4,18,14,4,

169,30,4,17,14,3,

167,31,3,17,14,4,

167,30,3,17,13,4,

166,30,4,18,13,3,

165,31,4,17,14,4,

164,30,3,17,14,4,

164,30,3,17,14,3,

163,30,3,17,13,3,

162,30,3,16,14,3,

161,30,5,16,13,3,

159,30,3,17,13,3,

159,30,3,17,13,3,

159,29,4,17,13,3,

159,29,3,17,13,3,

158,29,4,16,12,3,

156,28,3,17,13,3,

156,28,4,16,13,4,

155,28,3,16,13,3,

154,29,3,17,12,4,

153,29,4,16,13,4,

153,29,4,16,14,3,

152,28,4,16,13,4,

152,28,3,16,13,4,

152,28,4,16,13,4,

150,28,4,16,12,3,

149,28,3,15,12,4,

149,28,3,15,12,3,

149,27,4,15,13,3,

147,28,3,15,12,3,

147,27,4,15,12,3,

146,27,3,15,13,4,

146,27,3,16,12,3,

145,27,4,15,12,3,

144,26,3,15,12,4,

143,27,4,15,12,5,

143,26,3,15,12,4,

143,26,3,15,12,4,

142,25,3,15,12,4,

141,26,3,15,12,3,

140,25,3,15,12,3,

140,26,3,15,12,4,

139,25,3,15,12,4,

138,26,4,15,12,3,

139,25,4,14,11,3,

138,25,3,14,12,3,

137,25,3,15,11,3,

135,25,3,14,12,4,

135,25,3,14,12,3,

135,25,3,14,12,3,

134,25,3,15,12,3,

134,24,3,14,11,3,

134,24,4,15,11,3,

133,24,4,14,11,3,

132,25,3,14,11,4,

131,24,4,14,12,3,

131,24,3,14,11,3,

131,24,3,14,11,4,

130,25,4,14,11,4,

129,24,3,14,11,3,

128,24,4,14,11,4,

128,24,3,14,11,4,

127,24,4,14,11,3,

127,24,3,13,11,3,

127,24,4,14,11,3,

126,24,4,13,10,3,

125,24,3,14,11,4,

125,24,3,14,11,3,

124,23,3,13,10,4,

124,23,3,14,11,3,

123,23,3,14,10,3,

123,23,3,13,10,3,

122,22,4,14,10,4,

121,22,3,13,10,3,

122,23,3,13,10,3,

121,22,4,13,11,3,

122,22,4,13,11,3,

120,22,3,13,10,3,

121,22,3,13,10,3,

120,23,4,13,10,3,

119,21,3,13,10,3,

119,22,4,13,10,4,

118,22,3,13,9,3,

117,22,3,12,10,4,

118,21,4,12,11,3,

117,22,3,12,10,3,

116,22,3,13,9,3,

115,21,3,12,10,3,

115,22,3,13,10,3,

115,22,3,12,9,3,

114,21,3,13,10,3,

114,21,3,13,9,4,

113,20,3,12,10,4,

113,20,4,12,9,3,

112,20,3,11,10,3,

111,20,3,12,10,3,

111,21,3,12,9,3,

111,20,3,12,9,3,

110,20,4,12,9,3,

110,19,3,12,9,3,

109,19,3,12,9,3,

109,20,3,11,9,3,

109,19,3,12,9,4,

108,19,3,12,9,3,

108,20,3,11,9,3,

107,19,3,12,9,3,

107,19,3,11,9,3,

107,19,3,11,9,3,

106,19,3,11,8,4,

105,19,3,11,8,3,

106,18,3,11,9,3,

105,18,4,11,9,3,

103,19,4,11,9,3,

103,19,3,12,9,3,

103,19,3,11,9,3,

103,19,3,11,9,3,

103,18,4,11,9,4,

102,18,4,11,8,3,

102,19,3,11,8,4,

102,19,4,11,8,3,

101,19,3,11,7,3,

100,19,3,11,9,3,

101,18,3,11,9,3,

100,18,3,11,7,4,

99,18,4,10,9,3,

99,18,4,10,7,3,

99,18,3,10,7,3,

98,18,3,10,8,3,

98,17,3,10,7,3,

98,17,3,11,7,3,

97,18,3,11,7,3,

98,17,3,10,8,3,

97,17,3,10,7,3,

96,18,3,11,7,3,

96,17,4,9,7,3,

96,17,3,9,7,3,

96,17,3,10,7,3,

95,17,3,10,7,3,

94,17,3,10,7,3,

94,17,4,10,7,3,

94,16,3,9,7,3,

94,17,3,11,7,3,

93,17,3,10,7,4,

93,16,3,9,7,3,

92,17,3,9,7,4,

92,17,3,10,7,4,

92,17,4,9,7,3,

92,16,3,9,7,3,

91,16,4,9,7,3,

91,16,3,10,7,3,

91,17,3,9,7,3,

90,17,3,10,7,3,

90,16,3,9,7,4,

90,15,4,9,7,4,

91,16,3,9,7,3,

90,16,3,10,7,3,

89,15,3,9,7,3,

89,15,3,9,7,3,

89,15,3,10,7,3,

89,15,4,9,7,3,

88,15,3,9,7,3,

88,15,3,9,7,3,

87,15,3,9,7,4,

87,15,3,10,7,3,

87,15,3,9,7,3,

87,15,3,9,7,4,

86,15,3,9,7,3,

86,15,3,9,7,4,

86,15,3,9,7,3,

86,15,3,9,7,3,

85,14,3,9,7,3,

84,14,3,9,7,3,

84,15,3,8,7,3,

83,15,4,9,7,3,

84,15,4,7,7,4,

83,15,3,9,7,3,

83,14,3,9,7,3,

83,15,3,9,7,3,

82,15,3,9,7,3,

83,14,4,9,7,4,

82,14,3,9,7,3,

