
27,51,4,50,44,3,

26,51,4,50,45,3,

27,50,3,50,44,3,

26,49,4,50,44,4,

25,50,4,49,44,3,

26,49,4,49,44,3,

25,49,4,49,44,3,

26,49,4,49,43,3,

25,49,4,49,43,3,

25,48,4,49,43,3,

25,49,4,48,42,4,

26,48,4,48,42,3,

26,49,3,48,42,4,

27,48,3,48,41,4,

26,47,4,48,42,3,

26,48,4,48,41,4,

25,47,3,47,41,3,

26,47,3,47,41,3,

25,47,4,47,41,4,

25,47,4,47,41,3,

25,47,3,46,41,4,

25,46,3,46,39,3,

25,46,3,46,39,4,

25,46,3,46,39,4,

26,45,3,45,39,3,

33,45,3,45,39,5,

33,45,3,45,39,3,

32,45,4,46,39,4,

31,45,4,45,39,3,

31,44,3,44,39,3,

32,44,4,44,39,4,

31,44,3,44,39,4,

32,44,3,44,38,3,

31,44,4,44,39,3,

31,44,4,44,39,3,

31,44,3,44,37,3,

31,43,3,44,38,3,

31,43,3,43,39,4,

31,43,4,43,39,3,

31,43,3,43,39,5,

30,42,4,43,39,4,

30,42,4,42,39,3,

30,42,3,42,39,3,

31,42,4,42,39,4,

30,41,4,42,39,4,

29,41,4,42,38,3,

30,41,4,42,39,4,

29,41,4,41,39,3,

29,41,3,41,38,3,

30,40,4,41,38,4,

29,41,3,41,39,4,

29,40,4,54,38,3,

29,39,3,59,38,4,

29,39,3,58,38,3,

29,39,4,57,38,4,

29,39,4,57,37,4,

28,39,3,57,37,4,

29,39,3,57,37,3,

29,39,3,56,37,4,

28,39,3,56,37,3,

27,39,4,56,36,3,

28,39,4,56,37,4,

28,39,4,56,36,4,

28,38,3,56,36,3,

27,38,3,55,36,3,

27,39,3,54,35,3,

27,38,3,56,35,3,

27,38,4,54,35,4,

27,38,3,54,35,3,

27,38,4,53,35,4,

26,38,3,53,35,3,

26,37,4,54,35,4,

27,37,3,53,35,4,

26,37,3,53,35,3,

25,37,4,52,34,3,

26,36,3,53,34,4,

30,36,3,52,34,4,

29,36,3,51,34,3,

29,37,4,51,34,3,

28,37,4,51,33,3,

28,36,3,51,34,3,

28,36,4,51,33,4,

29,36,3,51,33,4,

28,35,3,50,33,3,

28,35,4,50,33,4,

28,35,3,50,32,3,

27,35,3,49,32,3,

27,35,3,50,32,3,

27,35,4,49,32,4,

27,35,3,49,31,4,

28,35,3,49,31,3,

28,34,3,49,32,3,

28,34,4,48,31,5,

27,34,4,48,32,3,

26,33,3,48,31,3,

27,34,3,48,31,4,

27,34,4,48,31,3,

27,33,3,47,30,3,

26,34,3,47,31,4,

26,33,3,47,31,3,

26,33,3,47,31,4,

26,33,4,46,30,3,

25,32,3,46,30,4,

26,33,5,46,30,4,

26,33,3,46,30,4,

26,31,3,46,30,3,

26,32,3,46,29,3,

25,32,3,45,30,3,

25,31,4,45,29,3,

25,31,3,45,29,5,

25,31,3,45,29,3,

25,31,3,45,29,3,

25,31,3,45,29,3,

25,31,3,44,29,3,

25,31,4,45,28,3,

27,31,3,44,28,4,

27,30,3,44,29,3,

27,31,3,43,28,4,

26,30,3,43,28,4,

26,30,3,43,28,3,

27,30,3,43,28,3,

27,30,4,42,27,3,

26,30,3,42,27,4,

26,30,3,42,28,4,

25,29,3,42,27,4,

25,30,3,42,27,3,

25,29,3,41,28,3,

26,29,3,42,27,3,

25,29,3,41,27,4,

25,28,3,41,27,4,

25,28,4,42,27,3,

25,29,3,41,27,4,

25,29,3,41,26,4,

25,28,4,40,27,4,

25,28,3,40,26,3,

25,28,3,39,26,3,

25,28,3,39,27,4,

25,28,4,39,25,4,

25,28,4,39,25,3,

25,28,4,39,25,3,

24,27,4,39,25,3,

24,28,4,39,26,4,

25,28,4,39,27,4,

25,35,4,39,27,4,

24,35,3,39,27,4,

24,35,3,39,26,3,

24,35,3,38,27,4,

24,35,4,38,27,3,

24,35,3,38,26,3,

24,34,3,38,26,3,

24,33,3,37,26,3,

24,34,3,38,26,4,

24,33,4,37,26,3,

24,33,4,38,26,3,

24,34,4,37,26,3,

31,34,3,37,25,3,

31,35,3,37,26,4,

31,34,3,37,25,3,

31,34,3,37,25,4,

30,34,4,36,26,3,

30,34,4,36,25,3,

30,33,3,35,25,4,

31,34,3,35,26,4,

31,34,4,36,25,3,

30,32,3,35,25,4,

30,33,4,35,25,4,

29,32,4,35,25,3,

30,32,3,35,25,3,

31,32,3,35,25,3,

31,31,3,35,24,3,

31,31,3,35,24,3,

31,32,3,34,25,4,

31,31,3,34,24,4,

31,31,3,34,24,4,

31,31,4,34,24,3,

31,31,3,33,24,3,

30,31,3,34,24,3,

31,31,4,33,24,4,

30,30,4,33,24,4,

30,30,3,34,24,4,

30,31,3,33,24,4,

38,30,4,71,24,3,

38,31,3,74,24,3,

39,83,4,74,23,3,

39,86,4,73,24,4,

39,85,3,73,23,4,

39,85,3,72,24,4,

39,85,4,71,23,4,

39,85,3,71,23,4,

39,83,3,71,24,3,

39,83,3,71,25,3,

39,83,3,71,25,4,

38,82,5,71,57,4,

38,82,3,70,176,5,

38,81,3,70,248,4,

38,81,4,70,245,4,

38,81,4,70,243,3,

38,80,4,71,242,4,

37,79,3,71,240,3,

37,79,4,71,238,3,

36,79,3,71,238,4,

37,79,3,70,236,3,

36,79,3,70,234,3,

36,78,3,70,233,5,

35,78,4,69,231,5,

35,77,4,70,231,3,

35,78,4,69,230,3,

35,77,4,68,228,4,

35,76,4,67,234,3,

35,76,4,68,307,4,

35,76,4,67,376,4,

35,75,3,67,372,3,

34,76,4,67,370,4,

34,74,4,71,368,4,

34,74,4,71,365,4,

34,74,3,71,363,3,

33,73,4,70,361,3,

35,73,4,70,359,4,

71,72,5,70,357,5,

113,72,4,70,454,4,

112,71,4,70,575,3,

112,71,3,69,569,3,

110,71,5,69,565,3,

110,71,4,68,559,4,

109,70,3,67,556,4,

108,71,3,67,550,4,

108,70,3,67,547,4,

108,70,3,67,543,3,

107,69,3,67,539,4,

107,69,3,66,536,3,

105,68,3,66,531,4,

105,68,4,66,527,3,

105,68,3,65,524,4,

103,68,4,65,520,4,

103,67,3,65,518,4,

103,67,5,64,514,3,

103,67,4,64,510,5,

103,66,4,64,507,4,

101,66,3,64,504,4,

102,65,4,63,501,5,

100,65,5,63,497,4,

101,65,4,63,494,5,

99,65,4,63,491,4,

99,65,4,62,487,4,

99,64,5,63,485,4,

99,65,4,62,483,3,

98,66,4,62,481,4,

98,114,4,61,477,4,

97,120,3,61,474,5,

96,119,5,61,472,4,

96,117,4,60,468,4,

96,116,4,60,465,4,

96,116,5,60,463,4,

95,115,4,71,460,4,

95,115,5,71,457,4,

169,114,4,71,455,4,

224,195,5,71,452,5,

222,236,5,71,449,4,

220,290,5,70,447,4,

219,287,4,70,444,4,

217,285,4,69,441,4,

216,283,4,69,439,4,

215,282,4,68,493,5,

213,280,5,68,521,5,

213,279,4,68,518,5,

287,277,5,109,514,5,

322,291,4,124,509,5,

318,287,5,127,505,5,

317,286,5,135,502,4,

315,285,5,134,497,5,

312,283,5,134,495,4,

310,281,6,132,563,5,

309,280,5,131,709,5,

306,278,5,131,700,5,

304,276,6,131,695,6,

303,274,5,129,687,6,

301,273,6,129,680,6,

299,271,6,127,673,5,

297,270,5,127,669,5,

295,268,5,126,662,6,

294,267,5,126,655,5,

291,266,5,126,649,6,

290,263,6,125,645,5,

289,262,6,124,639,6,

287,261,6,123,633,6,

285,259,6,123,628,6,

284,258,5,121,624,6,

283,256,6,121,619,6,

281,255,5,121,614,6,

280,254,6,120,608,6,

277,253,6,120,604,6,

275,251,6,119,600,6,

275,249,5,119,595,6,

273,248,6,118,589,6,

271,248,6,117,585,5,

271,246,7,116,582,6,

269,244,6,117,577,6,

268,243,7,115,572,6,

267,243,6,115,568,6,

265,242,7,115,616,7,

263,247,6,114,610,7,

262,245,6,113,604,7,

260,243,6,113,600,6,

259,243,6,112,595,7,

257,241,7,112,590,6,

255,239,7,111,584,6,

255,238,7,111,579,7,

253,237,7,110,575,7,

253,236,7,115,571,7,

251,235,7,114,567,7,

250,233,7,147,563,7,

249,232,7,220,559,7,

248,231,7,218,583,7,

247,230,7,217,577,7,

245,229,7,216,573,7,

243,227,7,214,569,7,

242,226,7,213,563,7,

241,225,7,211,559,7,

240,224,7,210,555,7,

238,223,7,209,551,7,

238,222,7,207,547,7,

237,221,7,207,543,7,

235,219,7,206,540,7,

233,219,7,204,536,7,

231,218,7,203,532,7,

231,216,7,202,586,7,

230,216,7,201,582,7,

229,215,7,199,575,7,

227,213,7,199,573,7,

227,213,7,198,568,7,

226,211,7,197,563,7,

224,209,9,196,559,7,

224,209,7,195,555,7,

223,207,7,195,550,7,

222,207,7,193,545,8,

220,206,7,192,739,7,

219,206,7,207,871,7,

219,204,7,227,907,7,

217,203,7,226,911,7,

216,201,8,225,908,7,

215,201,8,224,895,7,

214,219,7,223,882,7,

213,219,7,222,871,7,

212,217,7,220,880,7,

211,216,7,219,905,7,

209,214,7,217,912,7,

209,213,7,217,916,7,

208,211,7,216,920,7,

207,211,7,214,921,8,

206,210,7,213,922,9,

205,208,7,211,923,7,

204,245,7,211,921,7,

203,244,7,210,914,7,

202,242,7,209,890,7,

201,240,9,207,878,7,

199,239,7,207,868,7,

199,239,7,205,858,7,

199,237,7,205,851,7,

198,236,7,204,841,7,

197,233,7,203,831,7,

195,233,8,201,823,7,

195,231,9,201,816,7,

194,231,9,199,807,9,

193,230,8,199,799,9,

192,227,7,197,790,7,

191,226,7,196,783,7,

190,225,7,195,775,7,

189,224,7,194,768,7,

188,223,9,194,760,7,

188,222,7,193,755,7,

187,221,8,191,747,7,

185,219,7,191,739,7,

185,217,7,189,733,7,

184,217,7,189,728,7,

183,216,7,188,719,9,

182,215,7,187,713,7,

181,213,7,187,707,7,

180,213,7,184,702,7,

179,211,7,184,696,9,

179,210,7,184,689,7,

179,209,9,184,684,7,

177,208,7,305,679,7,

176,207,7,335,671,7,

176,206,7,384,668,8,

176,205,8,412,661,7,

175,205,7,408,655,8,

174,204,8,405,652,9,

173,203,9,441,847,9,

172,201,9,500,906,8,

171,199,8,495,911,9,

171,199,9,492,913,9,

169,199,7,487,907,8,

169,197,9,484,889,8,

167,199,9,480,877,9,

167,199,9,477,869,9,

167,201,9,473,859,9,

167,246,9,471,851,9,

166,257,9,467,841,9,

163,255,9,463,834,9,

163,253,8,460,824,9,

163,252,9,458,815,9,

162,249,9,455,807,9,

161,249,9,451,799,9,

160,247,9,449,791,9,

159,246,9,447,783,8,

159,245,9,443,775,9,

158,243,9,441,768,9,

157,242,9,437,760,9,

157,240,9,435,753,9,

156,239,9,432,745,9,

155,238,10,430,739,9,

155,236,9,427,733,9,

154,235,9,423,726,9,

153,233,9,422,719,9,

152,231,9,419,711,9,

152,231,9,415,707,9,

151,230,9,414,700,9,

151,229,10,411,693,9,

150,227,9,409,687,9,

149,226,9,407,681,8,

149,225,9,403,676,9,

147,224,9,402,670,9,

147,222,9,399,664,7,

147,221,9,398,659,9,

145,221,8,395,654,9,

145,220,9,391,649,8,

145,218,9,391,643,9,

143,216,9,387,638,9,

143,216,8,386,633,9,

143,215,9,384,628,8,

142,214,9,381,623,9,

141,211,7,379,617,9,

141,211,9,377,613,9,

140,210,7,375,609,8,

140,235,7,373,604,9,

139,233,8,371,600,8,

139,231,9,368,595,9,

137,231,8,366,591,7,

137,230,8,365,587,8,

137,228,7,363,582,7,

135,227,7,359,577,7,

135,225,7,359,574,8,

135,225,7,366,569,8,

134,224,7,364,566,9,

133,222,7,362,561,7,

132,221,7,359,558,7,

133,220,7,357,554,7,

131,219,7,355,550,7,

131,278,7,354,546,8,

131,276,7,352,543,7,

130,273,7,349,540,7,

129,271,7,348,535,7,

129,270,7,346,531,7,

128,268,7,344,528,7,

127,268,7,342,525,7,

127,265,7,341,521,7,

127,263,7,339,518,7,

125,263,7,337,515,7,

125,261,7,335,511,7,

125,259,7,334,507,7,

124,258,7,332,504,7,

124,257,7,330,500,9,

123,255,7,327,498,7,

123,254,7,327,494,7,

122,252,7,325,491,7,

121,251,7,323,487,7,

121,250,7,322,485,7,

120,248,7,319,482,7,

120,247,7,319,479,7,

120,246,7,317,476,7,

119,243,7,315,473,7,

119,243,7,313,471,7,

118,241,7,312,467,7,

118,240,7,311,465,7,

133,239,7,309,462,7,

132,238,7,307,459,7,

131,236,7,305,455,7,

130,235,7,304,454,7,

130,234,7,303,451,7,

129,231,7,301,448,7,

128,231,7,300,446,7,

127,231,7,298,443,7,

134,229,7,297,440,7,

155,228,7,295,438,7,

154,226,7,294,435,7,

153,225,7,292,432,7,

152,224,7,291,430,7,

151,224,7,289,428,7,

150,222,7,287,425,6,

150,221,7,287,423,7,

148,220,7,285,420,6,

190,219,7,284,419,7,

195,217,6,283,415,7,

193,279,7,281,414,7,

192,275,6,280,411,7,

190,274,6,278,409,7,

190,272,6,277,468,7,

188,271,7,276,463,6,

187,270,6,275,513,6,

186,267,7,273,510,6,

211,266,7,271,505,7,

212,263,6,271,501,6,

248,263,7,270,496,6,

271,261,6,268,494,7,

269,260,7,371,491,7,

267,259,7,481,487,7,

265,257,7,638,483,7,

263,255,6,709,480,7,

262,255,6,700,476,6,

259,252,6,695,472,6,

259,251,7,687,469,7,

281,255,6,681,467,6,

408,385,7,674,463,6,

435,422,6,668,460,6,

431,417,6,663,457,6,

428,415,6,657,637,7,

425,412,6,651,782,7,

422,409,7,645,770,6,

419,406,6,639,761,6,

487,404,6,636,753,7,

555,401,6,630,747,7,

550,398,6,624,739,6,

545,478,7,621,732,6,

540,573,6,615,724,6,

536,566,6,610,719,6,

531,561,7,605,711,6,

528,556,6,601,705,6,

523,551,6,596,697,6,

519,547,6,591,693,6,

515,543,7,587,686,6,

512,539,6,583,679,6,

508,535,6,579,673,6,

504,532,6,574,668,6,

500,527,6,569,663,6,

498,524,6,567,657,6,

494,519,6,562,651,6,

522,517,7,558,647,6,

563,513,6,555,641,7,

558,509,7,551,635,6,

553,505,6,547,631,6,

550,503,6,543,626,6,

545,499,6,540,621,7,

541,496,6,723,615,7,

537,492,6,737,610,7,

533,489,6,729,605,7,

529,486,7,721,601,7,

524,482,6,715,596,7,

521,479,7,709,591,6,

518,476,7,702,587,6,

514,473,7,696,583,7,

509,471,7,689,579,7,

556,467,7,684,574,7,

550,464,7,677,570,7,

545,462,6,671,566,6,

541,458,7,665,561,7,

537,455,7,660,557,7,

532,452,7,654,553,7,

528,451,7,649,551,7,

525,448,7,643,546,7,

521,445,7,639,542,6,

517,441,7,634,538,7,

513,439,7,628,535,7,

509,436,7,623,531,7,

505,433,7,619,527,7,

503,431,7,615,684,7,

499,429,7,609,711,7,

496,426,7,604,704,7,

492,423,7,600,696,7,

489,422,7,595,690,7,

486,419,7,591,684,7,

482,417,7,587,679,9,

595,414,7,623,671,9,

589,411,7,773,665,7,

583,409,7,764,659,7,

579,407,8,755,655,7,

574,404,7,747,647,9,

569,401,7,742,643,8,

564,400,8,734,636,7,

561,398,7,727,632,8,

556,395,8,719,626,9,

551,391,8,714,621,8,

548,391,9,707,615,7,

543,388,9,700,611,9,

540,386,8,694,606,9,

536,384,9,689,601,9,

532,382,9,683,597,9,

527,381,9,676,593,8,

524,378,9,670,588,9,

520,376,9,666,583,9,

517,374,9,660,578,7,

512,371,7,655,574,9,

509,369,9,648,570,9,

505,368,8,644,566,9,

503,365,8,639,561,9,

499,364,8,634,558,9,

496,361,9,628,554,8,

492,359,7,624,549,9,

489,358,9,619,544,9,

486,357,9,615,542,9,

482,354,8,609,538,9,

479,352,9,604,534,9,

476,350,9,600,529,9,

473,348,9,595,526,9,

470,347,9,591,523,9,

467,345,9,586,519,9,

463,343,9,583,515,9,

461,341,9,579,512,9,

459,343,9,574,509,10,

455,369,9,569,505,9,

452,366,8,565,501,9,

449,364,7,563,499,9,

446,361,8,558,495,9,

444,359,8,554,492,10,

441,357,9,550,487,9,

438,355,9,547,485,9,

435,353,9,543,482,9,

433,351,8,539,480,9,

430,349,9,536,476,9,

428,347,9,531,473,9,

425,344,9,529,470,9,

422,343,7,525,467,9,

421,340,8,521,463,9,

418,395,9,517,462,9,

415,441,8,515,459,9,

412,439,9,511,455,9,

410,435,8,508,453,9,

408,432,8,504,450,7,

406,428,8,501,447,8,

403,425,8,497,445,8,

400,423,7,494,442,9,

399,420,9,491,440,7,

396,417,7,489,436,8,

394,414,7,486,434,7,

391,412,7,482,432,9,

389,409,7,480,429,7,

387,407,9,476,426,8,

385,403,7,473,423,7,

382,401,7,471,422,9,

381,399,7,467,419,7,

379,397,8,465,415,7,

377,393,7,463,414,8,

375,391,7,460,412,8,

372,389,9,457,409,7,

371,387,7,455,408,7,

368,384,9,451,404,7,

366,382,7,449,403,7,

364,380,7,446,400,7,

362,377,7,443,399,7,

359,375,7,441,396,7,

358,373,7,439,393,7,

356,371,7,436,391,7,

355,369,7,433,390,7,

352,367,7,432,387,7,

350,365,7,429,385,7,

349,363,7,425,384,7,

347,359,7,423,381,7,

345,358,7,421,379,7,

344,355,7,418,376,7,

341,354,7,415,375,7,

339,352,7,414,373,7,

338,350,7,412,370,7,

335,348,7,409,368,7,

334,346,7,407,367,7,

332,344,7,405,365,7,

331,342,7,403,363,7,

329,340,7,400,361,7,

327,339,7,399,359,7,

326,337,7,396,358,7,

323,334,7,394,355,7,

322,332,7,391,354,7,

319,331,6,390,352,7,

319,329,7,387,350,7,

317,327,7,385,348,6,

316,326,6,384,346,7,

313,325,7,382,345,7,

312,323,7,379,343,7,

311,321,6,377,342,7,

310,319,7,376,339,7,

308,318,7,374,338,7,

306,316,6,371,336,6,

305,315,7,369,335,7,

304,313,7,368,333,7,

302,312,7,365,332,7,

300,311,7,364,329,7,

299,309,7,361,327,6,

297,306,7,359,326,7,

295,306,6,359,325,6,

295,304,7,356,323,6,

292,302,7,354,322,7,

291,300,6,353,319,7,

290,299,7,351,318,7,

289,299,6,349,317,6,

287,295,6,347,315,6,

286,295,7,345,313,6,

284,293,6,344,312,7,

283,292,7,343,312,7,

281,291,6,340,310,6,

280,289,7,339,307,6,

280,287,7,338,306,6,

278,286,6,335,305,7,

276,285,6,334,304,6,

275,284,7,332,302,6,

273,281,7,331,301,6,

271,281,6,329,299,6,

271,280,7,327,297,6,

270,278,6,326,295,6,

268,276,6,323,295,6,

267,275,6,323,293,6,

266,274,6,321,292,6,

265,273,6,319,291,6,

263,271,6,318,289,7,

262,270,6,317,287,6,

261,269,6,315,287,7,

259,268,6,313,286,6,

259,267,6,312,284,6,

257,265,6,310,283,7,

255,263,6,309,282,6,

254,263,5,307,280,5,

253,261,6,307,279,6,

253,259,7,305,277,6,

251,259,7,304,277,6,

250,258,6,302,275,7,

249,257,6,300,273,7,

248,255,6,299,272,6,

247,254,6,297,271,5,

245,253,6,295,270,5,

244,251,6,295,269,6,

243,250,6,293,268,7,

242,249,5,291,267,7,

240,248,6,290,265,6,

240,247,5,289,263,6,

239,246,6,287,263,6,

238,244,5,287,262,5,

236,243,6,285,260,6,

236,242,6,284,259,6,

235,241,6,283,257,5,

233,240,6,281,257,6,

231,239,6,281,255,5,

231,238,6,279,254,5,

230,237,6,278,253,5,

229,236,5,276,252,6,

228,235,6,275,251,6,

227,233,6,273,251,5,

226,231,5,273,249,6,

224,231,5,271,248,6,

224,230,6,270,247,5,

223,229,5,269,245,6,

222,227,6,268,244,6,

221,227,6,266,243,6,

219,226,5,265,242,6,

219,225,6,263,241,5,

218,224,6,263,240,5,

217,223,5,262,239,6,

217,222,5,260,238,6,

216,221,5,259,237,5,

214,220,5,259,236,6,

213,219,6,257,235,5,

211,219,6,255,234,5,

211,217,5,254,233,5,

210,216,5,253,231,5,

209,216,5,252,231,5,

207,214,5,252,230,5,

207,213,5,250,229,6,

207,212,5,249,227,5,

205,211,5,248,227,5,

205,210,6,248,226,5,

204,210,5,246,225,5,

203,207,5,244,224,6,

202,207,5,243,224,5,

201,207,5,243,222,6,

199,205,5,242,221,6,

199,205,6,240,220,6,

198,204,5,240,220,5,

198,202,5,239,217,5,

196,203,5,237,217,5,

196,201,5,237,216,5,

195,199,5,236,216,5,

194,199,5,234,215,5,

193,199,6,233,213,6,

193,197,5,231,213,6,

191,196,5,231,211,5,

191,195,5,230,211,6,

190,195,5,230,209,5,

189,194,5,228,209,5,

188,193,5,227,208,6,

188,192,5,226,207,5,

187,192,5,225,207,6,

186,191,5,224,205,5,

185,189,5,223,205,5,

184,189,5,223,204,6,

184,188,4,222,202,5,

183,188,6,220,202,5,

182,187,5,220,201,5,

181,185,4,219,199,5,

180,185,5,217,199,5,

179,184,5,216,198,5,

179,183,5,216,197,5,

177,182,5,216,197,5,

177,182,5,214,196,5,

176,181,5,213,195,5,

176,180,5,211,194,6,

174,179,5,211,194,5,

174,179,5,211,193,5,

173,177,5,210,192,5,

172,177,5,209,191,5,

172,176,6,207,190,5,

171,175,5,207,190,5,

170,175,5,207,189,4,

169,174,5,205,188,5,

169,173,5,204,187,5,

167,172,5,204,186,4,

167,172,5,203,186,5,

167,171,5,202,185,5,

166,170,5,201,184,5,

166,169,5,199,184,4,

164,168,4,199,183,5,

164,167,5,199,182,4,

163,167,5,198,181,5,

162,167,5,197,179,5,

162,166,5,196,179,5,

161,165,5,195,179,5,

160,165,5,195,179,5,

159,163,5,194,178,5,

159,163,5,193,176,5,

158,162,4,192,176,5,

157,161,5,192,175,5,

157,159,5,192,175,4,

157,159,5,190,174,5,

156,159,5,189,173,5,

155,158,5,188,173,5,

155,158,5,187,172,5,

155,158,5,187,171,5,

154,157,5,186,170,4,

152,156,5,185,169,4,

152,155,5,184,167,5,

151,154,5,184,167,4,

150,153,4,183,167,4,

149,153,5,182,167,4,

148,152,5,181,167,4,

148,152,4,180,165,5,

148,151,4,179,164,4,

147,150,5,179,164,4,

146,150,4,179,163,4,

146,149,6,178,163,5,

145,149,5,177,162,5,

145,148,5,176,161,3,

143,147,5,175,159,5,

143,146,5,175,159,4,

143,146,5,174,159,5,

142,145,4,174,159,5,

142,145,4,172,158,5,

141,144,4,172,158,5,

141,143,4,172,157,5,

140,143,5,171,156,4,

139,142,5,170,156,4,

139,142,5,169,155,5,

139,141,5,167,155,5,

138,140,4,167,153,4,

137,140,5,167,153,4,

135,139,4,167,153,5,

135,138,5,166,152,4,

135,138,5,165,152,5,

135,137,5,164,150,5,

134,137,4,163,150,4,

134,135,4,163,150,5,

133,135,5,163,148,5,

133,135,4,162,147,4,

131,135,5,161,147,5,

131,134,5,161,147,3,

131,133,4,159,146,5,

130,133,5,159,147,5,

130,133,5,159,145,4,

129,131,4,158,144,5,

129,131,5,158,143,4,

127,130,5,156,143,5,

127,130,4,157,142,4,

127,129,4,155,142,4,

126,129,5,155,142,4,

126,129,4,154,141,4,

125,127,4,153,141,5,

125,127,4,153,141,4,

124,127,4,153,139,4,

124,127,4,152,139,5,

124,126,4,152,138,4,

123,125,5,150,137,3,

123,124,5,150,137,4,

122,124,4,149,135,4,

122,123,5,149,135,4,

121,123,4,148,135,5,

120,123,4,148,135,4,

120,122,4,147,134,4,

120,121,4,146,134,4,

119,120,4,146,133,4,

118,120,4,145,133,4,

119,120,4,143,132,4,

117,119,4,144,131,4,

116,119,5,143,131,3,

116,118,3,143,131,4,

115,118,4,142,131,4,

115,117,5,141,130,5,

115,117,4,141,128,5,

115,116,4,140,129,5,

113,115,4,140,127,5,

113,115,5,139,127,4,

113,114,4,139,126,4,

113,114,4,138,126,4,

112,113,4,138,126,4,

112,113,3,137,126,4,

112,113,5,135,125,4,

111,113,5,135,124,5,

110,112,4,135,124,4,

110,112,5,135,123,4,

109,111,3,135,123,3,

108,111,4,134,122,4,

108,110,3,134,122,4,

108,110,4,133,121,4,

108,109,4,132,121,4,

107,109,5,131,120,4,

107,108,3,131,120,4,

107,109,4,131,120,4,

106,107,4,131,119,4,

105,107,4,130,118,5,

105,106,4,130,118,5,

103,106,4,129,118,4,

103,105,4,128,117,3,

103,105,4,127,117,4,

103,105,4,127,115,5,

103,103,4,127,116,4,

102,103,4,126,115,4,

102,103,4,126,115,5,

102,103,5,125,114,4,

101,103,4,124,113,4,

100,102,4,124,114,4,

99,102,5,124,113,4,

99,102,3,123,112,4,

99,101,4,123,112,4,

99,100,5,122,112,4,

99,100,4,122,111,3,

98,99,4,121,111,4,

98,99,4,121,111,3,

97,99,4,121,110,5,

97,98,3,120,109,5,

96,98,4,120,110,5,

96,97,4,120,109,3,

96,97,3,119,108,5,

96,97,4,119,108,4,

96,96,4,119,108,4,

94,96,4,117,107,4,

94,96,4,118,107,4,

94,96,4,117,106,4,

94,96,4,116,106,3,

93,94,4,115,105,5,

93,94,3,115,105,4,

93,94,3,133,105,4,

92,93,3,131,105,4,

92,93,4,131,103,3,

91,93,4,130,103,3,

91,93,3,129,103,4,

91,92,3,129,103,3,

90,92,4,127,103,3,

90,91,4,127,102,4,

89,91,5,127,102,3,

89,91,4,127,102,4,

89,90,4,126,101,4,

89,90,4,125,101,4,

88,89,4,125,101,4,

88,89,3,124,100,4,

88,89,4,123,100,3,

88,88,4,123,99,5,

87,88,3,122,99,4,

86,88,3,123,99,3,

87,88,4,121,99,4,

86,88,3,121,98,4,

86,87,4,121,97,3,

85,87,4,120,97,3,

85,87,4,120,97,4,

84,86,3,120,96,4,

84,85,3,119,97,3,

84,86,4,118,96,3,

83,86,4,117,96,3,

83,84,4,116,96,3,

83,85,3,116,94,3,

83,84,4,116,94,4,

82,83,3,115,94,4,

82,83,4,115,94,3,

82,83,3,115,93,4,

82,83,4,115,93,4,

81,83,3,115,93,3,

81,82,3,113,92,3,

80,81,4,114,93,4,

80,81,4,113,92,4,

80,81,4,113,92,4,

79,81,4,112,92,3,

79,81,3,112,91,3,

79,79,4,111,90,5,

79,79,4,111,90,4,

79,80,3,110,90,3,

78,79,3,110,90,5,

77,79,4,109,90,4,

78,79,4,110,89,3,

78,79,4,109,89,4,

78,78,4,108,88,3,

78,78,3,108,88,4,

77,78,5,108,88,4,

76,77,4,108,88,4,

76,77,3,107,87,4,

77,77,4,107,87,4,

76,76,3,107,86,4,

75,76,3,107,87,4,

75,77,3,106,86,3,

75,76,3,106,86,4,

74,76,5,104,85,3,

74,75,3,105,85,3,

73,75,4,103,85,4,

73,75,4,103,85,3,

73,74,4,103,84,3,

73,73,3,103,84,3,

73,74,4,103,83,3,

72,74,4,103,83,4,

72,73,3,102,83,3,

71,73,3,103,83,3,

71,73,3,102,82,4,

71,71,4,101,82,3,

71,71,3,101,82,4,

71,71,4,101,81,3,

71,71,4,101,81,3,

70,71,5,99,81,4,

70,71,3,99,81,5,

71,71,4,99,80,3,

70,71,3,99,80,4,

70,71,4,99,79,3,

69,71,4,99,79,3,

69,70,3,98,80,3,

69,69,4,97,79,3,

68,69,4,97,79,4,

69,69,4,96,79,4,

67,69,3,97,79,4,

68,69,5,97,78,4,

67,68,4,96,78,4,

67,68,3,95,78,3,

67,68,4,95,77,4,

67,67,3,95,77,3,

67,67,4,94,77,3,

67,67,3,94,77,3,

66,67,4,94,76,3,

66,66,4,93,76,3,

66,66,4,94,76,3,

66,66,4,93,75,4,

65,67,3,94,76,3,

66,66,4,92,76,3,

65,66,4,93,75,4,

64,65,3,92,74,4,

65,65,4,92,75,4,

63,65,4,92,74,3,

63,65,3,92,74,4,

63,65,4,91,73,4,

63,64,3,90,73,4,

64,63,3,90,73,3,

63,63,4,89,73,4,

63,63,4,90,73,3,

63,63,4,89,73,3,

62,63,3,89,72,4,

63,62,3,89,71,4,

62,63,4,88,71,3,

62,63,4,88,71,3,

62,62,4,89,71,4,

61,62,4,89,71,3,

62,62,3,88,71,3,

61,62,3,88,70,4,

60,61,3,87,71,3,

61,61,4,87,70,4,

60,61,3,87,69,3,

60,61,4,85,70,3,

60,60,5,85,69,3,

59,60,4,85,69,4,

60,60,4,85,69,3,

59,60,4,85,69,3,

60,60,4,84,68,4,

59,59,4,84,68,4,

59,59,3,84,68,3,

59,59,4,83,68,4,

59,59,3,83,68,4,

59,59,3,83,67,4,

58,58,3,83,67,3,

58,58,3,83,67,3,

57,58,3,82,67,3,

58,58,3,82,67,4,

57,57,4,82,66,4,

57,58,3,81,66,4,

57,57,4,82,65,4,

57,57,4,81,65,4,

56,57,4,81,65,3,

56,57,3,81,65,3,

56,57,4,80,65,3,

56,56,3,79,64,3,

56,56,4,79,65,4,

56,56,3,79,64,3,

56,56,3,79,64,4,

55,56,3,78,64,4,

55,56,4,79,63,3,

54,55,4,78,63,4,

55,55,3,78,63,3,

54,55,3,77,63,3,

54,54,3,77,63,3,

54,55,3,77,63,4,

54,54,3,78,62,4,

54,54,3,77,62,3,

53,53,4,76,62,4,

53,54,4,77,62,3,

52,53,4,76,62,4,

53,53,3,76,62,3,

52,53,3,75,62,3,

52,53,3,75,61,3,

52,53,3,76,61,3,

52,52,3,75,60,3,

51,52,4,74,60,4,

51,52,3,75,60,3,

51,51,3,74,60,3,

51,51,3,73,60,4,

51,51,4,73,60,4,

50,51,3,74,59,4,

50,51,4,73,59,3,

50,51,3,73,59,3,

50,51,4,72,58,3,

50,50,4,73,59,3,

50,50,4,71,58,3,

50,50,4,71,58,3,

49,50,4,71,58,3,

49,50,4,71,57,3,

49,50,3,71,58,3,

49,49,4,71,57,3,

48,50,4,71,57,3,

48,49,4,71,57,3,

49,49,3,71,57,3,

48,49,3,70,57,4,

48,49,4,70,57,3,

48,48,3,70,57,4,

48,48,3,69,56,4,

47,48,3,69,56,3,

48,48,3,70,56,4,

47,48,4,69,56,3,

48,48,4,69,56,3,

47,48,3,68,56,3,

46,47,3,68,55,3,

46,48,4,68,55,3,

46,47,4,68,55,3,

47,46,3,67,55,3,

46,46,4,67,55,3,

46,46,4,67,54,3,

46,46,3,67,54,3,

46,46,3,67,53,3,

45,45,4,67,54,3,

45,46,3,67,53,3,

45,45,3,66,53,4,

45,45,4,67,53,4,

45,45,3,66,53,4,

45,45,4,65,53,4,

45,45,3,66,53,4,

44,45,3,65,52,3,

44,44,3,65,53,4,

44,44,3,64,52,4,

44,44,4,64,51,3,

44,44,3,64,52,4,

44,44,4,64,51,3,

43,43,3,63,51,3,

43,44,4,63,51,4,

43,44,3,63,51,3,

43,43,4,63,51,3,

43,107,3,63,51,3,

43,117,3,62,50,4,

42,116,3,62,50,4,

42,115,3,62,50,4,

43,115,3,62,50,3,

43,114,3,62,50,4,

41,113,4,62,49,3,

41,112,3,61,49,3,

41,112,3,61,49,3,

41,112,3,60,49,4,

41,111,4,61,49,3,

41,111,4,60,49,3,

41,109,3,60,48,3,

41,110,4,60,48,4,

39,108,4,60,48,4,

39,109,4,59,48,4,

39,108,3,60,48,3,

39,107,3,60,48,3,

39,107,4,59,48,4,

39,107,3,59,48,3,

39,105,3,59,48,4,

39,105,3,58,47,4,

39,104,3,58,47,4,

39,103,4,58,47,4,

39,103,3,58,46,4,

39,103,3,57,46,3,

39,102,3,58,46,4,

39,102,4,57,46,3,

39,102,3,57,46,3,

39,102,3,56,45,3,

39,101,4,56,45,3,

39,100,3,57,45,3,

39,99,3,56,45,4,

39,99,4,56,45,3,

39,99,4,56,45,4,

39,99,3,56,45,3,

39,99,3,56,45,3,

39,98,3,55,44,3,

39,97,3,56,44,4,

38,97,3,55,44,3,

38,96,5,55,44,3,

38,97,5,55,43,3,

38,95,3,54,43,3,

38,96,4,54,44,3,

37,95,3,54,43,4,

37,95,4,54,44,3,

37,94,3,54,43,3,

37,93,3,53,43,3,

37,94,4,53,43,4,

37,93,4,53,43,3,

36,93,3,53,43,4,

36,92,3,53,43,4,

51,92,4,53,43,3,

55,91,4,52,43,3,

55,91,3,52,42,3,

55,90,4,52,42,4,

54,90,4,52,42,3,

54,90,3,52,41,4,

53,89,3,51,41,3,

53,89,3,51,41,4,

52,88,3,51,41,4,

53,88,4,51,41,4,

52,88,5,51,41,3,

51,88,3,51,39,3,

51,88,3,51,39,4,

52,87,3,51,41,4,

53,86,3,49,39,4,

53,86,3,51,39,4,

53,86,3,50,39,3,

52,85,3,50,39,4,

51,84,4,49,39,3,

51,84,3,49,39,3,

51,85,4,50,39,3,

51,83,3,49,39,4,

51,83,3,49,39,3,

51,83,4,49,39,3,

50,83,3,48,39,3,

50,83,3,48,39,4,

56,82,4,48,39,4,

60,82,4,48,38,3,

60,82,4,48,38,3,

60,82,3,48,38,4,

60,81,3,48,38,4,

59,81,4,47,38,4,

59,79,4,48,37,4,

59,79,4,47,37,3,

58,79,3,47,37,3,

58,79,3,47,38,3,

57,79,4,46,37,4,

57,79,3,47,37,4,

57,78,3,46,37,3,

57,78,3,46,36,4,

57,77,3,46,37,3,

56,77,4,46,36,3,

56,77,3,46,36,4,

56,77,3,45,36,3,

56,76,3,45,36,4,

56,76,3,45,36,4,

56,75,4,45,36,4,

55,76,4,44,36,3,

55,75,3,45,36,3,

54,75,4,44,35,4,

54,75,4,44,35,3,

53,74,3,45,36,3,

74,74,3,44,35,3,

73,73,5,44,35,4,

73,74,4,44,35,4,

71,73,3,44,35,3,

71,73,4,43,35,3,

71,73,4,44,35,3,

71,71,4,43,34,3,

71,71,3,43,34,4,

71,71,3,43,34,4,

71,71,3,43,34,3,

70,71,3,43,33,3,

69,71,4,43,34,3,

69,71,4,42,33,4,

70,70,4,43,33,3,

69,70,4,42,33,4,

69,69,4,41,34,3,

68,69,4,41,33,3,

68,69,3,42,33,4,

68,69,4,43,33,3,

67,68,3,42,33,3,

67,68,4,41,32,3,

67,67,3,41,33,4,

66,68,3,41,32,3,

66,67,4,41,31,4,

66,67,3,41,32,4,

65,66,3,39,32,4,

65,66,3,41,32,3,

65,65,3,39,31,3,

66,66,4,39,31,3,

65,65,3,39,32,3,

65,65,3,39,31,4,

65,65,4,39,31,3,

64,63,4,39,31,4,

63,64,3,39,31,4,

63,63,4,39,31,3,

63,63,4,39,31,3,

63,63,3,39,31,4,

63,63,3,39,31,3,

62,63,4,39,31,4,

63,63,3,39,30,4,

63,62,3,39,31,4,

63,62,4,38,30,3,

62,62,4,38,30,3,

63,62,4,39,31,3,

62,62,3,38,30,3,

62,61,3,37,30,4,

62,61,3,38,29,3,

62,61,4,38,30,3,

61,60,3,37,30,3,

61,60,4,37,29,3,

60,61,3,37,30,4,

61,60,3,37,29,3,

87,60,4,37,29,4,

154,59,3,37,29,4,

153,59,3,37,29,4,

152,59,3,37,29,3,

151,59,4,36,29,3,

150,58,3,36,29,3,

149,58,3,36,28,4,

149,58,4,37,29,4,

147,57,3,35,28,4,

147,57,4,35,29,3,

147,57,3,35,29,3,

145,57,4,36,28,3,

145,56,3,36,28,3,

144,56,4,35,28,3,

143,56,3,35,28,4,

142,56,3,35,28,3,

142,56,4,35,28,4,

142,56,3,35,28,3,

141,55,3,35,27,4,

140,54,4,35,27,3,

140,55,3,35,27,4,

139,54,3,34,28,4,

138,55,3,34,27,4,

137,53,3,34,26,4,

137,54,4,34,27,3,

136,54,4,34,27,4,

135,53,4,33,27,3,

135,54,3,33,26,4,

134,54,3,34,26,3,

134,52,3,33,26,3,

134,51,3,33,26,3,

132,52,3,34,25,3,

133,51,3,33,25,3,

131,51,3,33,26,4,

131,51,3,31,26,4,

130,51,4,33,26,3,

130,51,3,32,25,4,

129,51,4,32,26,3,

128,50,4,31,25,4,

128,51,3,32,25,4,

127,50,3,33,25,3,

127,50,3,31,25,3,

126,50,3,31,25,3,

125,49,3,31,25,3,

125,49,3,31,25,3,

124,49,3,31,24,3,

124,49,4,31,24,4,

123,49,3,31,24,3,

123,48,4,31,24,4,

123,48,3,31,24,4,

123,48,3,31,24,3,

121,48,4,30,24,4,

121,48,4,30,24,3,

120,47,3,30,24,3,

120,47,3,30,24,4,

119,47,3,30,24,3,

119,47,3,30,24,4,

118,47,4,30,24,4,

118,46,4,29,24,3,

117,46,4,29,24,4,

117,45,4,29,24,3,

115,46,3,29,23,3,

115,45,4,29,23,3,

115,46,3,30,23,3,

115,45,3,30,23,3,

114,45,3,30,24,3,

114,45,3,29,23,3,

113,45,4,29,22,4,

113,44,4,29,22,4,

112,44,3,28,23,4,

112,44,3,28,23,3,

111,44,3,29,22,4,

111,44,3,28,22,3,

110,44,3,28,22,4,

110,43,3,28,22,3,

109,43,4,28,22,3,

109,44,3,28,22,4,

109,43,3,28,22,3,

108,43,3,28,22,3,

108,42,4,28,21,3,

107,42,3,27,21,4,

106,43,4,27,22,4,

106,41,3,28,21,3,

106,42,4,27,21,4,

105,42,3,27,21,3,

105,42,4,27,21,3,

105,41,4,27,22,3,

103,41,4,27,21,4,

103,41,3,26,21,3,

103,41,3,26,21,3,

103,41,3,26,21,3,

102,41,3,27,21,4,

102,39,3,25,20,4,

102,39,4,25,20,4,

101,39,3,25,20,4,

100,39,4,25,20,4,

99,39,3,25,20,3,

100,39,3,25,21,4,

99,39,3,25,20,4,

99,39,3,26,21,3,

98,39,4,25,19,3,

98,39,3,25,19,3,

97,38,3,25,20,3,

97,39,3,25,19,4,

96,38,4,26,19,3,

96,38,3,25,19,3,

96,38,3,24,19,4,

95,39,3,25,19,3,

96,38,3,24,19,4,

95,38,3,25,19,3,

95,38,3,24,20,3,

94,37,3,25,19,3,

94,37,4,24,19,3,

94,37,3,25,19,3,

93,37,3,24,19,4,

93,37,3,24,18,4,

93,37,3,24,19,3,

92,36,3,24,18,4,

92,37,3,24,19,3,

91,36,3,23,18,4,

91,36,4,24,18,4,

91,35,4,24,19,4,

90,35,3,24,19,3,

90,35,3,24,18,4,

90,35,3,23,18,3,

89,35,3,23,18,3,

89,36,3,23,17,4,

88,35,3,23,18,4,

88,35,3,23,18,4,

88,35,3,23,17,3,

88,35,3,23,18,4,

87,34,4,22,18,3,

87,34,4,22,18,3,

86,35,4,22,17,3,

86,35,4,22,17,3,

85,34,3,22,18,3,

85,34,4,23,17,3,

85,33,3,22,18,4,

85,34,4,23,17,3,

84,34,5,22,17,4,

84,34,4,21,17,3,

83,33,4,22,17,3,

83,34,4,21,17,3,

83,33,3,22,17,3,

83,33,3,21,16,3,

82,33,3,21,17,3,

82,33,4,21,16,4,

82,32,3,21,17,3,

81,33,3,21,16,3,

81,33,3,21,17,4,

81,31,3,20,16,4,

80,31,4,21,16,3,

81,31,3,21,17,4,

79,32,3,21,16,3,

79,31,3,20,15,4,

79,31,3,21,16,4,

79,31,3,20,15,3,

79,31,3,21,16,4,

78,31,3,20,16,3,

78,31,3,21,15,4,

78,31,3,20,16,3,

77,31,3,19,16,4,

77,30,4,19,16,4,

77,30,3,19,15,4,

76,30,3,19,16,3,

76,30,4,20,15,4,

76,30,4,20,15,3,

76,31,3,19,15,3,

76,30,3,19,15,3,

75,30,3,19,15,3,

74,30,3,19,15,3,

74,30,3,19,15,3,

74,29,3,19,15,3,

73,30,4,19,15,4,

74,29,3,19,15,3,

73,30,4,19,15,3,

73,29,4,19,15,3,

72,29,3,18,15,3,

72,29,3,19,14,4,

71,29,3,19,15,4,

71,28,3,18,15,4,

71,29,4,18,15,4,

71,29,3,19,14,3,

71,29,3,18,14,3,

71,28,3,19,15,4,

71,28,4,19,15,4,

70,28,4,19,15,3,

70,27,4,17,14,4,

70,28,3,18,14,3,

70,27,3,17,14,3,

69,28,3,18,14,4,

68,28,4,17,14,4,

69,28,4,18,14,3,

68,27,4,18,13,3,

67,27,4,17,14,3,

68,27,3,18,14,3,

67,27,3,18,14,3,

67,27,4,17,14,3,

67,27,4,18,13,4,

66,27,4,17,13,3,

66,26,3,17,14,4,

66,26,3,17,14,4,

66,26,3,17,13,4,

65,26,3,17,13,3,

66,27,3,17,14,4,

65,25,4,17,13,3,

64,27,3,17,13,3,

64,26,3,17,13,4,

64,26,3,16,13,4,

63,26,3,16,13,3,

63,26,4,16,13,3,

63,25,4,17,13,3,

63,25,4,17,12,3,

63,25,3,17,13,4,

63,25,4,16,13,3,

63,24,3,16,13,3,

62,25,3,16,13,4,

62,25,4,16,13,4,

63,24,3,16,13,3,

62,24,4,17,12,3,

61,25,3,15,12,4,

62,25,3,16,12,3,

61,24,3,15,13,3,

60,24,3,15,12,4,

61,24,3,15,13,4,

60,24,3,16,13,5,

60,24,3,15,12,4,

60,24,3,15,12,3,

59,24,3,15,12,4,

59,24,3,15,12,4,

59,24,3,15,11,4,

59,24,3,15,12,3,

59,24,3,15,11,3,

57,24,3,15,12,4,

58,24,5,15,12,4,

57,24,4,15,12,3,

57,24,3,15,12,3,

57,22,4,15,12,3,

57,22,3,14,12,3,

57,23,4,15,11,3,

57,23,4,14,12,3,

56,22,4,14,12,4,

56,22,3,14,11,4,

56,23,3,15,12,4,

71,22,3,15,12,3,

71,22,3,15,11,3,

71,22,3,15,11,3,

71,22,3,15,11,3,

71,22,3,14,11,3,

70,21,3,14,11,4,

70,22,4,14,11,4,

70,21,4,14,11,3,

69,21,3,14,11,3,

69,22,4,14,11,4,

69,21,3,14,11,3,

69,22,3,14,11,3,

68,21,3,14,11,3,

68,21,3,14,11,3,

67,21,3,13,11,3,

67,20,3,14,11,3,

67,21,3,14,11,3,

67,21,3,13,10,3,

66,21,3,14,11,4,

67,20,3,13,10,3,

66,20,3,13,10,3,

65,20,3,13,10,3,

66,21,4,13,11,4,

65,20,3,14,11,3,

65,20,3,13,10,4,

63,20,3,14,10,3,

63,20,3,13,10,3,

63,20,3,13,11,3,

63,20,3,13,10,3,

63,20,3,13,10,4,

63,19,3,13,10,3,

63,19,4,13,10,3,

63,19,3,13,11,3,

62,19,4,13,10,3,

62,19,3,13,11,3,

61,19,3,13,10,3,

61,19,4,13,10,3,

61,19,3,13,10,3,

61,18,4,12,10,3,

61,18,3,13,9,4,

66,19,3,12,10,3,

66,19,3,12,9,3,

65,19,3,13,10,3,

66,19,3,12,10,3,

65,19,3,12,9,4,

64,18,3,12,10,3,

64,18,4,13,10,4,

63,18,3,12,10,4,

63,18,3,12,10,3,

63,18,3,12,9,3,

63,18,3,12,10,4,

63,18,3,12,9,4,

63,18,3,12,9,5,

62,18,4,12,9,3,

63,18,3,12,9,3,

63,18,4,12,10,3,

62,18,3,12,9,4,

61,18,4,11,9,3,

61,17,3,12,9,3,

61,18,3,12,9,3,

60,17,3,12,9,3,

61,17,3,12,9,4,

60,17,4,12,8,3,

60,18,4,11,9,4,

60,17,4,11,9,4,

60,17,3,12,9,3,

79,17,3,11,9,4,

89,17,4,11,9,3,

88,16,3,11,9,3,

88,17,3,11,9,3,

88,16,3,11,8,3,

87,17,3,11,9,4,

86,16,3,11,8,3,

86,16,4,11,9,3,

85,16,4,11,9,3,

85,16,3,11,9,3,

85,16,3,11,9,3,

84,16,3,11,7,3,

83,16,4,11,8,3,

83,15,3,10,7,3,

83,16,4,10,9,3,

83,15,3,11,9,3,

82,15,3,10,7,3,

82,15,3,10,7,3,

82,15,3,10,8,3,

81,16,3,10,7,3,

81,15,3,10,7,3,

81,15,3,11,7,4,

79,15,3,10,7,3,

80,15,4,11,7,3,

79,15,3,11,9,3,

80,15,3,10,7,4,

79,15,3,10,7,3,

78,15,4,9,7,3,

78,15,3,11,9,3,

78,15,3,10,7,3,

78,15,4,9,7,4,

78,15,3,9,7,3,

77,14,3,10,9,3,

77,14,3,9,7,3,

76,14,3,11,7,3,

76,14,3,10,7,3,

76,14,3,10,7,3,

75,15,3,10,7,3,

75,14,3,9,7,3,

75,15,4,9,7,3,

75,14,3,10,7,3,

75,14,3,10,7,3,

74,14,3,10,7,4,

73,14,3,9,7,3,

74,14,3,10,7,4,

73,14,3,10,7,3,

73,14,3,9,7,3,

72,14,3,9,7,4,

72,14,3,9,7,3,

71,14,3,9,7,3,

71,14,3,9,7,3,

71,13,4,9,7,4,

71,14,3,9,7,3,

71,13,4,9,7,3,

70,14,4,9,7,3,

71,13,3,9,7,3,

70,14,3,9,7,3,

70,14,3,9,7,3,

69,14,3,9,7,3,

70,13,3,9,7,3,

69,13,3,9,7,3,

70,13,4,9,7,3,

69,13,3,9,7,3,

68,13,3,9,7,4,

67,13,3,9,7,3,

68,13,3,9,7,4,

68,13,4,9,7,3,

67,13,3,9,7,3,

67,14,4,10,7,3,

67,12,3,11,6,3,

67,13,3,10,7,3,

73,12,3,10,7,3,

73,12,3,10,7,3,

73,12,3,11,7,3,

71,12,3,10,7,3,

71,12,3,11,7,3,

71,12,3,10,7,4,

71,12,3,10,7,3,

71,12,3,9,7,3,

70,12,3,10,7,3,

71,12,3,10,7,3,

70,12,3,9,6,3,

70,12,3,9,6,3,

70,12,3,11,7,3,

69,12,3,10,7,3,

69,12,3,10,6,3,

68,12,3,10,6,3,

68,12,3,11,7,3,

68,12,3,9,6,3,

68,12,3,9,7,3,

67,12,3,10,6,3,

67,12,3,9,6,3,

67,12,3,9,6,3,

67,11,3,9,6,3,

67,11,3,9,7,3,

66,12,3,9,7,3,

66,12,3,9,7,3,

66,11,3,9,7,3,

65,11,3,9,7,3,

65,11,3,9,6,3,

65,11,3,9,6,3,

64,11,3,9,7,3,

65,11,3,10,7,3,

64,12,3,9,6,3,

64,11,3,9,7,3,

63,11,3,9,7,3,

63,11,3,9,6,3,

63,11,3,9,7,3,

63,11,3,9,7,3,

62,10,3,9,7,3,

63,11,3,9,6,3,

62,11,4,9,7,3,

62,10,3,8,6,3,

62,11,3,9,6,4,

62,11,3,9,7,4,

61,11,3,8,7,3,

61,10,4,9,6,3,

60,10,3,9,6,3,

61,11,3,9,6,3,

60,11,3,8,6,3,

61,11,4,7,6,3,

60,11,3,8,7,3,

60,10,3,7,6,3,

60,10,4,9,6,3,

59,11,3,9,6,3,

59,11,3,9,6,3,

59,11,3,8,6,3,

59,10,3,8,6,3,

58,11,3,8,6,4,

57,9,3,9,6,3,

57,9,4,8,6,3,

58,10,3,7,6,3,

57,9,4,8,5,3,

57,9,3,7,6,3,

57,9,3,7,6,3,

57,9,3,7,6,3,

57,9,3,7,5,3,

56,10,3,7,6,3,

56,9,3,7,5,3,

56,9,3,7,6,3,

56,10,3,7,6,3,

56,10,3,7,6,3,

56,10,3,7,6,3,

55,10,3,7,6,3,

69,9,3,7,6,3,

103,9,3,7,6,3,

103,10,3,7,5,3,

102,9,3,7,5,3,

101,9,3,7,5,3,

99,9,3,7,6,3,

99,9,3,7,6,3,

99,9,3,7,6,2,

99,9,3,7,6,3,

99,9,3,7,6,3,

98,9,3,7,6,3,

98,9,3,7,5,3,

97,9,3,7,6,3,

97,9,3,7,5,3,

97,9,3,7,5,3,

96,9,3,7,5,3,

96,9,3,7,6,3,

96,8,3,7,6,3,

95,9,3,7,5,3,

94,9,3,7,5,3,

94,9,3,7,5,3,

94,9,3,7,6,3,

94,9,3,7,6,3,

94,9,3,7,5,3,

92,7,3,7,6,3,

93,8,3,7,5,3,

93,8,2,7,5,3,

92,7,3,7,6,3,

92,7,3,7,5,3,

92,9,3,7,5,3,

91,9,3,7,5,3,

