
62,29,4,33,27,3,

61,29,3,32,26,4,

62,30,4,33,25,4,

62,30,4,33,25,4,

61,29,3,31,26,3,

60,29,4,33,25,3,

60,29,4,32,25,3,

60,29,3,32,25,4,

60,29,3,31,25,3,

59,28,3,31,25,3,

60,29,4,31,25,4,

59,28,3,31,24,3,

59,28,3,31,25,3,

59,28,3,31,25,4,

59,29,4,31,25,4,

58,28,3,31,25,3,

59,29,3,31,24,3,

58,28,3,30,24,3,

58,28,3,31,24,4,

57,27,4,30,24,3,

57,28,4,31,24,4,

57,27,4,30,24,3,

57,27,3,30,24,3,

57,27,3,30,24,3,

56,27,4,30,24,4,

57,26,3,29,24,3,

56,27,5,30,23,4,

56,26,4,29,23,3,

55,27,3,29,23,4,

55,26,3,29,23,3,

55,26,4,30,23,4,

54,25,4,28,22,3,

55,27,3,29,22,3,

54,25,4,28,22,3,

54,25,4,28,22,3,

53,25,3,28,22,4,

53,25,4,28,23,4,

53,25,3,28,22,3,

52,25,4,28,22,4,

53,26,3,28,22,3,

53,24,3,28,49,3,

52,25,3,28,60,4,

52,25,3,27,60,4,

51,25,4,28,60,4,

51,25,3,28,59,3,

51,24,4,57,59,3,

51,25,3,60,58,3,

51,24,4,59,58,4,

50,24,3,59,58,3,

51,24,3,59,58,4,

51,23,3,59,57,3,

49,24,3,58,57,3,

50,23,4,59,57,3,

50,23,4,57,57,4,

105,27,4,58,56,3,

119,28,3,57,56,3,

118,28,3,57,56,4,

116,28,4,56,56,4,

116,28,4,56,55,4,

115,28,3,56,55,3,

115,28,4,56,54,4,

114,28,3,55,54,4,

114,27,3,55,54,4,

113,27,3,55,54,4,

113,28,3,54,53,3,

112,27,3,54,53,4,

112,27,5,54,53,3,

111,26,3,54,52,4,

110,27,3,53,52,4,

111,27,4,53,52,3,

109,26,3,53,52,3,

110,26,3,53,52,4,

109,26,4,52,51,4,

108,26,4,52,51,3,

108,25,4,52,51,4,

107,26,5,52,50,3,

106,26,4,51,50,4,

106,25,3,51,50,4,

105,25,3,51,50,3,

105,27,3,51,50,3,

103,28,3,50,49,4,

103,27,3,50,49,4,

103,27,3,50,49,4,

103,27,3,50,48,3,

103,27,3,49,48,4,

102,26,3,49,48,3,

102,26,3,49,49,4,

102,27,4,49,48,4,

101,26,4,49,47,3,

100,27,4,48,47,4,

100,26,4,49,88,3,

99,26,3,49,88,3,

99,26,3,49,88,4,

98,26,4,48,87,3,

98,25,3,48,87,4,

98,25,3,48,86,3,

97,25,3,48,86,4,

97,25,3,47,85,3,

97,25,3,48,84,3,

96,25,4,48,84,3,

96,25,3,46,83,4,

96,25,3,46,83,3,

95,25,3,47,83,3,

94,24,4,46,82,4,

94,24,4,46,82,3,

94,25,3,46,82,4,

93,25,4,46,82,4,

93,24,3,46,81,3,

92,24,3,45,81,3,

92,24,3,45,80,4,

93,24,3,45,79,3,

92,24,3,45,79,3,

91,24,4,45,79,4,

91,24,3,44,78,3,

90,24,3,44,79,3,

89,23,4,44,78,4,

90,24,4,44,78,3,

89,23,3,44,77,4,

89,23,4,44,78,4,

88,23,3,43,77,4,

89,22,3,43,77,4,

88,23,4,43,76,4,

87,23,3,43,76,3,

88,23,5,43,75,4,

86,23,3,43,76,3,

86,22,4,42,75,4,

85,22,3,43,75,4,

85,22,4,41,74,3,

85,22,4,41,74,4,

85,22,4,42,74,4,

85,22,3,42,73,4,

87,28,4,41,73,3,

88,29,3,41,72,4,

88,30,4,41,71,3,

87,29,4,39,71,3,

87,28,4,41,71,3,

86,29,4,39,71,4,

85,28,4,39,71,3,

85,29,4,39,71,3,

85,27,3,39,71,4,

85,28,3,39,70,3,

84,28,4,39,69,3,

84,28,4,39,70,3,

83,28,3,39,69,4,

83,28,5,42,69,4,

83,27,4,63,69,3,

83,28,5,63,68,3,

82,28,3,63,68,4,

82,27,4,62,67,3,

81,26,4,62,67,3,

82,26,3,62,67,4,

81,27,3,62,67,3,

81,26,3,61,66,3,

79,27,3,61,67,3,

79,27,4,61,66,3,

79,25,4,61,65,3,

79,26,3,60,66,3,

79,25,4,60,65,4,

79,26,4,59,65,4,

78,26,3,59,65,4,

78,25,4,59,65,4,

78,25,3,58,64,3,

77,25,4,59,64,3,

77,25,3,58,64,3,

77,25,3,58,63,3,

77,25,3,57,63,3,

75,24,4,57,63,4,

76,25,3,57,63,4,

75,24,3,57,63,4,

75,24,3,57,62,3,

75,24,4,56,62,4,

75,24,4,56,63,4,

74,24,3,56,62,3,

74,24,4,56,61,3,

73,24,3,56,61,4,

73,24,4,55,60,3,

73,24,3,55,60,4,

72,24,3,55,60,4,

71,24,4,55,60,3,

71,24,4,54,60,4,

71,23,3,54,59,4,

71,23,4,54,59,3,

71,23,3,53,59,5,

97,24,3,53,59,4,

99,25,3,53,59,4,

99,24,4,52,58,3,

97,25,4,53,58,4,

97,24,3,52,58,3,

96,25,3,52,57,4,

96,24,4,53,57,4,

95,23,3,51,57,5,

95,24,3,51,56,4,

95,24,3,51,56,3,

94,24,4,51,56,4,

94,24,3,50,56,4,

93,23,3,50,56,3,

99,26,3,51,56,3,

103,26,3,50,56,4,

103,27,5,50,55,4,

103,25,3,49,55,4,

103,25,3,49,54,3,

101,26,4,49,54,4,

102,26,4,49,54,3,

99,26,3,48,53,3,

100,25,4,48,53,3,

99,25,4,48,53,3,

99,25,4,48,53,4,

98,25,3,60,54,4,

98,25,3,102,53,3,

98,25,4,101,52,4,

98,24,4,99,52,3,

96,24,3,99,52,3,

96,24,3,98,51,3,

96,24,4,98,52,4,

96,24,3,98,52,4,

96,25,3,97,51,3,

95,24,3,97,51,4,

94,24,4,97,51,5,

94,24,3,96,51,4,

94,24,4,95,50,3,

93,23,3,96,89,4,

93,24,3,95,151,4,

92,24,4,95,162,3,

92,24,4,94,161,3,

92,23,4,93,159,4,

91,23,3,92,159,3,

91,23,3,92,158,3,

90,23,3,92,157,3,

90,22,3,92,156,3,

90,23,4,91,155,3,

89,23,4,91,155,3,

89,22,3,90,154,3,

88,22,3,89,154,3,

88,22,4,89,152,3,

88,23,3,89,152,3,

87,22,3,89,152,3,

86,22,4,89,150,4,

87,23,3,88,150,3,

86,22,4,88,149,4,

86,23,3,88,162,4,

85,22,4,87,220,4,

85,21,4,87,224,4,

83,22,5,87,222,3,

83,21,3,86,221,4,

83,22,4,86,220,4,

83,21,4,131,218,4,

83,21,4,130,218,5,

84,37,4,130,216,4,

84,37,3,129,215,4,

83,36,3,128,213,3,

83,36,4,127,212,3,

83,36,3,127,211,3,

82,35,3,126,210,3,

81,35,3,126,210,3,

81,36,4,125,207,4,

81,35,3,125,207,4,

80,35,4,123,206,4,

79,34,3,124,205,3,

79,34,4,123,204,3,

79,35,3,122,203,3,

79,34,3,122,202,4,

78,34,3,121,201,3,

79,35,3,121,199,4,

78,33,4,120,199,3,

78,33,3,120,198,3,

77,33,3,119,197,3,

77,34,3,118,197,3,

76,33,3,118,195,4,

76,33,4,118,194,3,

76,33,3,117,193,5,

76,31,4,117,193,3,

113,54,4,115,191,3,

114,53,4,115,191,3,

113,52,4,115,190,3,

113,52,3,113,188,3,

112,51,4,113,188,4,

111,51,3,113,187,4,

111,51,4,112,186,4,

110,51,4,112,185,3,

110,50,5,111,184,4,

109,50,3,110,184,3,

126,92,4,110,182,4,

127,91,3,110,182,4,

126,90,3,109,180,3,

125,89,4,108,179,4,

124,89,3,108,179,4,

124,88,4,108,177,3,

124,88,4,107,177,3,

123,88,4,107,177,4,

122,87,4,106,176,4,

121,86,4,106,175,3,

121,87,4,105,174,4,

120,87,4,104,173,4,

120,85,4,103,173,4,

120,85,4,103,172,5,

119,84,4,103,171,4,

118,83,3,103,170,3,

117,83,4,102,170,4,

117,83,4,102,167,4,

116,82,3,102,167,3,

116,83,5,101,167,3,

115,82,4,100,166,3,

115,81,3,100,165,4,

114,81,4,100,164,4,

114,81,4,99,164,4,

114,80,4,99,165,4,

113,81,4,98,164,5,

112,79,4,97,163,4,

112,79,5,97,163,4,

111,79,4,97,162,4,

110,78,4,96,161,3,

110,78,4,96,161,4,

110,78,4,96,159,3,

109,77,3,95,159,4,

108,77,4,95,158,4,

108,77,4,94,158,5,

108,81,5,95,158,4,

107,157,5,93,156,4,

106,156,4,94,184,4,

105,155,5,92,310,4,

105,153,4,92,348,4,

105,152,5,92,345,4,

103,151,4,92,342,3,

103,150,4,91,341,4,

103,149,5,90,338,4,

102,149,3,90,335,4,

102,147,4,89,334,5,

102,147,4,89,332,4,

101,147,4,89,330,4,

101,145,4,88,327,4,

101,145,4,88,327,4,

99,145,4,88,324,5,

99,143,4,87,322,5,

98,143,4,87,320,4,

99,142,4,86,319,4,

99,142,5,86,317,4,

97,141,5,85,316,4,

97,140,4,86,313,3,

96,139,3,85,312,3,

96,138,4,84,311,3,

96,137,5,84,309,4,

96,137,3,83,307,3,

95,135,5,83,307,4,

95,135,4,83,304,3,

93,135,3,83,303,3,

93,135,4,82,301,4,

93,135,4,82,300,3,

92,133,4,81,298,5,

92,133,4,81,297,4,

92,133,4,81,295,4,

91,132,4,81,294,4,

91,131,4,81,292,4,

91,130,4,80,291,5,

90,130,4,79,289,4,

90,129,5,79,287,5,

89,128,4,79,286,3,

89,129,4,78,285,3,

89,127,4,78,284,4,

88,127,5,78,283,5,

88,126,4,77,281,3,

88,126,4,77,280,4,

87,125,4,77,279,4,

86,124,4,77,278,4,

86,124,4,76,276,4,

85,124,4,76,274,4,

85,123,5,75,273,5,

85,122,4,75,271,4,

84,121,4,75,271,4,

84,121,4,75,270,4,

83,121,4,74,268,4,

83,120,5,74,267,4,

83,120,5,74,265,4,

83,125,3,73,263,4,

83,184,5,73,263,4,

82,190,4,106,262,4,

81,187,5,105,260,5,

81,187,4,104,259,5,

81,186,5,103,308,4,

80,184,5,103,306,5,

79,184,4,102,304,4,

79,182,4,102,302,3,

79,181,5,101,300,5,

79,180,5,101,299,4,

79,179,4,100,297,4,

79,178,5,100,295,4,

79,178,4,99,294,5,

77,176,4,99,291,4,

77,176,5,98,291,4,

77,175,4,98,289,4,

76,174,5,98,287,5,

76,174,4,97,286,5,

77,172,4,97,285,4,

75,172,4,96,305,4,

76,171,4,96,303,4,

75,170,5,96,302,4,

74,169,4,95,300,4,

74,167,4,94,298,5,

73,167,4,94,297,5,

73,167,4,93,295,4,

73,166,4,93,294,4,

73,165,4,93,292,4,

71,164,5,92,290,5,

73,163,3,92,289,5,

71,163,4,92,287,4,

71,162,5,91,286,5,

71,161,5,91,285,5,

71,161,4,120,283,4,

71,159,4,120,281,5,

71,159,5,119,280,5,

70,158,5,118,279,4,

69,158,5,118,277,5,

70,157,5,117,275,5,

69,156,5,116,275,4,

69,155,5,115,273,5,

68,154,4,115,271,5,

68,153,4,115,270,4,

68,153,4,113,269,5,

67,152,5,113,268,5,

67,152,4,112,266,4,

67,151,4,112,263,4,

66,151,4,112,263,5,

66,150,5,111,262,5,

66,150,5,110,260,5,

66,148,5,111,259,5,

65,148,5,110,258,5,

64,147,6,109,257,5,

65,147,5,108,255,5,

65,146,5,108,254,4,

64,145,6,107,253,5,

63,145,6,107,251,5,

63,143,6,106,251,5,

63,195,5,106,258,5,

63,201,5,106,258,5,

62,199,6,105,257,5,

62,199,5,105,255,5,

62,197,5,103,253,5,

61,195,5,103,252,6,

61,195,6,103,251,5,

61,193,5,102,249,5,

60,192,6,101,248,5,

127,192,5,103,248,6,

161,190,5,111,246,6,

159,189,5,111,245,5,

158,188,6,110,243,6,

157,187,5,109,242,6,

157,187,5,109,241,5,

155,185,5,108,239,6,

155,184,5,108,238,5,

154,184,5,107,238,5,

153,182,5,106,236,5,

152,181,5,106,235,5,

151,180,6,105,233,5,

150,181,5,105,231,6,

149,180,6,103,231,5,

148,179,5,103,230,5,

148,177,5,103,229,6,

147,177,5,103,227,5,

146,176,5,102,227,5,

145,175,6,101,226,5,

144,174,5,101,225,5,

143,173,5,101,224,5,

143,172,5,99,222,5,

143,171,5,139,222,5,

141,171,5,137,220,5,

141,169,5,137,220,6,

140,168,6,137,219,5,

140,167,5,140,223,5,

140,167,5,139,221,5,

138,167,5,138,221,5,

138,166,6,137,220,5,

137,164,6,135,218,5,

135,164,4,135,217,5,

135,163,5,135,216,5,

135,209,5,134,216,5,

134,207,5,134,214,4,

133,205,6,132,213,6,

133,204,5,131,212,6,

132,203,5,131,211,4,

131,203,5,131,211,5,

131,199,5,130,209,5,

130,199,5,129,207,5,

129,199,5,129,207,6,

129,197,5,127,206,5,

127,196,5,127,205,5,

127,195,5,126,204,6,

127,195,6,160,242,5,

126,193,5,158,240,5,

126,192,6,157,238,6,

125,191,5,156,237,5,

124,190,6,156,236,5,

123,189,5,155,235,6,

123,188,5,154,233,5,

123,187,6,153,231,5,

122,186,5,152,230,5,

121,184,5,151,229,5,

121,184,5,151,228,6,

120,183,5,149,226,5,

119,182,5,148,225,5,

118,181,5,147,224,5,

118,179,5,146,223,5,

117,179,6,146,222,5,

117,178,5,146,221,5,

116,177,4,145,219,6,

115,176,5,144,218,5,

115,175,5,143,217,4,

114,174,5,143,216,5,

114,173,5,142,215,5,

114,172,4,142,214,5,

113,172,5,140,213,5,

112,171,5,140,211,4,

112,170,5,139,210,5,

111,169,5,138,209,4,

110,167,4,138,207,5,

110,167,5,137,207,5,

110,167,4,135,206,5,

109,165,4,135,205,5,

109,164,5,135,204,5,

108,163,4,134,203,5,

108,163,5,134,202,5,

107,163,5,133,201,5,

106,161,4,132,199,4,

106,161,5,132,198,5,

105,160,5,131,198,5,

105,159,5,130,197,4,

105,158,4,130,195,4,

103,157,4,129,195,4,

103,156,5,129,195,5,

103,156,5,127,193,5,

103,155,5,127,193,5,

103,154,4,126,192,4,

102,154,5,126,191,5,

101,153,5,191,191,5,

101,152,5,306,190,5,

99,152,5,352,234,6,

100,152,5,485,334,5,

99,151,5,599,469,5,

99,149,4,620,499,5,

99,149,5,612,494,4,

98,147,5,608,491,5,

98,147,5,602,487,5,

97,146,4,598,483,5,

97,146,5,593,480,5,

97,145,4,588,477,5,

96,144,5,583,473,5,

95,144,5,579,471,5,

95,143,5,575,467,4,

95,143,4,571,463,5,

94,142,5,566,461,5,

94,142,5,563,457,5,

93,140,5,558,455,5,

93,140,5,555,451,5,

92,140,5,551,450,5,

184,141,6,547,447,5,

276,140,5,543,443,5,

273,139,4,539,440,5,

271,138,5,535,438,4,

269,137,4,530,434,5,

267,135,5,527,431,4,

265,135,4,524,428,4,

263,135,5,519,426,5,

262,135,5,516,423,5,

260,134,4,513,421,5,

259,133,6,509,418,4,

257,132,5,505,415,5,

262,132,5,502,413,5,

268,131,5,499,410,5,

267,131,5,496,408,5,

263,130,4,492,406,5,

263,129,5,488,403,5,

285,130,4,486,401,5,

412,128,5,483,398,5,

473,127,5,480,396,4,

468,127,4,476,393,5,

464,126,5,473,391,5,

461,125,5,472,389,4,

457,125,5,467,387,5,

543,124,5,498,385,6,

700,128,5,676,383,6,

693,127,5,814,380,5,

686,126,4,877,377,5,

678,126,5,864,376,5,

671,124,4,854,373,5,

665,124,5,845,371,4,

659,124,5,850,370,5,

851,165,5,905,367,4,

888,164,5,914,366,5,

876,163,5,917,364,5,

865,162,5,919,362,5,

856,161,5,921,359,6,

846,159,5,923,357,5,

836,159,6,924,355,6,

828,158,6,925,353,6,

819,158,5,925,352,5,

811,157,5,920,350,5,

802,156,5,899,347,5,

793,155,5,887,345,5,

786,154,6,876,344,6,

779,153,6,866,343,5,

771,153,6,856,340,6,

763,152,6,847,339,5,

756,151,6,839,335,6,

748,150,6,831,335,6,

742,149,6,821,333,5,

735,148,5,814,331,6,

728,147,6,806,329,6,

721,147,6,797,327,6,

716,146,6,790,326,6,

709,146,5,783,324,6,

702,144,6,775,323,7,

697,150,6,768,321,6,

690,150,6,760,319,7,

684,149,6,755,318,6,

679,148,7,747,316,6,

673,147,7,740,314,6,

668,146,7,733,313,6,

663,146,7,729,312,7,

659,146,7,722,310,7,

652,145,7,716,309,7,

647,143,7,709,395,7,

642,144,7,704,391,7,

637,143,7,698,387,7,

632,142,8,691,385,8,

627,142,9,686,383,9,

623,140,9,679,380,9,

617,140,10,675,377,9,

613,140,9,670,375,10,

608,139,9,664,371,10,

603,138,11,658,370,11,

599,137,11,653,368,10,

593,135,11,647,365,10,

588,135,12,641,362,12,

583,177,12,636,359,11,

579,176,12,630,358,12,

575,174,12,625,355,12,

570,173,12,620,353,12,

566,172,13,615,350,13,

561,171,13,611,348,13,

557,170,12,606,345,13,

553,169,12,601,344,13,

548,167,13,596,342,13,

544,167,13,591,339,13,

541,166,13,587,337,13,

536,165,13,582,335,14,

533,164,14,578,333,13,

528,163,14,573,332,14,

524,162,14,569,327,13,

521,161,13,564,327,14,

517,159,14,560,325,14,

513,159,14,556,323,14,

509,158,13,551,321,13,

505,158,13,547,319,13,

502,157,14,543,317,13,

499,156,13,540,316,13,

495,155,13,536,313,13,

492,154,14,532,312,14,

488,153,13,528,310,14,

485,152,13,525,307,13,

481,152,13,521,306,14,

479,150,14,518,305,14,

476,150,13,514,303,13,

472,149,13,510,301,13,

469,147,13,506,300,13,

466,147,13,503,298,13,

463,146,13,499,295,13,

460,145,13,496,295,13,

457,145,13,492,292,13,

454,144,12,490,291,13,

451,143,13,487,290,13,

448,142,12,483,287,13,

445,142,12,481,287,12,

442,140,13,476,285,13,

440,140,12,473,284,13,

436,140,13,470,283,13,

434,139,12,467,281,13,

431,138,12,465,280,12,

428,137,12,461,277,13,

425,135,12,460,277,13,

423,135,12,455,275,12,

420,135,12,454,273,12,

418,134,12,451,271,12,

415,134,12,447,271,12,

413,133,12,444,269,12,

411,131,12,442,268,12,

408,131,12,439,267,12,

406,131,12,436,265,12,

402,129,12,433,263,12,

400,129,12,431,262,12,

398,128,12,429,261,12,

396,127,12,426,259,11,

393,127,11,423,258,12,

391,127,12,421,255,12,

389,125,11,417,255,11,

387,125,11,415,255,11,

384,124,11,413,253,11,

382,124,11,411,252,12,

379,123,11,408,250,12,

377,123,11,406,249,11,

375,121,11,403,248,11,

373,121,11,401,246,11,

371,121,11,399,245,12,

368,120,11,396,243,11,

367,120,11,393,242,11,

364,118,11,391,241,11,

362,118,11,390,240,11,

359,117,11,387,239,11,

358,118,11,385,237,11,

355,117,11,383,236,11,

355,116,10,381,235,10,

352,115,10,379,234,10,

350,114,10,377,233,11,

348,114,10,374,231,11,

347,113,10,371,231,10,

344,113,11,371,230,11,

343,112,10,368,228,10,

340,111,10,366,227,10,

338,111,11,364,226,10,

336,111,10,361,225,10,

335,110,10,359,224,10,

333,109,10,358,224,10,

331,109,10,357,221,10,

330,108,9,354,221,10,

327,107,9,353,220,9,

326,108,9,350,218,9,

323,107,10,349,217,9,

322,107,9,347,217,10,

321,106,9,345,216,9,

319,106,9,344,215,9,

318,103,9,342,214,9,

316,103,9,340,213,10,

314,103,9,339,211,9,

313,103,9,337,210,10,

312,103,10,335,210,9,

310,102,9,334,208,9,

308,102,9,332,207,10,

307,101,9,330,207,9,

305,101,9,329,206,10,

304,101,9,327,205,9,

302,99,9,325,204,9,

301,99,9,325,204,9,

300,99,9,322,202,9,

298,98,9,321,202,9,

297,98,9,319,201,9,

295,97,7,319,199,9,

294,98,9,317,199,8,

293,97,9,315,199,9,

291,97,9,313,197,9,

290,96,9,313,197,9,

289,96,8,311,196,9,

287,96,9,310,195,9,

286,95,9,307,194,9,

285,95,9,307,193,9,

284,94,8,305,192,9,

282,94,9,304,191,9,

281,93,7,303,192,9,

280,93,8,301,190,9,

279,93,9,300,189,9,

278,92,7,298,188,8,

276,92,8,297,188,8,

275,91,7,295,187,9,

273,91,9,295,186,8,

272,90,7,294,185,9,

271,89,9,292,184,8,

270,90,9,291,185,8,

269,89,7,290,183,9,

268,89,7,289,182,7,

267,88,8,287,182,7,

266,88,7,286,180,7,

263,87,7,284,179,7,

263,86,7,283,179,7,

262,86,7,281,177,7,

260,86,7,280,177,7,

259,86,7,280,177,7,

258,85,7,278,176,7,

257,85,7,277,175,7,

255,85,7,275,174,7,

254,83,7,275,174,7,

254,83,7,274,173,7,

252,83,7,272,172,7,

251,83,7,271,172,7,

251,83,7,271,171,7,

249,83,7,269,171,7,

248,82,7,268,169,7,

248,81,7,267,169,7,

246,81,7,266,167,7,

245,80,7,265,167,7,

244,80,7,263,167,7,

243,79,7,262,166,7,

241,79,6,261,166,7,

240,79,7,261,164,7,

239,79,7,259,163,7,

239,79,7,257,163,7,

238,78,7,256,163,7,

237,78,7,255,162,6,

235,78,7,254,161,7,

235,77,7,253,161,7,

233,77,7,252,159,7,

233,76,7,251,159,7,

231,76,7,249,159,6,

231,76,7,249,157,6,

229,75,6,248,157,6,

227,75,7,246,156,7,

227,74,6,246,156,6,

226,74,7,245,156,6,

225,74,7,243,154,6,

224,74,6,243,153,6,

223,74,6,242,153,6,

223,73,7,241,152,6,

222,73,6,240,152,6,

221,72,6,238,152,6,

220,71,6,238,151,6,

219,71,6,237,150,6,

218,71,6,236,149,6,

217,71,6,235,149,7,

216,70,6,234,148,7,

216,70,6,233,147,6,

214,70,6,233,147,6,

214,70,6,231,147,7,

213,69,6,231,146,6,

211,69,6,230,145,6,

211,69,6,228,145,6,

210,68,6,227,144,6,

209,68,6,226,143,6,

207,68,6,226,143,6,

207,68,6,225,143,6,

206,67,6,224,142,6,

205,67,6,224,142,6,

205,67,6,222,141,5,

204,66,6,222,140,6,

203,67,5,220,139,6,

203,66,6,220,140,6,

201,66,6,219,139,6,

199,66,6,217,137,6,

199,65,5,217,137,6,

199,65,6,216,137,6,

198,64,6,215,135,6,

198,63,5,215,135,6,

197,64,6,213,135,6,

195,63,6,212,134,6,

195,63,6,211,134,6,

194,63,6,211,134,5,

193,63,7,210,133,6,

193,63,5,210,133,5,

192,63,6,207,132,6,

192,62,5,207,131,5,

191,62,5,207,131,5,

189,62,6,206,130,6,

189,61,6,205,130,6,

188,60,5,204,129,6,

188,61,6,204,129,5,

186,60,6,202,128,5,

185,61,5,202,127,5,

185,60,5,199,127,5,

184,59,6,199,127,5,

184,60,5,199,127,6,

183,59,5,199,126,6,

182,59,5,198,126,5,

181,59,5,197,125,5,

180,58,5,196,124,5,

179,59,5,195,124,5,

179,57,5,195,123,5,

178,57,6,194,123,6,

178,57,5,194,122,5,

177,57,5,193,122,5,

176,57,5,192,121,5,

176,57,6,191,120,5,

174,56,5,190,121,5,

174,56,5,190,120,5,

173,56,5,189,120,5,

173,56,5,188,119,5,

172,56,5,187,119,6,

171,55,5,186,118,4,

171,55,6,185,117,5,

170,55,5,185,117,5,

169,54,5,185,117,6,

169,53,5,184,116,5,

167,55,5,183,116,5,

167,53,6,182,115,6,

167,54,4,182,115,5,

166,54,5,181,114,6,

165,52,5,181,113,5,

165,53,5,179,113,5,

163,52,4,179,113,5,

163,52,5,179,112,5,

162,51,5,178,112,5,

162,52,5,177,112,5,

161,51,5,176,111,5,

161,51,5,176,111,5,

159,51,4,175,111,5,

159,50,5,174,110,4,

159,50,4,173,109,4,

158,49,5,173,109,5,

157,50,5,172,108,4,

157,50,5,172,108,5,

156,49,5,171,108,5,

156,49,5,170,107,5,

155,49,5,169,107,4,

155,49,4,169,107,5,

153,49,5,167,106,5,

153,48,5,167,105,5,

153,48,5,167,105,5,

152,48,5,166,103,5,

152,48,5,166,103,5,

151,48,5,165,103,5,

150,48,5,163,103,5,

149,47,5,163,103,5,

149,47,4,163,102,4,

148,46,5,162,102,5,

147,46,4,162,101,5,

147,46,5,161,101,4,

146,46,6,161,101,5,

146,46,5,160,101,5,

145,45,5,159,100,5,

146,45,5,159,100,5,

144,45,5,158,99,5,

143,45,5,158,99,5,

143,45,4,157,99,5,

143,45,4,156,98,5,

142,44,4,156,98,5,

141,44,4,156,98,5,

141,45,5,155,97,5,

140,44,5,155,96,5,

141,44,5,154,97,5,

140,44,5,153,96,5,

138,43,4,152,95,6,

139,43,4,152,96,5,

138,43,5,152,95,4,

137,42,4,151,94,5,

137,43,4,150,95,5,

135,43,4,151,94,4,

135,42,4,150,94,5,

135,43,4,149,94,4,

135,42,5,149,93,4,

135,41,5,147,93,5,

134,41,4,147,92,4,

134,41,4,147,92,4,

132,41,4,146,92,5,

132,41,5,146,92,5,

131,40,5,145,91,4,

131,40,5,145,91,4,

131,39,5,144,90,5,

131,41,5,143,89,5,

131,39,4,143,90,4,

129,39,5,142,89,5,

129,39,4,142,88,5,

128,39,4,142,88,4,

127,39,4,141,88,4,

127,39,5,140,88,4,

127,39,4,140,88,5,

126,39,4,140,87,5,

126,39,4,139,87,5,

125,39,5,139,86,4,

125,38,5,138,86,4,

124,38,4,137,85,4,

125,38,5,137,85,4,

124,38,5,137,86,4,

123,37,4,135,85,5,

123,38,4,135,84,4,

123,38,4,135,84,5,

122,38,4,135,84,4,

121,36,4,134,83,5,

120,37,5,133,83,5,

121,37,4,133,83,4,

120,37,4,133,83,4,

120,36,4,132,82,4,

119,36,4,132,82,5,

119,35,4,131,82,5,

118,36,5,131,82,5,

118,35,5,130,81,5,

118,35,4,130,81,4,

118,35,4,130,80,4,

117,35,5,130,79,4,

116,35,5,129,80,4,

115,35,4,127,79,4,

115,35,4,127,79,5,

115,34,5,127,78,4,

115,34,4,126,79,5,

115,34,4,126,79,4,

114,34,4,126,78,4,

113,33,5,126,77,4,

112,33,5,125,78,5,

112,34,4,125,77,4,

112,33,4,125,77,4,

112,33,5,123,77,4,

111,33,4,123,76,4,

111,33,4,123,76,5,

110,33,4,122,75,4,

110,32,5,122,76,4,

110,32,4,121,75,4,

110,32,4,121,75,4,

108,33,4,121,75,3,

108,31,5,120,74,5,

108,31,5,120,73,4,

107,31,4,120,73,4,

107,32,5,119,73,5,

106,31,4,119,73,4,

106,31,5,119,73,4,

105,31,5,117,73,4,

105,31,4,117,71,5,

105,31,4,117,71,3,

105,31,4,117,71,4,

103,30,4,116,71,4,

103,31,5,116,71,4,

103,31,3,115,71,4,

103,30,4,115,71,4,

103,31,4,114,70,4,

102,30,4,114,71,5,

102,30,5,113,70,4,

101,29,5,113,70,4,

101,30,3,113,69,4,

101,29,4,112,69,3,

101,30,4,112,68,3,

101,29,3,112,68,4,

99,29,4,111,67,4,

99,28,4,110,69,5,

99,29,3,110,68,3,

99,28,5,110,67,3,

98,29,4,110,67,3,

97,28,3,109,67,4,

98,28,4,109,67,4,

97,28,4,109,67,4,

96,28,4,109,67,4,

96,28,4,107,66,4,

97,28,5,107,66,4,

96,28,5,108,65,4,

95,28,5,106,65,3,

96,28,5,107,65,4,

95,27,4,106,64,3,

94,27,4,106,65,4,

94,28,4,106,65,3,

94,27,3,105,64,5,

93,26,5,105,63,4,

94,32,3,103,63,4,

93,31,3,103,63,4,

92,31,4,103,63,3,

92,31,4,103,63,5,

92,31,4,103,63,3,

92,30,4,103,63,4,

91,31,5,102,63,3,

91,30,3,102,62,5,

91,30,5,102,61,3,

91,30,5,101,62,4,

90,30,4,101,61,4,

89,30,4,101,62,4,

89,30,4,100,61,4,

89,30,4,99,60,3,

88,30,5,99,60,4,

88,29,3,99,60,4,

89,30,3,99,60,4,

88,30,3,99,60,5,

88,30,3,99,59,3,

88,29,4,98,60,4,

87,30,4,97,59,3,

87,29,4,98,59,3,

87,30,4,97,59,5,

86,29,4,97,58,4,

86,30,3,97,59,5,

85,56,4,96,59,4,

86,56,4,96,59,3,

85,56,4,95,58,4,

85,56,4,96,58,4,

84,54,3,94,58,4,

84,54,4,95,57,4,

84,53,3,95,57,4,

83,53,5,94,57,4,

83,54,4,94,57,3,

83,53,4,93,57,4,

82,53,4,93,56,3,

83,53,4,93,56,5,

82,52,4,93,56,4,

82,110,4,93,56,4,

81,149,4,92,56,3,

81,147,4,91,55,4,

81,147,4,91,56,3,

81,145,3,91,56,4,

79,145,4,91,55,4,

80,144,4,90,54,4,

79,143,4,90,54,5,

80,143,3,90,54,5,

79,142,4,89,54,4,

79,141,4,89,54,4,

79,141,4,89,53,4,

79,140,5,89,54,5,

78,192,4,88,53,5,

78,191,5,88,53,4,

77,189,5,88,53,4,

78,189,4,88,52,4,

77,188,4,88,52,5,

77,187,4,87,52,3,

76,185,3,86,52,4,

76,185,5,87,51,3,

76,184,5,86,51,4,

76,183,4,86,51,4,

76,182,4,86,51,4,

75,181,5,86,51,4,

75,180,3,85,50,4,

75,179,4,85,50,4,

74,178,4,84,50,4,

74,178,4,83,50,4,

73,176,5,83,50,3,

74,176,4,83,50,3,

73,176,4,83,50,5,

73,174,4,83,49,5,

71,173,3,83,49,4,

71,172,4,82,49,4,

71,172,4,82,49,4,

71,171,4,81,49,4,

71,246,4,81,48,3,

71,265,4,81,48,4,

71,263,4,81,48,3,

71,262,4,80,48,4,

71,259,4,81,47,3,

70,259,4,80,48,4,

70,257,4,79,48,4,

70,255,4,79,47,4,

70,254,4,79,47,4,

69,253,4,79,47,4,

70,252,3,78,46,4,

69,251,4,78,47,4,

68,249,4,78,46,3,

69,248,4,78,46,3,

68,247,4,77,46,4,

68,246,3,77,46,4,

67,244,3,77,45,4,

67,243,4,77,45,4,

67,241,4,76,45,4,

66,241,4,76,45,3,

66,240,5,76,45,3,

66,239,4,75,45,4,

66,237,4,76,45,3,

66,236,3,75,45,4,

65,235,5,75,44,3,

65,233,4,75,44,4,

65,233,3,75,44,3,

65,231,3,73,43,3,

65,231,3,74,43,3,

63,229,5,73,44,4,

63,229,3,73,43,4,

64,227,3,73,43,3,

63,227,4,73,43,3,

63,225,4,73,43,4,

63,224,4,71,42,3,

63,224,3,71,42,4,

63,223,3,71,42,3,

63,221,4,71,42,4,

63,220,4,71,41,3,

62,219,4,71,42,4,

62,219,4,71,41,3,

62,217,3,71,41,4,

62,216,4,70,42,4,

62,216,3,70,41,4,

61,214,3,70,41,3,

61,213,3,70,41,5,

61,212,4,70,41,3,

60,211,4,69,41,4,

60,211,3,69,40,3,

60,209,4,69,39,3,

60,209,3,69,39,3,

59,207,3,68,39,3,

59,207,3,68,39,3,

59,206,4,68,39,3,

58,206,4,67,39,3,

58,205,3,67,39,4,

59,204,4,67,39,4,

59,203,4,67,39,4,

57,201,3,67,39,3,

57,201,4,66,39,5,

58,199,5,67,38,4,

57,199,4,67,38,5,

58,198,4,65,38,3,

57,198,4,65,38,3,

57,197,4,65,38,5,

56,196,3,65,38,4,

56,195,4,65,37,4,

56,194,4,65,38,3,

56,193,5,64,38,4,

56,192,4,63,38,4,

56,192,4,64,37,3,

56,190,4,63,37,4,

56,190,5,63,37,3,

55,188,4,63,37,4,

55,189,5,63,37,3,

56,188,4,63,36,3,

56,187,3,62,36,3,

56,186,3,63,36,4,

55,185,4,62,36,4,

56,184,3,62,36,3,

54,184,3,61,36,4,

55,183,4,61,35,3,

54,182,3,62,35,4,

54,181,4,62,35,4,

55,180,4,62,35,4,

54,179,4,61,35,4,

54,179,4,60,35,4,

59,178,4,61,35,3,

59,178,4,60,35,4,

59,177,5,61,34,3,

58,176,4,60,35,4,

57,176,3,60,35,3,

57,174,4,59,34,4,

57,174,4,60,34,3,

57,173,3,59,34,4,

56,172,4,59,34,4,

56,172,4,59,34,3,

56,171,4,59,33,3,

56,171,3,58,33,4,

57,169,3,59,33,3,

56,169,4,57,33,3,

56,167,4,58,33,4,

55,167,3,57,33,4,

55,167,3,57,33,3,

55,166,4,57,32,4,

55,165,3,56,32,4,

55,165,3,57,33,4,

54,164,3,56,33,4,

55,163,4,56,32,5,

54,163,4,56,31,4,

54,162,4,56,31,3,

53,161,3,56,31,3,

53,161,3,56,31,4,

53,159,4,55,31,4,

53,159,3,55,31,3,

52,159,4,55,31,4,

51,158,4,55,31,3,

51,157,3,54,31,3,

52,156,4,54,31,3,

51,157,4,54,30,3,

51,155,3,54,30,4,

51,154,3,53,30,3,

51,153,4,54,30,3,

51,153,3,53,30,3,

71,153,4,53,29,4,

75,152,4,53,30,3,

74,151,3,53,30,4,

74,151,4,52,30,4,

73,151,4,52,30,3,

73,149,3,53,29,4,

71,149,3,52,29,4,

71,148,3,51,29,3,

71,147,3,51,30,3,

71,147,3,51,29,3,

71,147,3,51,29,4,

71,146,3,51,29,3,

71,145,4,51,29,3,

70,145,3,51,28,3,

70,143,4,51,29,4,

70,143,3,51,28,3,

70,143,3,50,28,3,

69,143,3,50,28,3,

69,142,4,49,28,4,

68,142,3,49,28,4,

68,141,4,49,28,3,

67,140,3,49,28,3,

67,139,4,49,28,3,

67,139,3,49,28,5,

67,139,3,49,27,3,

79,138,3,48,27,3,

103,138,3,48,27,3,

102,137,4,48,27,4,

101,135,4,48,27,3,

100,135,3,48,27,4,

99,135,3,48,27,3,

99,135,3,48,26,4,

99,135,3,48,26,3,

98,134,4,47,26,3,

98,133,3,47,26,3,

97,133,3,47,25,4,

97,132,3,47,26,3,

99,131,4,46,27,4,

101,131,3,46,25,4,

100,130,3,46,25,3,

100,130,4,46,26,3,

100,129,3,46,25,4,

99,128,4,45,25,4,

99,127,3,45,25,4,

98,127,4,46,25,3,

98,127,4,46,25,4,

97,127,3,45,26,3,

96,126,3,44,25,4,

96,126,3,45,25,4,

97,125,3,44,25,3,

100,124,4,44,25,4,

100,124,4,44,24,3,

99,123,4,44,25,3,

98,123,3,44,24,3,

98,122,3,44,25,3,

98,122,3,43,24,3,

97,121,4,43,24,3,

97,121,3,43,24,3,

96,120,3,43,24,4,

96,120,3,43,24,3,

95,120,3,43,24,4,

96,119,4,43,24,4,

111,119,4,43,24,3,

110,118,3,42,23,4,

110,118,5,42,23,3,

109,117,3,42,23,4,

109,117,3,42,23,3,

108,117,4,41,23,3,

107,115,3,42,22,5,

107,115,4,42,23,3,

107,114,4,41,22,4,

105,114,3,41,23,4,

105,114,4,41,23,3,

106,113,3,41,23,4,

167,113,4,41,22,3,

167,113,4,40,22,4,

167,112,4,41,22,3,

165,112,3,39,22,3,

163,111,3,39,21,4,

163,110,4,39,22,4,

163,110,3,39,21,3,

161,109,4,39,21,4,

160,110,4,39,21,3,

159,109,3,39,21,4,

159,109,3,39,21,4,

158,109,3,39,21,3,

157,108,3,39,21,4,

156,107,3,38,22,3,

156,106,4,39,20,4,

155,106,3,38,20,4,

154,106,3,39,20,4,

153,105,4,39,20,3,

152,104,4,38,20,4,

152,103,3,38,21,3,

151,103,4,37,20,4,

150,103,3,38,19,4,

150,103,3,37,20,3,

149,103,4,37,20,3,

148,103,3,37,20,3,

147,101,3,37,19,4,

147,101,4,37,20,3,

146,101,3,37,20,3,

145,100,4,37,19,4,

145,100,3,37,19,3,

143,100,4,35,19,3,

143,99,4,35,19,3,

142,99,3,35,19,4,

142,98,3,35,19,4,

142,99,3,35,19,4,

141,98,4,35,19,4,

140,97,3,35,19,3,

140,97,3,35,19,4,

139,96,3,35,19,3,

138,96,3,35,19,3,

137,95,3,35,19,4,

137,96,4,35,18,3,

135,96,3,34,19,3,

135,94,3,34,19,4,

135,95,3,34,18,3,

135,94,3,35,19,3,

134,93,3,35,18,3,

134,93,4,34,25,3,

135,93,4,34,39,3,

135,93,3,34,38,3,

134,92,4,33,37,3,

133,92,3,33,38,4,

133,91,4,34,37,3,

133,91,4,34,38,4,

131,91,4,33,37,3,

131,91,3,33,37,4,

131,90,4,32,36,4,

130,90,3,33,37,4,

129,89,3,33,37,3,

129,89,3,33,36,3,

155,89,4,33,35,4,

159,88,4,31,36,3,

158,88,4,31,36,4,

157,88,3,32,35,3,

157,87,3,31,35,3,

155,87,3,32,35,3,

155,86,3,31,35,3,

155,87,4,31,35,4,

153,86,3,31,34,4,

153,86,4,31,34,4,

152,84,3,31,34,4,

151,85,4,31,34,3,

163,84,4,31,34,4,

167,84,4,31,33,4,

167,84,5,30,33,3,

166,83,4,30,33,4,

166,83,3,30,33,3,

165,83,4,30,33,4,

164,82,3,30,33,3,

163,83,5,30,33,3,

162,82,4,30,33,4,

161,82,4,30,32,4,

161,81,4,29,32,4,

159,80,3,29,31,3,

159,81,4,29,32,4,

159,81,4,29,32,4,

158,80,4,29,32,4,

157,79,3,29,31,3,

156,79,4,30,31,4,

156,78,3,29,31,3,

154,79,3,29,31,3,

154,78,3,30,30,4,

153,78,4,29,30,3,

153,78,4,28,30,3,

152,77,3,29,30,3,

152,78,3,28,30,4,

150,77,3,28,30,4,

150,77,3,28,29,3,

149,76,3,29,30,3,

149,76,4,28,29,4,

147,76,4,28,30,4,

147,76,4,27,29,3,

146,75,3,28,29,3,

146,75,3,28,29,3,

145,75,3,28,29,3,

145,74,3,27,29,5,

143,74,5,28,29,4,

143,74,4,27,29,3,

142,73,3,27,28,3,

142,73,4,27,28,4,

141,71,3,27,28,4,

141,71,3,26,28,3,

140,72,4,26,27,3,

140,71,3,26,28,4,

139,71,3,27,27,3,

138,71,4,26,27,3,

137,71,4,26,26,3,

137,71,3,26,27,3,

137,71,3,26,27,3,

135,70,4,26,26,3,

135,70,4,26,26,3,

163,70,4,26,26,3,

174,70,4,25,26,4,

172,69,4,25,25,3,

171,69,3,26,26,3,

170,69,4,25,25,3,

169,69,4,25,25,4,

167,68,3,25,25,3,

167,68,4,25,25,3,

167,68,4,25,26,4,

166,67,3,24,25,3,

166,67,3,25,25,3,

164,67,3,25,25,3,

163,66,3,24,25,4,

163,66,4,24,25,4,

162,66,3,25,25,3,

161,66,4,25,24,3,

160,65,3,24,24,4,

159,65,4,24,24,3,

159,64,4,24,24,4,

159,64,3,24,24,3,

158,65,3,24,24,3,

157,64,3,24,24,3,

156,63,3,24,24,4,

156,64,4,24,24,3,

155,63,4,24,24,3,

154,63,3,23,24,4,

154,63,3,23,24,3,

152,62,4,23,23,3,

153,63,3,23,23,3,

152,62,4,23,24,3,

151,62,3,23,23,3,

151,62,4,23,23,3,

150,62,4,23,23,3,

148,62,3,23,22,3,

148,61,3,23,22,3,

147,60,3,23,22,3,

147,60,3,23,22,3,

146,60,3,22,23,4,

146,60,4,22,22,4,

145,60,3,22,22,4,

144,60,4,22,22,4,

143,59,3,22,22,4,

143,59,3,22,21,3,

143,59,4,21,21,3,

142,59,3,22,22,3,

141,59,3,21,21,3,

140,57,4,22,21,3,

140,57,4,22,21,3,

139,57,3,21,20,4,

139,57,4,21,21,4,

138,57,4,21,21,3,

138,57,4,21,21,3,

135,57,5,21,19,4,

135,57,4,21,21,3,

135,56,3,20,20,3,

135,56,3,21,19,3,

135,56,3,20,19,4,

134,56,3,21,20,4,

134,55,4,62,19,3,

133,56,4,60,19,3,

133,55,3,60,19,4,

131,55,3,60,19,3,

131,54,3,59,19,4,

130,54,4,59,19,3,

130,54,3,59,19,3,

129,54,4,58,19,4,

129,54,4,59,19,3,

127,53,4,57,19,3,

127,54,3,57,19,4,

127,53,3,57,19,4,

126,53,3,57,19,3,

126,53,3,56,19,3,

126,53,3,56,18,4,

125,53,4,56,18,3,

125,51,4,56,18,3,

124,52,4,56,18,3,

123,51,4,56,18,3,

123,51,4,55,18,3,

122,50,3,55,18,3,

122,51,3,55,18,4,

121,50,4,54,18,3,

121,51,3,54,18,4,

121,50,3,54,17,3,

120,49,4,54,18,5,

120,49,4,53,18,4,

119,49,3,53,17,3,

119,49,4,52,18,4,

118,49,4,53,17,4,

118,49,4,53,17,4,

117,49,4,53,17,4,

116,49,4,51,17,4,

116,49,4,51,17,3,

116,48,4,51,16,3,

115,48,3,51,16,4,

115,48,4,51,17,3,

114,48,4,50,17,3,

113,47,4,51,17,3,

113,48,3,50,16,4,

112,47,3,49,16,3,

112,47,3,50,17,5,

112,46,4,49,17,4,

111,46,4,49,16,4,

111,46,3,49,16,4,

110,46,3,49,15,3,

110,45,3,48,16,3,

110,46,3,48,15,3,

109,46,3,48,16,4,

108,45,3,48,15,4,

108,45,4,48,15,4,

108,45,3,48,15,4,

107,45,4,47,16,4,

107,45,3,48,15,3,

107,44,3,48,15,4,

106,44,5,47,15,4,

106,44,3,46,15,3,

105,44,4,46,15,3,

104,44,4,46,15,3,

103,44,4,45,15,4,

103,43,4,45,15,4,

103,43,3,45,15,3,

103,43,4,45,15,3,

102,43,3,45,16,4,

102,43,3,45,15,3,

102,42,3,44,15,3,

102,43,3,44,14,3,

108,42,3,44,14,4,

108,42,3,44,15,3,

107,42,3,44,14,4,

105,42,4,44,14,3,

105,41,4,44,15,3,

106,42,3,43,14,4,

104,41,3,43,14,3,

103,41,4,43,14,4,

103,41,3,43,14,5,

103,41,4,42,13,4,

103,39,3,42,15,4,

103,39,3,42,14,4,

103,39,3,42,14,4,

125,39,4,42,14,3,

125,39,3,41,14,3,

124,39,3,41,14,3,

123,39,3,41,14,3,

123,39,3,41,15,3,

122,39,4,41,14,3,

121,39,3,41,14,3,

121,39,4,39,14,4,

120,38,3,39,13,4,

120,38,3,39,13,3,

119,39,4,39,13,3,

119,39,4,39,14,3,

118,38,4,39,13,3,

118,38,3,39,13,4,

117,37,3,39,13,3,

116,37,4,39,13,3,

115,37,3,38,13,3,

115,38,4,39,13,3,

115,37,4,38,13,4,

115,37,3,38,13,3,

113,37,3,38,12,4,

113,37,4,38,12,4,

112,36,4,37,13,3,

112,36,3,37,13,3,

112,37,3,38,13,5,

111,36,4,37,13,3,

110,35,5,37,12,3,

110,36,3,38,12,3,

110,35,3,37,13,4,

109,35,3,36,12,3,

109,35,4,37,13,3,

108,35,3,36,12,3,

107,35,3,36,12,3,

107,34,3,36,12,3,

107,34,3,35,12,3,

107,34,3,35,13,3,

106,34,3,35,12,3,

105,34,4,35,12,3,

105,34,4,35,12,3,

103,34,3,35,12,3,

103,34,3,35,11,4,

103,33,3,34,11,4,

103,33,4,34,11,3,

103,33,3,34,11,3,

103,34,5,34,12,3,

102,33,4,34,11,4,

101,33,3,33,13,3,

101,33,3,33,12,3,

100,32,3,34,11,4,

102,32,4,33,11,3,

102,31,3,33,11,3,

101,31,4,33,12,4,

101,32,3,33,11,3,

100,33,3,32,11,3,

100,32,3,33,11,4,

100,31,3,32,11,3,

99,31,4,31,11,4,

99,31,3,31,11,3,

98,31,3,32,11,3,

97,31,3,32,10,3,

98,31,4,31,11,3,

97,30,4,31,10,3,

97,31,4,31,11,4,

97,31,4,31,11,4,

97,30,3,31,10,4,

96,31,4,31,11,3,

96,31,3,31,10,3,

95,30,3,31,11,3,

95,30,4,31,11,3,

95,30,3,30,10,5,

94,29,3,30,11,4,

95,30,4,30,10,4,

94,30,3,30,10,3,

93,29,4,29,11,3,

94,30,3,30,10,4,

92,29,4,30,10,3,

93,29,3,30,10,3,

92,29,3,29,10,4,

92,29,3,30,10,4,

91,28,3,29,9,4,

91,29,4,29,9,3,

90,28,3,28,10,3,

91,28,4,29,11,4,

89,29,4,28,9,3,

89,28,3,28,10,4,

89,28,3,29,9,3,

89,28,4,29,9,3,

88,28,3,28,9,3,

88,27,4,28,10,3,

88,28,3,28,10,3,

88,28,4,28,11,4,

87,28,3,28,10,3,

87,28,3,28,9,3,

87,27,3,27,9,4,

86,28,3,27,9,4,

86,27,3,27,9,4,

85,26,3,27,9,3,

86,26,3,28,10,3,

86,26,3,27,10,4,

85,27,4,27,9,3,

85,26,4,27,9,4,

84,26,4,27,9,4,

83,26,3,26,8,3,

83,26,3,26,9,4,

83,26,3,26,9,3,

83,26,3,26,10,3,

82,25,3,26,9,3,

82,25,3,26,9,3,

82,25,3,25,8,4,

82,25,3,27,9,4,

81,25,4,25,7,3,

81,26,3,25,8,3,

80,25,3,25,7,3,

80,25,3,25,9,3,

80,25,3,24,9,4,

80,25,3,24,8,3,

79,24,3,25,7,4,

79,24,3,24,8,4,

79,25,3,24,8,3,

78,24,3,25,7,4,

78,24,4,24,7,3,

78,24,3,24,7,3,

78,24,3,24,8,4,

78,24,4,24,7,4,

77,24,3,24,7,3,

77,24,3,24,7,4,

76,24,3,24,7,3,

76,24,3,24,7,3,

77,24,3,24,9,3,

87,24,3,24,7,4,

86,24,3,24,7,3,

86,24,3,24,7,3,

85,23,3,24,7,3,

84,22,3,23,7,3,

84,23,3,23,7,4,

84,23,3,23,7,3,

83,22,3,23,7,4,

83,23,3,23,7,3,

83,22,3,22,7,3,

83,23,3,22,7,3,

82,22,3,23,7,3,

82,22,3,23,7,3,

82,22,4,22,9,3,

81,22,3,22,7,3,

82,22,3,22,7,3,

81,22,3,22,7,3,

81,21,3,22,7,4,

80,22,3,22,7,3,

79,22,3,22,9,3,

80,21,4,22,7,3,

79,21,3,21,7,3,

79,22,3,22,7,4,

79,21,3,22,7,3,

78,22,3,21,7,3,

78,21,3,22,7,3,

77,21,3,21,7,3,

78,21,3,21,7,3,

77,21,4,21,7,3,

77,20,3,21,7,3,

77,21,3,21,7,4,

76,21,3,21,7,3,

76,20,3,20,7,3,

76,20,3,21,7,3,

75,20,3,20,7,4,

75,20,4,20,7,4,

75,21,3,20,7,4,

74,19,3,20,7,3,

74,20,3,20,7,3,

74,20,4,19,7,3,

74,21,3,20,7,3,

91,20,3,20,7,3,

101,20,3,20,7,3,

100,20,3,19,7,3,

100,19,3,19,7,5,

99,19,4,19,7,3,

99,19,3,19,7,3,

99,19,4,19,7,3,

98,19,3,19,7,3,

98,19,3,19,7,3,

97,19,3,19,7,3,

97,19,5,19,7,3,

96,19,3,19,7,3,

96,19,3,19,7,3,

96,19,4,19,7,3,

95,19,4,19,7,3,

94,19,3,19,7,3,

95,18,3,19,7,3,

94,18,3,19,7,3,

94,18,3,19,7,3,

93,18,3,18,7,3,

93,18,3,18,7,3,

93,18,3,18,7,3,

92,18,3,18,6,3,

92,18,3,19,7,3,

92,18,3,18,6,3,

91,19,3,17,6,3,

91,17,3,18,7,3,

89,17,3,18,7,3,

89,18,3,18,6,4,

89,17,3,17,6,3,

89,18,4,17,6,4,

88,18,3,17,6,3,

88,18,3,18,7,4,

88,17,3,17,6,3,

88,17,3,18,7,3,

87,17,3,18,6,3,

87,16,3,17,7,3,

87,17,4,17,7,4,

87,16,3,17,7,3,

85,17,3,17,6,3,

85,16,3,17,6,4,

86,17,3,17,6,3,

85,16,3,17,6,3,

85,17,3,17,6,3,

84,16,4,17,7,3,

83,16,3,17,6,4,

84,15,3,17,7,3,

83,16,3,17,6,3,

83,17,3,16,6,4,

83,16,3,17,7,3,

82,15,4,16,6,3,

81,15,3,17,6,4,

