
182,3,1,43,36,1,

181,3,1,43,36,1,

221,3,1,42,36,1,

220,3,0,43,35,1,

219,3,1,42,36,1,

217,3,1,42,36,2,

216,3,1,42,35,1,

216,3,1,41,35,1,

214,3,1,41,35,0,

213,3,1,41,35,1,

212,3,1,41,35,1,

211,3,0,41,35,1,

210,6,0,41,35,1,

209,7,1,40,34,1,

207,7,0,41,34,1,

226,7,1,42,34,1,

224,7,1,41,34,1,

224,7,1,41,33,1,

222,7,1,41,33,1,

221,7,1,40,33,1,

220,7,1,39,33,1,

219,7,1,39,33,1,

217,7,0,39,33,1,

217,7,1,39,32,1,

216,7,1,39,32,1,

215,7,1,39,32,1,

214,7,1,39,32,1,

213,7,1,39,31,1,

211,7,1,39,31,0,

211,7,1,39,31,0,

209,6,1,38,31,1,

209,7,1,39,31,1,

207,6,0,38,31,1,

207,6,0,38,31,1,

206,7,1,38,31,1,

205,6,1,38,31,1,

204,6,1,37,30,1,

203,6,1,37,30,1,

202,6,1,37,31,0,

201,6,1,37,30,1,

199,6,1,37,30,1,

236,6,1,37,30,1,

234,6,0,36,31,1,

231,6,1,36,30,1,

231,6,1,37,30,1,

230,6,0,36,30,1,

229,6,1,36,30,0,

228,5,1,35,30,1,

227,6,0,35,30,0,

226,5,0,35,29,0,

225,5,1,35,29,1,

224,6,1,35,29,0,

223,5,1,35,29,0,

222,5,1,35,29,0,

221,6,1,35,29,1,

220,5,1,35,28,1,

218,5,0,35,28,1,

217,5,1,35,28,1,

216,5,1,35,28,1,

216,5,1,35,28,0,

214,5,1,35,28,1,

214,5,1,34,28,1,

212,7,0,34,28,1,

211,7,0,34,27,0,

210,7,0,34,27,0,

209,7,1,34,27,1,

209,7,1,34,27,1,

207,7,1,34,27,1,

207,6,1,33,27,1,

206,7,1,33,29,1,

205,7,0,33,29,1,

204,6,1,33,29,0,

203,6,1,33,29,1,

202,7,0,32,29,1,

201,6,0,32,28,1,

199,6,1,32,29,1,

199,6,0,32,28,1,

199,6,1,31,28,0,

198,6,1,31,28,0,

197,6,1,31,27,1,

195,6,1,31,28,0,

195,6,1,31,27,1,

194,6,1,31,27,0,

193,6,1,31,27,1,

192,6,1,31,27,1,

192,6,1,30,27,1,

191,6,1,31,27,1,

190,6,1,30,26,1,

189,6,1,30,26,0,

188,6,1,30,26,1,

188,6,1,30,26,1,

187,6,1,30,26,1,

185,6,1,29,25,1,

185,6,1,30,26,1,

184,6,1,29,41,1,

184,6,1,29,41,0,

183,6,1,29,41,1,

182,5,0,29,41,0,

181,6,0,29,39,1,

180,6,1,29,39,0,

179,5,1,28,39,1,

179,6,1,29,39,0,

178,5,0,29,39,1,

177,5,1,28,39,1,

176,5,1,28,39,1,

176,5,1,49,39,1,

190,5,1,99,39,1,

190,6,1,97,39,1,

189,5,1,97,39,0,

188,5,1,96,39,0,

187,5,0,96,39,1,

187,5,1,95,38,1,

185,6,1,95,39,1,

185,5,0,94,38,1,

184,5,1,94,38,0,

183,5,0,93,38,1,

182,5,0,93,38,0,

182,5,0,93,38,1,

181,5,1,92,37,1,

184,5,1,92,37,1,

185,4,1,91,37,1,

185,4,1,91,37,1,

184,4,1,90,37,1,

183,5,1,90,36,0,

182,5,1,89,36,1,

181,5,1,89,36,1,

180,5,1,89,36,1,

179,5,1,88,35,1,

179,4,1,88,35,1,

178,4,0,88,35,1,

177,4,1,87,35,1,

176,4,1,87,35,1,

176,4,1,87,35,1,

188,4,1,86,35,1,

188,4,1,85,34,0,

187,3,1,85,34,1,

185,5,1,85,34,1,

185,4,1,85,34,1,

184,4,1,84,33,1,

183,4,0,83,33,1,

182,4,1,83,33,1,

181,4,1,83,33,1,

181,3,1,83,33,1,

180,4,1,82,33,0,

179,3,1,82,33,1,

192,4,1,82,32,1,

233,4,1,81,32,1,

231,4,0,81,33,1,

230,3,1,81,32,1,

229,4,0,80,31,0,

227,3,1,79,31,1,

227,4,1,79,31,1,

225,3,1,79,31,1,

224,3,1,79,31,1,

224,3,0,79,31,1,

223,3,1,78,31,1,

221,3,1,78,30,1,

220,4,1,77,30,1,

236,3,1,78,31,1,

283,7,1,77,31,1,

281,7,1,77,34,1,

280,7,1,76,34,1,

278,7,1,76,34,1,

276,7,1,76,34,1,

275,7,1,75,33,0,

274,7,1,75,33,1,

271,7,0,75,33,0,

271,7,1,74,34,0,

270,7,1,74,33,1,

268,7,1,73,33,1,

267,7,1,73,32,1,

265,7,1,73,32,1,

264,7,1,73,32,1,

263,7,1,71,32,0,

262,7,0,71,32,1,

261,7,1,71,32,1,

259,7,1,71,31,0,

258,7,1,71,31,0,

257,7,1,71,31,1,

255,7,1,70,31,1,

255,7,1,70,31,1,

253,7,0,70,31,1,

252,6,1,70,31,1,

251,7,1,69,31,1,

249,7,1,69,31,1,

249,7,1,69,30,1,

248,7,1,68,30,1,

247,6,0,68,30,1,

246,6,1,67,30,0,

244,7,1,67,30,0,

243,6,0,67,30,1,

242,6,1,67,30,1,

241,6,1,67,30,0,

240,6,1,66,30,1,

239,6,1,66,30,1,

237,6,1,66,29,1,

236,6,1,66,29,1,

236,6,0,65,29,1,

235,6,1,65,29,1,

233,6,1,65,29,1,

232,6,0,64,29,1,

231,6,1,64,28,1,

231,6,1,64,28,1,

230,6,0,63,28,1,

229,6,0,63,28,1,

227,6,1,63,27,0,

227,5,1,63,28,1,

226,6,1,63,27,1,

225,6,1,62,28,1,

224,5,1,62,27,1,

223,5,1,62,28,1,

222,6,0,62,27,1,

221,5,1,61,27,1,

220,5,1,62,26,1,

219,5,0,61,27,0,

218,5,1,60,26,1,

217,5,0,60,26,1,

216,5,1,60,26,1,

216,5,1,60,26,1,

214,5,1,60,26,1,

213,5,1,59,26,1,

212,5,0,59,25,1,

211,5,0,59,25,1,

211,5,1,58,25,1,

211,5,1,58,25,1,

210,5,0,58,25,1,

208,5,1,57,25,1,

207,5,1,57,25,1,

207,5,0,57,25,0,

206,4,1,57,25,1,

205,5,1,57,25,1,

204,5,1,56,25,1,

204,5,1,56,24,1,

202,5,1,56,24,1,

201,5,1,56,24,1,

201,5,0,56,24,1,

199,5,1,56,24,1,

199,5,0,56,24,0,

198,5,1,55,25,1,

198,5,1,55,25,1,

196,5,1,54,25,1,

195,4,0,54,25,1,

195,4,1,54,25,1,

194,4,1,54,24,1,

193,4,1,53,24,1,

192,4,1,53,24,0,

192,4,0,53,24,1,

191,4,1,53,24,0,

190,5,1,53,24,1,

189,4,0,52,24,1,

199,5,1,52,24,1,

198,5,0,52,23,0,

197,4,1,52,23,1,

196,5,1,51,24,0,

195,4,1,51,23,1,

194,4,0,51,23,1,

194,4,1,51,23,1,

193,4,1,51,23,1,

192,4,1,50,22,1,

191,4,1,50,22,1,

190,4,1,50,22,1,

189,4,1,49,22,1,

189,4,1,50,22,1,

188,4,1,49,22,0,

187,4,0,49,22,0,

187,4,1,49,21,1,

185,4,1,49,22,1,

185,3,0,48,22,1,

184,4,1,48,21,1,

184,4,1,48,21,1,

183,3,1,48,21,1,

182,3,1,47,21,1,

181,3,1,47,21,1,

180,4,1,48,20,1,

179,3,0,47,21,1,

179,4,1,47,20,1,

178,4,1,47,20,1,

177,3,1,46,20,1,

176,3,1,46,20,1,

176,3,1,46,20,1,

175,3,0,46,20,1,

175,3,0,45,20,1,

174,3,1,45,20,0,

173,4,1,45,19,1,

172,3,1,45,19,0,

172,3,1,45,19,1,

171,3,1,45,19,1,

170,3,1,45,19,0,

169,3,1,44,19,1,

169,3,1,44,19,1,

167,3,1,44,19,1,

167,3,1,44,19,1,

167,3,1,43,19,0,

166,3,0,43,19,1,

165,3,0,43,19,0,

165,3,1,42,18,0,

163,3,1,43,19,0,

163,3,1,43,18,1,

163,3,1,42,18,1,

162,3,1,42,19,1,

161,3,1,42,18,1,

161,3,0,42,18,1,

184,3,1,41,17,1,

192,3,0,41,18,1,

191,2,1,41,18,1,

190,3,1,41,18,0,

189,3,0,41,17,1,

189,3,1,41,17,1,

188,3,0,40,17,0,

187,3,1,39,17,1,

185,3,1,39,17,1,

185,3,1,39,17,0,

184,3,1,39,17,0,

184,3,1,39,17,1,

182,3,1,39,17,1,

181,3,0,39,17,1,

181,3,0,39,17,1,

180,3,1,39,17,1,

179,3,1,39,16,1,

178,3,1,39,16,0,

177,3,1,38,16,1,

177,3,1,39,16,1,

176,3,1,38,16,1,

175,3,0,38,16,1,

173,3,1,37,16,1,

173,3,1,38,16,1,

173,3,1,37,15,1,

172,3,1,37,15,1,

197,3,1,65,17,1,

203,3,1,115,48,0,

201,3,1,113,48,1,

201,3,1,112,47,1,

199,3,1,112,47,1,

199,3,1,111,47,1,

197,3,0,111,46,1,

196,3,1,110,46,0,

195,2,1,110,46,1,

194,3,1,109,46,1,

193,3,1,108,45,1,

192,3,1,108,45,1,

192,2,1,107,45,1,

199,3,1,107,46,1,

198,2,1,107,60,0,

197,3,1,105,61,0,

196,3,1,105,60,0,

195,3,0,105,60,0,

194,3,1,104,59,1,

193,2,0,103,59,1,

192,2,1,103,58,1,

192,3,0,103,58,1,

190,3,1,102,58,0,

190,2,0,102,57,1,

188,2,1,101,57,1,

193,2,1,101,57,1,

192,3,1,101,56,1,

190,3,0,99,56,1,

189,2,1,99,56,1,

189,3,0,99,56,0,

188,2,1,99,56,1,

187,2,0,98,56,1,

186,2,1,98,55,0,

185,2,1,97,56,1,

185,2,1,97,54,1,

184,2,0,97,54,1,

183,2,1,96,54,1,

182,2,1,96,54,1,

181,3,0,95,53,1,

180,2,0,95,53,1,

179,2,1,95,53,1,

179,2,1,94,53,1,

178,2,1,94,52,1,

177,2,1,93,51,0,

176,2,1,93,51,1,

176,2,0,93,51,1,

175,2,1,93,51,0,

174,2,1,92,51,1,

173,2,0,92,51,1,

172,2,0,91,51,0,

172,2,1,91,50,1,

207,2,1,90,50,1,

206,2,0,89,50,0,

205,2,0,89,50,0,

204,2,0,89,49,1,

203,2,0,89,49,1,

202,2,1,88,49,1,

201,2,1,88,48,1,

199,2,1,88,48,0,

199,2,1,88,48,0,

199,2,1,87,48,1,

198,2,1,86,48,1,

196,2,1,87,48,0,

195,2,0,86,48,1,

195,2,0,86,47,1,

194,2,1,85,47,1,

193,2,1,85,46,1,

192,2,0,84,47,1,

191,2,1,84,46,1,

190,2,1,84,46,1,

189,2,1,83,46,0,

188,2,1,83,45,1,

188,2,1,83,45,1,

187,2,1,83,45,1,

186,2,1,82,45,1,

185,2,1,82,45,1,

184,2,1,82,44,1,

184,2,1,81,44,1,

184,2,1,81,44,1,

182,2,1,81,44,1,

182,2,1,80,44,1,

180,2,1,79,44,0,

179,2,1,79,43,0,

179,2,1,79,43,1,

178,2,0,79,43,1,

177,2,0,78,42,1,

177,2,1,78,42,1,

176,2,0,78,42,1,

176,2,1,77,41,1,

174,2,1,77,42,0,

202,2,1,77,41,0,

227,2,1,77,41,1,

226,2,0,76,41,1,

224,2,1,76,41,1,

223,2,1,76,41,1,

222,2,0,75,39,1,

221,2,1,75,39,0,

220,2,1,75,39,0,

219,2,1,74,39,1,

218,2,1,74,39,0,

217,2,1,74,39,0,

216,2,1,73,39,1,

215,2,1,73,39,0,

214,2,1,73,39,1,

213,2,1,73,39,1,

212,2,0,71,39,0,

211,2,1,71,39,1,

210,2,0,71,38,1,

209,2,0,71,38,1,

207,2,1,71,38,1,

207,2,0,70,37,0,

207,2,1,71,38,1,

206,2,1,70,37,1,

205,2,0,70,37,0,

203,2,0,69,37,1,

203,2,1,69,37,1,

207,2,1,70,37,1,

246,3,1,69,36,1,

244,6,1,69,36,1,

243,6,1,68,36,1,

242,6,1,67,35,1,

241,7,1,67,35,1,

240,6,1,67,35,1,

238,7,1,67,35,1,

237,6,0,66,35,0,

236,6,1,66,35,1,

235,6,0,66,35,1,

234,6,0,66,35,0,

231,6,1,65,34,1,

231,6,0,65,34,1,

230,6,0,65,34,0,

230,6,1,64,34,1,

228,6,1,65,34,1,

227,6,1,64,34,0,

226,5,1,63,33,1,

226,6,1,63,33,1,

224,6,1,63,34,1,

223,5,1,63,33,1,

222,6,0,63,32,1,

221,6,1,63,33,1,

220,5,1,62,32,1,

219,6,1,62,31,1,

218,5,1,62,32,1,

217,5,1,62,31,1,

216,6,0,62,31,1,

215,5,0,61,31,1,

215,5,0,61,31,1,

213,5,1,61,31,1,

213,5,1,61,31,1,

211,6,1,60,31,1,

210,5,0,60,31,1,

209,5,1,60,31,1,

209,5,1,60,30,0,

207,5,1,59,31,1,

207,5,1,59,30,1,

206,5,1,59,30,1,

220,5,1,58,30,0,

219,5,1,58,31,1,

218,5,1,58,33,1,

217,4,1,57,33,0,

216,5,0,57,32,1,

215,5,1,57,33,1,

214,5,1,57,32,1,

213,5,1,57,32,1,

212,5,1,57,31,1,

211,5,0,56,31,1,

210,5,0,56,31,1,

209,5,0,56,31,1,

207,4,1,56,31,1,

207,4,1,56,31,1,

206,4,1,56,31,0,

205,4,0,56,31,1,

205,4,1,56,31,1,

204,4,1,56,31,1,

203,4,1,55,30,1,

202,4,1,55,30,0,

201,4,1,54,30,1,

199,4,1,54,30,1,

199,4,1,53,30,1,

198,4,0,54,30,1,

198,4,1,54,30,1,

196,5,1,53,30,1,

217,4,1,53,29,1,

216,4,1,53,30,1,

214,4,1,53,30,1,

213,4,1,53,30,1,

212,4,1,52,29,0,

211,3,1,51,30,1,

210,4,1,52,29,1,

209,3,1,51,29,1,

208,4,1,51,29,1,

207,4,1,51,29,0,

206,3,1,51,29,1,

205,3,1,51,28,1,

204,4,1,51,28,1,

203,3,1,50,28,1,

203,4,1,50,28,1,

202,3,0,50,28,1,

199,3,1,50,28,1,

199,7,1,49,28,1,

199,7,1,49,28,1,

198,7,1,49,28,1,

197,7,1,49,27,1,

196,7,1,48,27,1,

195,7,1,48,27,1,

195,7,1,49,27,1,

194,7,1,60,27,1,

193,7,1,61,27,1,

199,7,1,61,27,0,

199,7,1,60,27,1,

198,7,1,60,27,0,

197,7,0,60,26,1,

195,7,1,60,26,1,

195,7,0,59,26,0,

194,7,1,59,25,1,

193,7,1,59,25,1,

192,7,0,58,25,1,

192,7,1,58,25,1,

191,7,0,57,25,1,

190,7,0,58,25,1,

189,7,1,57,25,1,

188,7,0,57,25,1,

187,7,1,57,25,1,

187,7,1,57,24,1,

185,6,1,56,24,1,

185,7,0,56,24,0,

184,7,1,56,24,1,

184,6,1,56,24,1,

183,7,1,55,24,1,

181,6,1,56,24,1,

180,6,1,55,24,1,

180,7,1,54,24,1,

179,6,1,54,24,1,

179,6,1,54,24,1,

192,6,1,53,24,0,

190,6,1,53,24,1,

189,6,1,53,23,0,

188,6,1,53,23,1,

188,6,0,53,23,1,

187,6,1,52,23,1,

186,6,1,52,23,1,

185,6,1,52,22,0,

184,6,1,51,22,1,

184,6,1,51,22,1,

183,6,1,51,22,1,

182,6,1,51,22,0,

180,6,1,51,22,1,

199,6,1,51,22,1,

198,6,0,51,24,0,

197,6,1,51,25,1,

196,6,1,51,25,0,

195,5,0,51,25,0,

194,5,1,50,25,1,

193,6,1,50,25,1,

192,11,1,50,25,1,

191,12,0,50,25,1,

190,12,1,50,24,0,

189,11,1,49,25,1,

188,11,1,49,24,0,

188,11,1,48,24,1,

187,11,1,49,24,1,

185,11,1,48,24,0,

185,11,1,48,24,0,

184,11,1,48,24,0,

183,11,1,48,24,1,

182,10,1,47,24,1,

181,10,1,47,23,1,

180,10,1,47,24,0,

179,10,1,47,23,1,

179,10,1,47,24,1,

178,10,1,47,23,1,

177,10,0,46,23,1,

214,10,1,46,23,1,

223,10,1,46,25,1,

221,12,1,46,37,1,

220,11,1,46,36,1,

219,11,1,45,36,1,

218,11,1,45,35,1,

216,11,0,45,35,0,

216,11,1,44,35,0,

215,11,1,45,35,1,

214,11,1,44,35,1,

212,11,1,44,35,0,

211,11,1,44,34,1,

210,11,1,44,34,0,

209,11,1,43,34,1,

208,11,1,43,34,1,

207,10,1,43,34,1,

206,11,1,43,34,0,

205,11,1,43,33,0,

204,10,1,42,33,1,

203,10,1,42,33,1,

202,10,0,42,33,1,

201,10,1,42,33,1,

199,10,0,42,32,0,

199,10,1,41,32,1,

199,10,1,41,32,1,

198,10,1,41,31,0,

196,10,0,41,31,1,

195,9,0,41,31,1,

195,10,1,41,31,1,

194,10,1,39,31,1,

193,9,1,39,31,0,

192,9,1,39,31,1,

191,9,1,39,30,1,

191,9,1,39,31,1,

190,9,1,39,30,0,

189,9,1,39,30,1,

188,9,0,39,30,0,

187,9,1,39,30,1,

222,9,1,39,30,1,

221,9,1,39,30,1,

220,8,0,38,30,0,

219,7,1,38,29,1,

217,7,0,38,29,0,

216,9,1,38,29,1,

216,9,1,38,29,1,

214,9,0,37,29,0,

213,7,1,37,29,1,

212,8,1,37,29,1,

211,7,1,37,28,0,

210,7,0,37,28,1,

209,7,1,37,28,1,

211,7,1,37,28,1,

210,7,0,37,29,1,

209,7,0,37,35,1,

207,7,1,36,35,1,

207,7,1,36,35,1,

206,7,1,36,35,1,

205,7,1,35,35,1,

204,7,0,35,34,1,

204,7,1,35,34,1,

203,7,1,35,34,1,

201,7,1,35,34,1,

201,7,1,35,33,1,

199,7,1,35,33,1,

199,7,1,35,34,1,

198,7,0,35,33,1,

197,7,1,34,33,1,

196,7,1,34,33,0,

195,7,1,34,32,1,

194,7,1,34,32,1,

193,7,1,34,31,1,

193,7,1,34,32,1,

192,7,0,33,32,1,

191,9,1,33,31,1,

190,9,1,33,31,1,

189,9,1,33,31,0,

189,9,1,33,31,1,

243,9,1,41,31,1,

242,9,1,39,31,1,

241,9,0,39,31,1,

240,9,1,39,30,1,

238,9,1,39,30,1,

237,9,1,39,30,1,

236,9,1,39,30,1,

235,9,1,39,30,1,

233,9,1,39,30,1,

231,9,1,38,30,0,

231,9,1,38,30,1,

230,8,0,38,29,1,

229,7,1,38,29,1,

228,7,1,38,29,1,

227,7,0,38,29,1,

226,8,1,38,29,0,

225,7,1,37,29,1,

224,7,1,37,29,1,

223,7,1,37,29,1,

222,7,0,36,28,1,

221,8,1,37,28,0,

220,7,0,36,28,1,

219,7,1,36,28,1,

217,7,0,36,27,1,

217,7,1,35,28,1,

216,7,1,36,28,1,

215,7,1,35,27,0,

215,7,1,35,28,1,

214,7,1,35,30,0,

213,7,1,35,30,1,

211,7,1,35,30,1,

211,7,1,35,30,1,

209,7,1,35,30,1,

208,7,0,34,29,0,

207,7,1,34,29,1,

207,7,1,34,29,1,

206,10,0,34,29,0,

205,10,1,33,29,1,

204,9,1,67,29,1,

203,10,1,118,29,1,

202,9,1,117,30,1,

201,9,1,116,30,1,

199,9,1,115,30,0,

199,9,1,115,29,1,

198,9,1,114,30,1,

197,9,1,113,29,1,

196,9,1,113,29,1,

195,9,1,112,29,1,

195,9,0,112,29,1,

194,9,1,112,29,0,

193,9,1,111,29,1,

192,8,0,110,29,1,

196,9,1,110,28,1,

195,9,0,109,28,1,

194,7,1,109,28,1,

193,7,0,108,28,1,

192,8,0,108,28,1,

191,8,0,107,28,0,

190,7,1,107,27,0,

189,8,1,106,27,1,

188,15,1,105,27,1,

188,22,1,105,27,0,

187,22,1,103,27,1,

186,21,1,103,27,1,

201,21,1,103,28,1,

199,21,1,103,46,1,

199,21,1,102,46,1,

197,21,1,102,46,1,

197,20,1,102,46,1,

195,20,1,101,45,1,

195,20,1,101,45,1,

193,20,1,100,45,1,

192,19,1,99,45,1,

191,20,1,99,44,0,

190,19,1,99,44,1,

204,19,1,98,44,1,

226,19,1,98,43,0,

224,19,1,97,43,1,

223,19,1,97,43,1,

222,19,1,96,43,1,

221,19,0,96,43,1,

220,19,1,96,42,1,

219,18,1,96,42,1,

217,18,1,95,42,1,

217,18,1,94,42,1,

216,18,0,94,41,0,

215,18,1,93,41,1,

214,18,1,93,41,1,

220,18,1,93,41,1,

218,18,1,93,41,1,

217,18,0,92,40,0,

216,17,1,92,39,1,

215,17,1,91,39,1,

214,17,1,91,39,1,

213,17,1,90,39,1,

211,17,1,90,39,0,

211,17,1,89,39,1,

210,17,1,89,39,1,

209,16,1,89,38,0,

207,16,1,88,38,1,

207,17,1,88,38,1,

206,17,0,88,38,1,

205,17,1,88,39,1,

204,17,1,88,39,1,

203,16,1,86,39,1,

202,16,0,86,39,1,

201,16,1,86,38,1,

199,16,0,85,38,1,

199,15,1,85,38,1,

198,16,1,84,37,1,

197,15,1,85,37,1,

195,15,1,84,37,1,

195,16,1,83,37,1,

194,15,0,83,37,1,

194,15,1,83,36,1,

193,15,1,82,36,1,

192,15,1,82,36,1,

191,15,1,82,36,1,

190,15,1,81,36,1,

189,14,1,81,35,1,

188,15,1,81,35,1,

187,15,1,80,35,1,

187,15,1,80,35,1,

186,15,1,79,35,1,

185,14,1,79,35,1,

198,14,1,79,34,1,

196,14,1,78,34,1,

195,14,0,78,34,1,

195,14,1,78,34,1,

194,14,1,78,34,1,

193,14,1,77,34,1,

192,14,1,77,33,1,

191,14,0,77,33,1,

190,13,1,76,33,1,

189,13,1,76,33,1,

188,13,1,76,32,1,

188,13,1,76,32,1,

192,13,1,75,32,1,

211,13,1,75,32,1,

210,13,1,75,32,1,

209,13,1,74,32,1,

207,13,1,73,31,1,

207,13,1,73,31,1,

206,13,1,73,31,1,

205,13,1,73,31,1,

204,12,1,71,31,1,

203,12,1,72,31,2,

202,12,1,71,31,1,

201,12,1,71,31,1,

199,12,1,71,31,1,

217,12,1,71,31,1,

216,12,1,71,30,1,

215,12,1,71,30,1,

213,12,1,70,31,1,

212,11,1,70,30,1,

211,12,1,70,30,1,

210,12,1,69,30,1,

209,12,1,69,30,1,

207,12,1,68,29,1,

207,11,1,68,29,1,

206,11,1,67,29,1,

205,11,1,68,29,1,

204,11,1,67,29,1,

204,11,1,67,29,1,

203,11,1,67,31,1,

201,11,1,66,31,1,

199,11,1,66,31,1,

199,12,1,66,31,1,

198,11,2,66,31,1,

197,11,1,65,31,1,

196,11,1,65,30,1,

195,11,1,65,30,1,

194,11,1,64,30,1,

194,11,1,64,30,1,

193,11,2,64,30,1,

192,11,1,63,29,1,

191,10,1,63,31,1,

190,10,1,63,31,2,

189,10,1,63,30,1,

188,10,1,62,30,1,

187,10,1,62,30,1,

186,10,1,62,30,1,

185,9,1,62,30,1,

185,10,1,61,30,1,

184,10,1,61,29,1,

183,10,1,61,29,1,

182,10,1,61,29,2,

207,9,1,60,29,1,

206,10,1,60,29,1,

205,9,1,60,29,1,

204,10,1,60,28,1,

203,9,1,59,29,1,

202,9,1,60,29,1,

201,9,1,59,29,1,

199,9,1,59,28,1,

199,9,1,59,28,1,

198,9,1,58,28,1,

197,9,1,57,28,1,

196,9,1,58,28,1,

195,9,1,57,28,1,

217,9,1,57,27,1,

216,9,1,57,38,2,

215,9,1,57,45,1,

214,9,1,57,44,1,

213,9,1,56,44,1,

211,9,1,56,43,1,

211,8,2,56,43,1,

209,7,1,56,43,1,

208,9,1,56,43,2,

207,9,1,55,43,1,

207,9,1,55,43,1,

206,9,1,55,42,1,

205,9,1,55,42,1,

230,9,1,55,41,1,

229,7,1,54,42,1,

227,8,1,54,41,1,

226,8,1,54,41,1,

225,8,1,54,41,1,

224,7,1,53,40,1,

223,7,1,53,39,2,

222,7,1,53,39,1,

221,7,1,52,39,1,

220,7,2,52,39,1,

219,7,1,52,39,1,

217,7,1,51,39,1,

217,7,1,51,39,1,

221,7,1,51,39,1,

220,7,1,51,38,1,

219,7,1,51,39,1,

218,7,1,51,38,1,

217,7,1,50,38,1,

216,7,1,50,38,1,

215,7,1,50,38,1,

214,7,1,50,38,1,

213,7,1,50,37,1,

211,7,1,49,37,1,

211,7,1,49,37,1,

210,7,1,49,37,1,

209,7,1,49,37,1,

208,7,1,49,37,1,

207,7,1,48,37,1,

206,7,1,48,37,1,

205,7,1,48,37,1,

204,7,1,48,36,1,

203,7,1,48,36,1,

203,7,1,47,36,1,

201,7,1,47,35,1,

201,7,1,47,35,1,

199,6,1,47,35,1,

199,7,1,47,35,1,

198,6,1,46,35,1,

197,7,1,46,35,1,

203,6,1,46,35,1,

201,7,1,46,45,1,

201,7,1,46,45,1,

199,7,1,46,45,1,

199,6,1,45,44,1,

198,6,1,45,44,1,

197,7,1,45,44,1,

195,6,1,45,44,1,

195,6,1,45,44,1,

195,6,1,44,43,1,

193,6,1,44,43,1,

192,6,1,44,43,1,

192,6,1,44,43,1,

196,6,1,43,42,1,

195,6,1,43,43,1,

194,6,1,43,42,1,

193,6,1,43,42,1,

193,6,1,43,41,1,

192,5,1,43,41,1,

191,6,1,42,41,1,

190,6,1,42,41,1,

189,6,1,42,41,1,

188,6,1,41,41,1,

187,6,1,41,39,1,

186,6,1,42,41,1,

185,6,1,51,39,1,

243,5,1,51,39,1,

244,6,1,50,39,1,

243,5,1,50,39,0,

241,5,1,50,39,1,

240,6,1,50,39,1,

239,6,1,49,39,1,

238,5,1,49,38,0,

236,5,1,49,39,1,

236,5,1,48,38,0,

234,5,1,48,38,1,

233,6,0,48,38,1,

231,5,1,48,38,1,

231,6,1,48,38,1,

230,5,1,47,37,1,

229,5,1,48,38,1,

228,5,0,47,37,1,

227,5,1,47,37,1,

225,5,1,46,36,1,

224,5,1,46,36,1,

224,5,1,46,36,1,

222,5,1,46,35,1,

221,6,1,46,35,1,

220,5,1,46,35,1,

220,5,1,45,35,1,

219,5,1,45,35,1,

217,5,1,45,35,1,

219,5,1,47,35,1,

220,5,1,46,34,1,

219,5,1,46,35,1,

218,7,1,46,34,1,

217,7,1,46,34,1,

216,7,1,45,34,1,

215,7,1,45,34,1,

214,7,1,45,33,1,

213,7,1,45,62,1,

212,7,1,45,71,1,

211,7,1,45,70,0,

210,7,1,44,69,1,

209,7,1,44,69,1,

208,7,1,44,69,1,

207,7,1,44,68,1,

206,7,1,44,68,1,

206,7,1,43,67,1,

204,7,1,43,67,1,

204,7,1,43,67,0,

203,12,1,43,67,1,

201,14,1,42,66,1,

201,14,1,41,66,1,

199,14,1,95,65,1,

199,14,1,100,65,1,

198,14,1,99,64,1,

197,14,0,99,65,1,

195,13,1,98,64,1,

195,13,1,98,63,1,

194,14,1,97,63,1,

193,13,1,97,63,1,

193,23,1,96,63,1,

192,30,1,96,63,1,

191,30,1,95,62,1,

190,29,1,95,62,1,

189,29,1,95,62,1,

188,29,1,94,62,1,

188,29,1,94,61,1,

187,29,0,93,61,1,

192,28,1,93,60,1,

220,28,1,92,60,0,

219,28,1,92,60,1,

217,28,1,91,60,1,

217,28,1,91,59,1,

216,28,1,91,71,1,

215,28,1,90,77,0,

213,27,1,89,76,1,

212,27,0,89,76,0,

211,27,1,89,75,1,

210,27,0,88,75,1,

209,27,1,88,75,1,

207,27,0,88,74,1,

207,26,0,88,73,1,

206,26,1,87,73,1,

205,26,1,87,73,1,

205,26,1,86,71,1,

203,26,1,86,72,1,

203,25,1,85,71,1,

201,25,1,85,71,1,

199,25,1,85,71,1,

199,25,1,84,71,1,

199,24,1,83,70,1,

198,25,1,83,70,1,

197,25,1,83,69,1,

195,24,1,82,69,1,

195,24,1,82,77,1,

194,24,1,81,102,1,

193,24,1,81,107,1,

192,24,1,81,106,1,

191,24,0,80,105,1,

190,24,1,80,103,2,

189,24,1,79,103,1,

188,24,1,79,103,1,

188,23,1,79,103,1,

187,23,1,79,102,1,

185,23,1,78,120,1,

262,23,1,87,118,1,

259,23,1,87,118,1,

258,22,1,86,117,1,

255,22,1,86,116,1,

254,22,1,85,115,1,

253,22,1,85,115,1,

252,22,0,84,114,1,

250,22,1,84,113,1,

249,22,1,83,113,1,

248,36,1,83,112,0,

246,47,1,83,112,1,

245,47,1,83,112,1,

243,47,1,82,111,1,

243,46,1,81,110,1,

241,46,1,81,110,1,

240,45,1,80,109,1,

239,46,1,80,109,1,

237,45,1,79,108,1,

236,44,1,79,108,1,

235,44,1,79,107,1,

234,53,1,79,106,1,

233,55,1,79,106,1,

231,55,1,78,105,1,

231,54,1,78,105,1,

229,54,1,108,193,1,

228,54,1,130,281,2,

227,53,1,129,281,1,

226,53,1,128,280,1,

224,52,1,127,277,1,

224,52,1,127,275,1,

222,52,1,125,273,1,

221,52,1,125,271,1,

220,51,1,124,270,1,

219,51,1,124,268,1,

217,50,1,123,267,1,

216,50,1,122,265,1,

216,50,1,121,263,1,

214,50,1,121,263,1,

213,50,1,121,261,1,

211,49,1,120,259,1,

211,49,1,119,258,1,

210,48,1,119,255,1,

208,49,1,118,255,1,

207,48,1,117,254,1,

207,48,1,117,252,1,

206,48,1,116,251,1,

281,47,1,115,249,1,

278,47,1,115,248,1,

275,47,1,114,248,1,

274,46,1,113,246,1,

271,46,1,113,245,1,

271,46,1,113,319,1,

270,46,1,120,418,1,

268,45,1,125,490,1,

267,61,1,125,486,1,

265,64,1,124,481,1,

263,63,1,124,478,1,

263,63,1,122,474,1,

261,63,2,122,470,1,

259,63,1,121,467,1,

259,62,1,121,463,1,

257,62,1,120,462,2,

255,61,1,120,458,1,

254,61,2,119,455,2,

252,61,2,118,451,1,

251,77,1,118,449,1,

249,77,1,117,447,2,

248,76,2,117,443,1,

248,75,2,116,440,2,

246,75,1,115,438,1,

245,75,2,115,434,2,

243,74,1,114,432,1,

242,73,2,114,429,2,

241,73,1,113,427,2,

240,73,1,112,423,2,

238,71,2,112,421,2,

237,71,2,112,419,1,

236,71,2,111,415,2,

235,71,2,110,414,2,

234,71,2,111,478,2,

231,71,2,111,475,2,

231,70,2,110,472,1,

230,69,2,110,468,2,

229,69,2,109,465,2,

227,69,2,109,462,2,

226,68,2,108,458,2,

225,68,1,107,455,2,

224,67,2,107,452,2,

223,67,2,107,450,2,

222,67,2,106,446,2,

221,66,2,106,444,3,

220,67,2,163,441,2,

219,65,3,171,499,2,

217,66,2,169,620,2,

216,65,2,167,636,2,

216,65,2,167,631,2,

214,64,2,166,625,2,

213,64,3,165,619,3,

211,63,2,164,615,2,

211,63,2,163,609,2,

210,63,2,162,605,2,

208,63,3,162,600,2,

253,62,2,161,594,2,

251,62,2,159,590,2,

250,62,2,159,585,2,

248,61,2,158,582,3,

247,61,2,157,577,2,

245,61,2,157,573,2,

244,60,2,156,568,2,

243,60,2,155,563,2,

241,60,3,155,560,2,

240,60,2,153,556,2,

239,59,3,153,553,3,

237,59,3,152,548,2,

236,59,2,151,543,2,

235,58,3,151,540,2,

233,58,2,150,536,2,

231,57,2,149,534,2,

231,57,2,148,529,2,

230,57,2,147,525,2,

228,57,3,147,523,3,

227,56,2,146,574,3,

226,56,2,145,689,3,

225,56,3,145,679,3,

224,56,2,143,675,3,

222,55,2,143,667,3,

221,55,2,143,661,2,

220,55,3,142,655,2,

219,54,3,141,650,3,

218,54,3,141,646,2,

217,54,3,140,639,3,

216,53,3,139,634,3,

215,53,2,139,630,2,

213,53,2,138,624,2,

212,52,2,137,620,2,

233,53,2,137,615,2,

269,52,3,135,609,3,

267,52,2,135,605,2,

265,52,2,135,600,3,

263,51,2,135,596,2,

263,51,2,134,591,2,

261,51,2,133,587,2,

259,51,2,132,583,2,

258,50,2,131,578,2,

256,50,2,131,574,3,

255,49,2,130,569,3,

254,49,3,130,567,2,

275,67,2,129,562,2,

273,67,2,129,557,2,

271,67,2,127,554,3,

270,67,2,127,550,2,

268,67,2,127,547,2,

267,66,2,127,543,2,

266,73,2,182,539,3,

263,73,2,201,536,3,

263,80,2,199,531,2,

261,79,3,198,527,3,

259,79,2,197,524,2,

258,78,2,195,521,2,

257,78,3,194,518,2,

255,77,2,193,513,2,

254,77,2,192,510,3,

252,76,3,192,507,3,

252,76,2,190,504,2,

250,76,2,189,501,2,

249,75,2,189,497,3,

247,75,2,188,495,3,

245,75,2,187,491,2,

245,74,3,185,488,2,

243,74,2,185,485,2,

242,73,2,184,481,2,

241,73,2,183,479,3,

239,71,2,182,476,3,

238,71,3,181,473,3,

237,71,2,180,470,3,

236,71,2,179,467,3,

235,71,2,178,464,3,

233,70,3,177,462,3,

231,70,3,176,459,2,

231,70,2,176,455,3,

230,69,3,175,454,3,

228,69,2,174,451,2,

227,68,3,173,448,2,

226,68,3,172,446,2,

225,68,3,172,443,2,

224,67,2,171,441,2,

223,67,3,170,438,3,

222,137,2,170,435,2,

220,147,2,169,433,3,

219,146,2,167,430,2,

217,145,3,167,428,3,

217,143,3,167,425,2,

216,143,2,166,423,3,

215,142,2,165,419,3,

213,141,2,163,418,3,

212,162,2,163,415,2,

211,161,2,162,412,2,

209,159,2,162,410,3,

208,159,2,161,408,2,

207,158,2,160,405,2,

207,157,2,159,403,2,

206,156,2,158,401,2,

205,155,2,157,398,2,

204,154,2,157,396,3,

202,153,2,156,393,2,

201,152,2,155,391,2,

199,152,2,155,390,2,

199,150,2,153,387,3,

198,150,2,153,385,3,

197,149,2,152,384,2,

196,148,2,152,381,2,

195,147,2,151,378,2,

194,146,2,150,376,3,

258,146,2,150,375,2,

255,145,2,149,373,2,

255,143,2,148,371,2,

253,143,2,147,368,2,

251,143,2,147,366,3,

250,142,2,146,364,2,

248,141,2,145,363,2,

247,140,3,144,359,3,

246,140,2,143,359,3,

244,138,2,143,357,2,

243,138,2,142,355,2,

241,137,2,142,353,2,

240,135,2,141,351,2,

239,135,2,140,349,2,

237,135,2,140,348,2,

236,134,2,139,345,2,

235,134,2,139,344,2,

233,133,2,137,342,2,

231,132,2,137,339,2,

231,131,2,137,338,2,

230,131,2,135,336,2,

228,130,2,135,335,2,

227,130,2,135,333,2,

226,129,2,134,331,2,

224,128,2,134,329,2,

223,127,2,135,327,2,

222,127,2,139,326,2,

221,126,2,138,324,2,

220,125,2,142,323,1,

218,125,2,142,321,2,

217,124,2,141,319,2,

223,124,2,141,318,2,

307,123,2,140,316,2,

304,122,2,139,315,2,

302,122,2,137,313,2,

300,121,1,137,312,2,

298,120,2,135,310,2,

295,120,2,135,309,2,

295,120,2,135,307,2,

293,119,1,134,305,2,

291,118,2,134,304,2,

289,117,2,176,303,2,

287,117,2,253,301,2,

286,116,2,250,300,2,

284,115,2,249,298,2,

282,115,2,247,295,2,

281,115,1,245,295,2,

280,114,2,244,294,2,

278,113,2,243,292,2,

276,113,1,241,291,2,

274,112,2,240,289,1,

273,112,2,238,287,2,

271,111,1,237,286,2,

278,111,2,236,285,2,

275,110,1,235,284,2,

274,109,2,233,283,2,

273,109,2,231,281,2,

271,108,1,231,280,2,

269,108,1,230,279,2,

268,107,1,228,277,2,

266,107,1,227,275,2,

265,106,2,226,274,2,

263,106,1,224,273,2,

262,105,2,223,271,2,

261,103,2,222,270,2,

259,103,2,221,269,2,

257,103,1,220,268,1,

256,103,2,219,267,1,

254,103,2,217,265,1,

253,102,1,217,263,2,

252,102,1,216,263,2,

250,101,2,215,262,1,

249,101,1,213,260,2,

248,100,2,212,259,2,

246,99,1,211,258,1,

245,99,1,210,257,1,

244,99,1,209,255,1,

243,98,2,207,254,1,

241,97,1,207,253,1,

240,97,2,206,252,2,

239,97,1,205,251,1,

238,96,2,204,250,1,

237,96,1,203,249,1,

235,96,1,203,248,1,

234,95,2,201,247,1,

233,95,1,201,246,1,

233,94,1,199,245,2,

231,94,1,199,243,2,

231,93,2,198,243,1,

229,93,2,196,242,2,

228,92,2,195,240,2,

227,92,1,221,240,1,

226,92,1,220,238,2,

224,91,1,219,237,1,

224,91,1,217,236,1,

222,90,2,217,235,2,

221,89,2,216,235,1,

221,89,2,215,233,2,

220,106,1,213,231,1,

219,106,1,212,231,2,

218,105,2,211,230,1,

216,105,1,210,229,1,

216,103,1,209,227,1,

214,103,1,207,227,1,

213,103,1,206,226,1,

211,102,1,205,225,2,

211,102,1,204,224,1,

210,101,1,204,223,2,

289,101,1,201,222,1,

287,100,2,201,221,1,

285,99,1,199,220,1,

283,99,1,199,219,1,

281,98,2,198,218,2,

280,98,2,197,217,1,

278,97,1,196,216,2,

276,96,1,195,216,1,

275,96,1,195,215,1,

273,96,2,196,214,2,

271,96,1,224,214,2,

355,95,1,223,212,1,

352,94,1,221,211,1,

349,94,2,220,210,1,

347,93,2,219,209,1,

345,93,1,217,208,1,

343,93,1,217,207,2,

340,92,2,216,206,1,

339,91,1,214,205,1,

336,91,1,213,205,1,

334,91,1,211,204,1,

332,90,1,211,203,1,

331,90,2,210,202,1,

329,89,2,209,201,2,

327,89,2,207,199,1,

324,88,1,207,199,1,

323,88,2,206,199,1,

321,88,1,205,198,1,

319,88,2,204,197,1,

318,87,1,203,197,2,

316,87,2,201,195,1,

314,86,2,200,195,2,

312,86,1,199,194,1,

311,85,2,199,193,2,

309,85,2,198,192,1,

307,84,1,196,192,1,

305,83,2,195,191,1,

304,83,1,313,190,1,

302,83,1,319,189,1,

300,83,1,316,188,1,

299,82,1,315,188,2,

297,82,2,313,187,1,

295,81,2,311,186,2,

294,81,2,309,185,1,

292,81,1,307,185,1,

291,84,1,305,184,2,

289,83,1,304,183,2,

287,83,1,302,182,1,

286,83,2,300,181,2,

285,82,2,298,180,2,

284,82,2,297,179,1,

282,81,2,295,179,1,

281,81,2,294,178,1,

279,80,2,292,178,1,

278,79,1,291,177,1,

276,79,2,289,176,1,

275,79,1,287,176,2,

273,79,1,286,175,2,

271,78,1,285,174,2,

271,78,1,283,174,1,

269,78,1,281,173,1,

268,77,2,280,172,1,

267,77,1,279,171,1,

265,76,2,277,171,2,

263,76,1,275,170,2,

263,76,1,274,169,1,

261,76,1,273,167,1,

259,75,1,271,167,2,

259,75,2,270,167,1,

257,90,2,268,167,1,

255,89,1,268,166,1,

255,88,1,266,165,2,

253,88,2,265,164,1,

252,88,1,263,163,1,

251,88,1,262,163,1,

249,87,1,261,162,1,

248,86,1,259,162,2,

248,86,1,259,161,1,

246,85,1,257,160,1,

245,85,1,255,185,2,

243,84,1,255,184,1,

242,83,2,253,184,1,

241,83,1,252,182,1,

240,83,1,251,181,1,

239,83,1,250,180,1,

237,82,1,248,179,1,

236,82,1,248,178,1,

235,81,1,246,177,1,

234,81,1,245,176,1,

233,80,1,243,176,1,

231,99,1,243,175,1,

231,99,1,242,174,1,

230,98,1,240,173,1,

228,98,1,239,172,2,

227,97,1,238,171,1,

226,97,1,237,170,1,

225,96,1,236,169,1,

224,96,1,235,167,1,

223,96,1,233,167,1,

222,95,1,231,167,1,

221,94,1,231,166,1,

220,94,1,231,165,1,

219,93,1,319,164,1,

217,93,1,316,163,1,

217,93,1,314,163,1,

216,92,1,312,162,1,

214,92,2,311,161,1,

214,91,1,309,160,1,

212,91,1,307,159,1,

211,90,1,305,159,1,

210,89,1,304,159,2,

252,176,1,302,158,1,

273,199,1,300,157,1,

271,197,1,298,156,1,

269,195,1,295,156,1,

267,194,1,295,155,1,

266,193,1,293,154,1,

263,192,1,348,153,1,

263,191,1,345,153,1,

261,190,1,344,153,1,

259,188,1,341,152,1,

258,188,1,339,152,2,

263,186,1,335,151,1,

262,185,1,335,150,1,

260,184,1,332,149,1,

259,184,1,345,149,1,

257,183,1,417,154,1,

255,182,1,413,153,1,

254,180,1,411,152,1,

253,179,1,408,152,1,

251,178,1,404,151,1,

249,177,1,402,150,1,

248,176,1,399,149,1,

275,176,1,397,148,1,

273,175,1,394,147,1,

271,173,1,391,147,1,

270,172,1,390,146,1,

268,172,1,387,146,1,

266,171,1,384,145,1,

265,170,1,382,144,1,

263,169,1,380,143,1,

262,167,1,377,143,1,

260,167,1,376,143,1,

359,167,1,373,142,1,

357,166,1,371,141,1,

355,164,1,369,141,1,

352,164,1,366,140,1,

349,163,1,364,140,1,

347,162,1,362,139,1,

345,161,1,359,139,1,

343,160,1,358,138,1,

340,159,1,355,137,1,

339,159,1,355,137,1,

336,158,1,352,135,1,

358,157,1,350,135,1,

492,156,1,348,135,1,

485,156,1,346,134,1,

481,155,1,344,134,1,

478,154,1,343,134,1,

474,153,1,340,133,1,

470,153,1,338,132,1,

467,152,1,337,131,1,

463,151,1,335,131,1,

460,150,1,333,131,1,

457,150,1,331,130,1,

455,189,1,329,130,1,

451,206,1,327,129,1,

448,204,1,326,128,1,

445,203,1,323,127,1,

442,201,1,323,127,1,

440,199,1,320,127,1,

436,199,1,319,126,1,

433,198,1,317,126,1,

431,197,2,316,125,1,

428,195,1,314,125,2,

425,195,1,312,124,1,

422,193,1,311,123,1,

419,193,1,309,123,1,

417,192,1,307,123,1,

415,190,1,305,122,1,

412,189,1,304,121,1,

409,188,1,302,121,1,

406,187,2,301,120,1,

403,186,1,299,120,1,

401,185,1,297,120,1,

399,184,2,295,119,1,

397,183,1,295,118,1,

394,182,1,293,118,1,

391,181,1,291,117,1,

389,179,1,290,117,1,

387,179,1,289,116,1,

385,178,1,287,116,1,

382,177,2,286,115,1,

380,176,1,284,115,1,

378,175,1,283,114,1,

376,174,1,281,114,1,

373,173,1,280,113,1,

371,172,2,279,113,1,

369,171,1,278,113,1,

367,171,1,276,112,1,

365,169,1,275,112,1,

363,169,1,273,111,1,

359,167,1,271,110,1,

359,167,1,271,110,2,

356,167,1,269,110,1,

355,165,1,268,109,1,

352,164,1,267,109,2,

350,163,1,265,108,1,

348,163,1,263,108,1,

346,162,1,263,107,1,

344,161,1,261,107,1,

343,160,1,260,107,1,

341,159,1,259,106,1,

339,159,1,258,106,1,

337,158,1,257,105,1,

335,157,1,255,104,1,

333,156,1,254,105,1,

332,156,1,253,103,1,

330,155,1,252,103,1,

327,154,1,251,103,1,

326,153,1,249,103,1,

325,152,1,248,102,1,

323,152,1,247,102,1,

321,151,1,246,101,1,

319,150,1,245,101,1,

317,149,1,243,100,1,

316,149,1,242,100,1,

314,147,1,241,99,1,

312,147,1,240,99,1,

312,147,1,239,99,1,

309,145,1,238,99,1,

307,145,1,236,98,1,

306,144,1,236,98,1,

305,143,1,235,97,1,

303,143,1,233,97,1,

302,142,1,233,97,1,

300,142,1,231,96,1,

299,141,1,231,96,1,

297,140,1,230,96,1,

295,140,1,229,96,1,

295,139,1,227,95,1,

293,139,1,226,94,1,

291,137,1,225,94,1,

290,137,1,224,94,1,

288,137,1,224,93,1,

287,135,1,222,93,1,

286,135,1,221,92,1,

284,135,1,220,92,1,

283,134,1,219,92,1,

281,133,1,219,91,1,

280,133,1,217,91,1,

279,132,1,216,90,1,

278,131,1,216,90,1,

276,131,1,215,90,1,

275,130,1,214,89,1,

273,129,1,213,89,1,

271,129,1,212,89,1,

271,128,1,211,88,1,

270,127,1,210,88,1,

268,127,1,209,88,1,

267,127,1,208,87,1,

266,126,1,207,87,1,

263,125,1,207,87,1,

263,124,1,205,86,1,

262,124,1,205,86,1,

261,124,1,204,85,1,

259,123,1,203,85,1,

258,123,1,202,85,1,

257,121,1,201,85,1,

255,121,1,199,84,1,

254,120,1,199,84,1,

253,120,1,199,83,1,

252,120,1,198,83,1,

251,120,1,197,83,1,

250,119,1,196,83,1,

248,118,1,195,82,1,

248,118,1,195,82,1,

246,117,1,193,81,1,

245,116,1,193,81,1,

243,116,1,192,81,1,

243,115,1,192,81,1,

242,115,1,190,80,1,

241,114,1,190,79,1,

240,114,1,189,79,2,

238,113,1,188,79,1,

237,113,1,187,79,1,

236,112,1,187,79,1,

235,112,1,185,78,1,

234,112,1,185,78,1,

233,110,1,184,77,1,

231,110,1,184,77,1,

231,110,1,182,77,1,

230,109,0,182,77,1,

229,109,1,181,76,1,

227,108,1,180,76,1,

226,108,1,179,76,1,

226,107,1,179,75,1,

225,107,1,177,75,1,

224,106,1,177,75,1,

222,105,1,177,75,1,

221,105,1,176,74,1,

220,105,1,175,74,1,

219,103,1,174,73,1,

218,103,1,173,73,1,

217,103,1,172,73,1,

217,103,1,173,73,1,

216,102,1,171,71,1,

215,102,1,171,72,1,

213,102,1,170,71,1,

212,101,1,169,71,1,

211,100,1,169,71,1,

210,100,1,167,71,1,

209,99,1,167,71,1,

209,99,1,167,70,1,

207,98,0,166,70,1,

207,98,1,165,70,1,

206,97,1,165,70,1,

205,98,1,164,69,1,

204,97,1,163,69,1,

237,103,1,163,69,1,

235,107,1,162,68,1,

233,106,1,161,68,1,

231,106,1,161,67,1,

231,105,1,159,67,1,

230,103,1,159,67,1,

228,103,0,159,67,1,

227,103,1,158,67,2,

226,103,1,157,66,2,

224,103,1,157,66,1,

223,102,1,156,66,1,

231,101,1,156,65,1,

230,101,1,155,65,1,

228,100,1,154,65,1,

227,99,1,153,64,1,

226,99,1,153,64,1,

224,98,1,172,63,1,

223,98,1,280,64,1,

222,98,1,283,63,1,

221,97,1,281,63,1,

220,96,1,279,63,1,

218,96,1,277,63,1,

217,96,1,275,62,1,

216,95,1,274,63,1,

215,95,1,273,62,1,

214,94,1,271,62,1,

213,94,1,270,61,1,

212,94,1,268,62,1,

211,94,1,267,61,1,

210,93,1,266,61,0,

209,92,1,263,61,1,

207,92,1,263,61,1,

207,91,1,262,60,1,

206,92,1,260,60,1,

205,91,1,259,60,1,

205,90,1,257,60,1,

205,90,1,255,59,1,

203,90,1,255,59,1,

203,89,1,254,59,1,

201,89,1,252,59,1,

199,88,1,252,58,1,

199,88,1,250,58,1,

199,88,1,249,58,1,

198,88,1,248,57,0,

197,87,0,247,57,1,

196,87,1,245,57,1,

195,86,1,243,57,1,

195,86,1,243,57,1,

194,86,1,242,56,1,

193,85,1,241,56,1,

192,85,1,240,56,1,

192,84,1,239,56,1,

190,83,1,238,56,1,

190,84,0,236,56,1,

189,83,1,235,56,1,

188,83,1,234,56,1,

188,83,1,233,55,1,

186,82,1,231,55,1,

186,82,1,231,55,1,

185,82,1,230,54,1,

184,81,1,228,54,1,

184,81,1,227,54,1,

183,81,1,227,53,1,

182,79,1,226,54,1,

180,79,1,225,53,1,

180,79,1,224,53,1,

179,79,1,223,53,1,

179,79,1,222,52,1,

177,79,1,221,52,1,

177,78,1,220,52,1,

204,78,1,219,51,1,

203,77,1,217,51,1,

201,77,1,216,51,1,

199,76,1,216,51,1,

199,76,1,215,51,1,

198,76,1,214,51,1,

197,76,1,213,51,0,

195,75,1,211,50,0,

195,75,1,211,50,1,

194,75,1,210,50,1,

193,75,1,209,50,1,

192,74,1,207,49,1,

192,74,1,207,49,1,

191,73,1,206,49,1,

190,73,1,205,49,1,

189,73,1,204,49,1,

188,73,0,204,49,1,

187,71,1,203,48,1,

187,71,1,202,48,1,

185,71,1,201,48,1,

184,71,1,199,48,1,

183,71,1,199,47,1,

183,71,1,198,47,1,

183,70,1,198,47,1,

184,70,1,196,47,1,

182,70,1,195,47,1,

181,69,0,195,47,1,

180,69,1,194,46,1,

179,69,1,193,46,1,

179,68,1,192,46,1,

178,67,1,192,46,1,

177,67,1,191,45,1,

176,67,1,190,45,1,

175,67,1,189,45,1,

175,67,1,188,46,1,

206,67,1,187,45,1,

208,67,1,186,45,1,

207,66,1,186,44,1,

206,66,1,185,44,1,

205,66,1,184,44,1,

204,65,0,184,44,1,

203,65,1,183,44,1,

201,64,1,182,44,1,

199,64,1,181,43,1,

199,64,1,180,43,1,

199,63,1,179,43,1,

