
33,23,4,54,127,5,

33,23,3,54,127,4,

33,23,3,54,127,3,

33,22,3,53,126,3,

32,22,4,53,126,3,

33,22,3,53,125,3,

32,22,4,52,124,3,

31,22,3,52,124,4,

31,22,3,53,123,3,

31,22,3,52,123,4,

31,22,3,51,122,3,

31,22,3,51,121,4,

31,21,3,51,122,3,

31,21,3,51,120,3,

31,20,4,50,120,3,

31,20,4,51,120,4,

31,20,4,51,119,3,

31,21,4,50,119,4,

31,21,4,54,118,4,

30,21,4,56,118,4,

34,22,4,55,117,4,

34,22,4,54,116,3,

33,22,4,54,115,4,

34,22,3,54,115,4,

34,22,4,54,115,3,

33,21,3,53,115,4,

33,21,4,54,114,4,

32,21,3,53,113,5,

31,22,4,53,113,3,

33,21,3,53,112,3,

31,21,3,53,112,4,

32,21,4,52,112,3,

31,21,4,51,111,4,

31,21,3,51,110,4,

32,20,4,51,110,4,

31,21,4,51,110,3,

31,20,4,51,109,3,

31,20,3,51,108,4,

31,20,4,50,108,5,

31,20,3,51,108,3,

31,21,3,49,107,3,

31,20,3,50,107,3,

31,19,3,49,107,4,

30,20,3,49,106,4,

30,19,3,49,105,4,

31,20,3,48,104,3,

30,19,3,48,105,4,

31,19,3,48,103,3,

31,19,3,48,103,4,

31,19,3,48,103,3,

30,19,3,48,103,4,

30,19,3,48,102,3,

30,19,3,47,101,4,

29,18,5,46,102,4,

29,19,4,46,100,3,

30,18,3,46,100,4,

29,18,4,46,99,3,

30,20,3,46,99,4,

29,20,4,46,99,4,

29,20,4,46,99,3,

29,19,3,46,99,3,

29,19,3,45,97,3,

28,19,3,45,97,3,

29,19,3,45,97,3,

28,19,4,44,96,4,

29,19,3,45,96,4,

28,18,3,44,96,4,

28,19,3,45,96,3,

28,18,4,44,95,3,

28,19,4,44,94,4,

31,19,3,44,94,3,

30,19,4,43,93,3,

30,19,4,43,94,3,

31,18,3,43,94,3,

30,18,4,43,93,4,

30,18,3,42,92,3,

30,17,4,42,92,3,

30,18,4,42,92,3,

30,18,4,43,91,4,

29,18,3,42,91,4,

30,18,3,41,91,3,

29,17,3,41,91,4,

30,17,3,41,89,3,

29,18,3,41,89,3,

29,18,3,41,90,3,

29,18,3,41,88,3,

29,17,3,39,88,3,

29,18,3,39,88,4,

28,18,3,39,88,5,

28,17,3,39,88,4,

29,18,4,39,87,3,

28,18,4,39,87,4,

28,17,4,39,86,4,

27,18,3,39,86,3,

28,17,4,39,86,4,

27,17,3,39,86,3,

27,17,3,39,88,4,

28,17,3,38,88,4,

27,18,4,39,87,3,

28,17,4,38,87,3,

27,18,3,39,86,5,

27,18,4,38,86,3,

26,17,3,38,86,3,

26,17,3,38,85,3,

26,17,4,37,84,3,

26,16,4,37,84,3,

26,17,3,37,84,4,

26,17,3,37,84,3,

26,16,3,37,83,3,

28,24,4,37,83,3,

33,25,4,36,83,3,

33,25,3,37,82,4,

31,25,4,36,82,4,

31,25,4,35,81,3,

31,25,3,35,82,3,

31,25,3,35,81,4,

31,24,3,35,80,4,

31,25,4,35,80,4,

31,24,4,35,79,4,

31,24,4,35,79,4,

30,24,4,35,79,4,

31,24,3,35,79,4,

30,24,3,35,78,3,

30,24,4,34,79,3,

30,24,4,35,78,3,

30,24,3,34,78,3,

30,24,3,34,77,4,

30,24,3,33,77,4,

29,24,3,34,77,3,

30,24,3,33,76,3,

29,24,3,33,76,4,

30,23,4,33,76,4,

29,23,3,33,75,4,

29,24,3,32,76,4,

29,23,3,33,76,4,

29,24,4,32,75,3,

29,24,4,33,75,4,

28,23,3,32,74,4,

28,23,3,31,74,3,

28,22,4,32,74,3,

28,23,4,31,73,3,

28,22,4,31,73,4,

28,22,3,32,71,4,

28,22,4,31,73,4,

28,22,3,31,72,3,

28,22,3,31,71,3,

28,21,3,31,71,4,

27,22,3,31,71,5,

28,22,4,31,71,3,

30,31,3,30,71,3,

30,33,3,30,71,4,

29,32,3,30,70,3,

30,33,3,30,70,4,

29,31,3,30,69,4,

29,32,4,30,70,4,

29,31,4,29,69,4,

29,31,4,30,69,4,

29,31,4,29,68,4,

29,31,3,29,69,4,

28,31,4,29,68,3,

29,31,3,30,67,3,

30,30,4,29,67,3,

55,31,4,30,67,4,

85,31,3,29,67,3,

84,31,4,29,66,4,

84,30,4,28,67,3,

83,31,3,28,66,4,

82,30,3,28,66,3,

82,30,3,28,66,4,

82,30,3,28,65,3,

81,30,3,28,65,4,

80,30,3,28,65,3,

79,30,5,28,64,3,

79,29,4,28,64,3,

79,29,4,28,65,3,

79,29,4,27,64,3,

79,29,3,27,63,4,

78,29,4,28,63,3,

78,30,4,27,63,4,

78,30,3,28,63,4,

77,29,3,27,62,3,

77,29,3,27,62,4,

77,29,4,27,62,3,

76,29,4,27,63,3,

76,29,4,30,62,4,

76,28,3,35,62,3,

76,28,3,35,61,4,

75,29,4,35,71,3,

75,28,3,34,73,4,

74,28,3,35,73,4,

74,28,4,34,71,3,

74,27,3,34,71,4,

73,27,4,33,71,3,

73,28,3,34,71,4,

73,27,4,33,71,3,

72,27,3,33,70,4,

71,27,3,34,70,4,

71,27,4,32,70,4,

71,26,3,32,69,4,

71,27,4,33,71,4,

71,26,3,33,164,4,

71,26,4,34,207,4,

71,26,4,84,206,3,

70,26,3,85,205,3,

70,25,3,84,203,3,

70,25,4,84,202,4,

69,26,3,83,201,3,

69,26,3,83,199,4,

68,25,5,83,199,3,

67,25,4,82,197,3,

68,25,4,81,196,3,

67,25,3,81,195,4,

67,24,3,80,195,4,

67,25,3,80,194,3,

93,24,4,80,194,5,

159,50,3,79,192,3,

158,48,3,79,190,3,

156,49,4,79,190,3,

156,48,3,78,189,4,

155,49,4,78,188,3,

154,48,3,77,188,3,

153,48,3,77,187,4,

152,47,4,76,185,3,

152,47,4,76,184,4,

151,47,3,76,184,3,

151,47,4,76,183,4,

149,47,4,76,182,4,

148,46,3,75,181,3,

147,46,4,74,179,4,

147,46,4,74,179,4,

146,47,3,75,179,4,

145,46,4,73,177,3,

145,46,4,73,177,3,

143,46,4,73,176,3,

143,45,3,73,175,4,

142,44,3,73,174,4,

142,45,3,71,173,3,

141,44,4,71,173,3,

141,44,3,71,172,4,

140,44,4,71,171,4,

159,44,3,70,169,3,

159,44,4,70,169,3,

157,44,4,70,167,3,

157,43,3,69,167,4,

156,43,4,69,167,3,

156,43,3,69,166,4,

154,42,3,69,166,3,

153,42,3,68,165,4,

152,42,3,68,163,3,

152,42,3,67,163,4,

152,42,3,67,162,4,

150,88,4,67,162,3,

149,95,4,67,161,3,

149,95,5,66,161,4,

149,94,4,66,159,3,

147,93,4,66,159,4,

147,93,4,66,158,3,

146,93,3,65,226,4,

146,92,4,65,231,4,

144,92,4,65,234,4,

143,91,4,64,273,4,

143,90,4,65,304,5,

143,91,4,63,301,3,

142,89,3,63,300,4,

142,89,4,63,297,4,

141,88,3,63,295,3,

140,88,4,62,294,3,

139,88,3,63,292,4,

138,88,3,62,290,3,

137,86,3,62,289,4,

137,87,4,63,357,4,

137,86,4,61,387,3,

135,85,3,61,384,3,

135,86,4,60,382,3,

135,85,4,60,379,3,

134,84,3,60,377,4,

133,84,4,59,374,4,

133,83,3,60,372,4,

132,83,3,66,369,4,

132,82,3,85,368,4,

131,82,4,84,366,3,

130,82,4,83,363,4,

130,82,4,83,361,3,

129,81,4,83,441,4,

129,81,4,82,528,4,

128,80,3,82,522,4,

127,79,3,81,519,3,

127,79,4,81,515,4,

127,79,4,81,511,4,

126,79,3,80,508,4,

125,78,4,80,503,3,

125,78,4,79,500,3,

124,77,3,79,498,4,

124,77,4,78,493,4,

124,77,4,78,491,4,

123,76,4,79,487,4,

122,76,4,94,484,4,

121,77,4,94,480,4,

121,76,4,92,478,5,

120,76,4,92,476,4,

120,74,4,92,472,4,

120,75,3,91,469,4,

118,73,4,91,465,4,

118,73,4,90,463,4,

118,73,4,90,461,4,

117,73,4,89,457,5,

116,72,4,89,455,4,

116,88,4,88,452,5,

118,94,4,89,450,4,

118,93,5,88,447,4,

117,93,5,88,444,3,

117,93,4,87,441,4,

116,92,4,86,439,4,

115,91,4,86,437,5,

115,91,5,85,433,4,

115,90,4,85,431,5,

114,89,5,85,429,4,

114,89,4,85,427,5,

113,89,5,84,423,4,

113,88,5,84,422,4,

112,89,3,83,419,4,

112,88,4,83,417,4,

111,88,5,83,415,4,

111,87,4,82,413,5,

110,86,4,82,410,4,

110,86,5,81,408,5,

109,86,4,81,406,5,

109,85,4,81,403,4,

108,85,5,79,402,4,

108,84,5,79,399,5,

108,83,5,79,398,4,

107,84,4,79,395,5,

106,83,5,79,393,5,

106,107,5,81,391,5,

105,106,5,81,391,5,

105,106,5,81,388,5,

103,103,5,81,386,5,

103,103,5,79,384,5,

103,103,5,79,381,5,

103,103,5,79,380,5,

103,103,5,79,377,5,

102,102,5,78,376,5,

102,102,5,78,374,6,

102,101,6,78,371,6,

101,101,6,77,369,5,

101,100,5,78,368,5,

99,100,5,76,365,5,

99,99,6,76,364,5,

99,99,5,77,361,5,

98,99,6,76,359,5,

98,98,5,75,359,5,

98,98,5,75,357,5,

97,97,5,75,355,5,

96,96,6,75,353,5,

96,110,5,74,352,6,

96,109,5,74,350,5,

95,108,5,73,348,5,

96,108,5,73,345,5,

95,108,5,72,345,5,

95,107,5,71,344,5,

94,107,6,71,341,5,

94,107,6,71,455,5,

93,106,6,71,466,5,

93,105,5,71,463,5,

93,103,5,71,461,6,

92,103,6,70,457,5,

92,103,5,71,454,5,

92,103,6,70,451,6,

91,103,5,69,449,5,

91,103,6,70,445,5,

90,102,6,69,443,5,

91,101,5,69,440,5,

89,100,5,68,437,6,

89,100,5,67,435,5,

88,100,5,68,556,5,

88,99,6,67,620,6,

88,98,6,67,615,6,

88,99,5,67,610,6,

87,139,6,67,604,5,

86,137,5,67,600,5,

86,137,5,66,595,6,

86,135,5,66,590,6,

86,135,6,65,587,5,

85,134,6,65,582,5,

85,134,5,65,578,6,

84,132,6,63,573,6,

84,131,5,63,569,5,

84,131,5,63,564,6,

83,131,5,63,561,6,

83,130,6,63,558,5,

82,130,5,63,553,5,

82,129,5,63,551,5,

82,129,5,62,546,5,

81,127,6,62,543,5,

81,127,5,61,539,6,

81,126,6,62,536,5,

80,126,6,61,533,5,

79,125,6,61,527,5,

79,124,5,60,525,5,

79,124,5,61,521,5,

79,123,5,60,519,6,

79,123,5,60,515,6,

78,121,5,60,511,5,

78,121,5,59,508,5,

78,121,5,60,504,5,

77,120,6,59,502,5,

78,120,5,58,499,6,

76,120,6,59,496,6,

76,120,5,59,493,6,

76,118,5,57,489,5,

76,117,5,58,487,5,

76,117,5,57,483,5,

75,120,6,57,481,5,

75,120,5,56,478,5,

75,119,5,57,475,5,

74,118,4,57,472,5,

73,118,6,56,469,5,

73,118,5,56,467,6,

73,117,5,56,464,6,

72,116,5,56,461,5,

73,116,5,55,460,6,

71,115,5,55,455,5,

71,115,5,54,454,5,

71,115,5,54,451,5,

71,113,5,54,448,6,

71,113,5,54,446,5,

71,113,4,53,444,5,

71,113,5,54,441,5,

70,112,5,54,439,5,

70,111,5,53,435,4,

70,111,5,53,434,5,

69,110,6,57,432,5,

69,110,5,57,429,5,

69,109,5,56,427,5,

68,108,5,56,425,5,

68,108,6,56,421,5,

67,108,5,55,419,5,

67,108,5,55,418,4,

67,107,5,54,415,5,

67,107,6,54,413,5,

67,105,5,55,410,5,

66,106,5,54,409,5,

66,105,5,131,406,5,

66,105,5,133,403,5,

65,103,5,131,402,5,

65,103,5,131,399,5,

64,103,5,130,397,5,

65,103,5,129,395,5,

65,102,5,129,393,5,

64,102,5,127,391,4,

64,101,6,126,388,5,

63,101,5,127,387,5,

63,101,5,126,384,5,

63,99,5,125,383,4,

63,99,5,124,381,5,

62,99,5,124,379,4,

62,99,5,123,377,5,

62,97,5,123,375,5,

61,98,5,122,373,5,

61,96,5,123,371,5,

61,96,5,133,369,5,

61,96,5,131,368,5,

61,95,5,131,365,4,

60,96,5,130,364,5,

60,95,5,130,362,5,

59,95,5,129,359,4,

60,94,5,154,358,5,

59,93,5,153,356,4,

59,93,5,152,355,5,

58,92,4,152,353,4,

58,92,5,151,352,5,

58,92,5,150,350,5,

58,92,5,149,348,5,

57,91,5,148,346,5,

57,91,5,147,344,5,

57,90,4,147,344,5,

57,90,5,146,341,4,

57,89,5,145,339,4,

57,89,4,145,338,5,

56,89,4,143,337,5,

56,88,5,143,335,5,

56,88,4,142,333,5,

55,88,5,142,332,4,

55,88,5,141,330,5,

55,87,5,141,327,5,

54,86,5,140,327,4,

54,86,5,140,325,5,

54,86,4,139,323,4,

55,85,4,138,322,5,

53,84,4,137,321,5,

53,85,4,135,319,4,

53,83,5,135,318,5,

52,83,5,135,316,5,

53,83,5,135,315,5,

53,83,4,135,313,4,

53,88,4,134,312,5,

52,88,5,133,311,5,

52,88,4,132,310,5,

51,88,4,132,307,4,

52,87,5,131,307,4,

51,87,4,131,305,4,

51,86,5,130,304,4,

51,86,4,129,302,5,

50,85,4,129,301,5,

50,85,4,128,300,5,

50,84,4,127,298,5,

49,84,5,127,297,4,

49,84,4,127,295,5,

49,83,5,127,299,4,

49,83,5,126,329,5,

50,83,4,195,347,5,

49,82,5,312,345,4,

48,81,5,321,342,5,

48,82,4,319,340,4,

48,81,4,316,338,4,

48,79,5,315,336,5,

48,79,4,313,334,4,

47,79,4,312,332,5,

48,79,4,309,331,4,

47,79,5,307,329,4,

47,79,5,332,327,5,

46,79,4,465,326,5,

46,78,4,540,323,5,

46,77,4,537,322,4,

46,77,4,534,319,4,

46,77,5,529,318,5,

45,76,4,526,316,5,

45,76,5,523,315,5,

46,76,4,518,313,4,

45,76,4,515,312,4,

44,76,5,511,310,4,

44,75,4,507,309,5,

44,75,4,505,307,4,

44,74,5,500,305,4,

44,74,5,498,303,4,

44,73,4,494,302,4,

44,73,4,491,300,5,

43,73,5,487,299,5,

43,73,4,486,297,4,

43,71,4,483,303,5,

44,71,5,550,417,5,

42,71,4,557,461,5,

43,71,4,551,457,4,

42,71,4,547,454,5,

42,71,4,544,451,4,

42,70,4,540,449,4,

87,70,4,537,445,4,

86,69,4,532,442,4,

86,70,4,529,440,5,

85,69,4,525,437,4,

85,68,4,523,435,4,

84,68,5,519,433,5,

97,68,5,516,531,5,

96,68,5,513,608,4,

95,67,5,509,603,5,

95,67,5,505,598,5,

95,67,4,504,593,5,

93,67,5,499,590,5,

93,67,5,497,583,4,

92,67,5,493,581,5,

92,66,6,491,575,5,

92,66,5,487,572,5,

91,66,5,485,568,5,

91,65,5,482,563,5,

90,65,5,479,560,5,

89,65,5,476,556,5,

89,64,5,472,551,5,

89,64,6,470,547,5,

88,63,6,467,543,5,

88,63,5,465,541,5,

88,63,5,463,537,5,

88,78,6,459,534,6,

88,77,5,457,529,6,

87,77,5,454,527,6,

87,77,6,451,524,5,

86,77,6,449,519,6,

86,76,5,446,517,5,

86,76,6,444,513,5,

85,75,6,441,509,6,

85,75,6,440,507,5,

85,75,6,437,551,5,

83,74,6,435,546,6,

83,74,5,432,542,5,

83,73,6,430,537,6,

82,73,6,428,533,6,

82,71,7,425,530,6,

82,71,6,423,527,6,

81,71,6,421,523,6,

83,71,6,419,519,6,

82,71,6,415,515,6,

82,71,7,414,512,6,

82,71,6,412,509,6,

81,70,6,410,505,6,

81,70,6,408,503,7,

81,70,6,406,499,6,

80,69,6,403,496,6,

79,68,7,401,493,6,

79,68,6,399,490,6,

79,67,7,397,487,7,

79,68,6,395,483,6,

78,67,7,393,481,7,

78,67,6,391,478,6,

77,66,7,389,475,6,

77,66,6,387,472,6,

76,66,7,385,470,6,

76,65,6,384,467,6,

89,66,7,382,464,7,

117,65,7,379,462,6,

116,65,6,377,459,6,

123,65,6,376,455,6,

122,64,7,373,454,7,

121,63,6,371,451,6,

121,63,6,369,448,7,

120,63,6,368,445,6,

119,63,7,366,443,7,

119,63,6,364,440,6,

118,62,6,362,437,6,

117,62,6,359,435,6,

117,62,7,359,432,7,

122,62,7,357,431,6,

210,61,7,354,427,6,

207,61,7,353,423,6,

206,60,7,352,423,7,

205,60,6,350,449,7,

204,61,6,348,545,7,

203,60,6,346,540,6,

202,60,7,344,536,6,

199,59,7,343,531,6,

199,59,6,341,527,6,

198,58,7,339,524,6,

220,59,6,337,519,6,

219,58,6,335,516,6,

217,58,6,334,513,6,

216,58,6,333,508,6,

215,57,6,331,505,6,

213,57,7,330,501,6,

212,57,6,327,498,6,

211,57,6,326,494,6,

210,56,6,325,491,7,

209,56,6,323,487,6,

207,57,6,322,484,6,

206,56,7,319,482,7,

205,56,6,319,537,7,

204,56,6,380,571,6,

204,56,6,377,636,6,

202,56,5,375,630,6,

201,54,6,372,625,6,

199,54,6,370,620,5,

199,57,7,368,615,6,

198,56,6,366,609,6,

197,57,6,384,604,6,

195,56,6,437,600,7,

195,56,5,435,595,6,

194,56,6,432,591,6,

193,55,5,428,585,6,

192,55,6,425,581,5,

191,54,6,423,577,6,

190,57,6,420,573,5,

189,57,6,417,569,6,

189,57,6,415,564,6,

188,57,5,413,560,6,

188,56,5,409,556,5,

187,56,6,408,551,6,

185,56,6,405,548,5,

184,55,5,403,544,5,

195,56,6,400,542,6,

318,55,5,398,537,5,

318,54,5,396,533,5,

316,55,5,393,529,6,

313,54,6,391,526,5,

312,54,6,389,524,6,

310,54,5,387,519,6,

307,54,6,384,516,5,

306,54,6,383,588,6,

304,53,6,381,581,6,

302,53,6,378,577,6,

301,53,6,377,572,6,

299,53,6,375,568,6,

298,94,6,372,563,7,

323,96,6,371,560,6,

408,117,6,368,556,6,

405,115,6,365,551,6,

401,115,6,364,547,6,

398,114,6,361,543,6,

395,113,6,359,539,6,

393,112,6,357,535,6,

391,112,6,355,530,7,

387,118,6,353,526,7,

385,117,6,352,523,6,

382,116,7,350,519,6,

380,115,6,348,515,6,

377,115,6,346,511,7,

376,114,6,344,507,7,

373,114,7,342,504,6,

370,113,6,340,501,6,

368,112,6,339,497,6,

367,111,7,335,494,7,

364,111,6,334,491,6,

361,111,7,332,487,7,

359,110,6,331,484,6,

357,114,6,330,481,7,

355,129,6,327,478,7,

353,172,6,326,475,7,

352,170,6,325,472,6,

349,168,6,322,469,7,

347,167,7,320,466,7,

345,167,6,319,463,6,

343,166,6,318,460,7,

341,164,6,316,457,7,

339,164,6,314,455,6,

337,163,6,312,451,6,

335,162,6,312,449,6,

333,160,7,310,445,7,

332,159,6,308,443,7,

330,159,6,306,440,7,

327,158,6,305,438,7,

326,158,7,304,435,6,

324,157,6,303,432,6,

323,155,6,300,430,6,

321,155,6,300,428,7,

319,154,6,298,425,6,

317,153,6,297,422,7,

315,153,6,295,420,7,

314,152,6,294,417,6,

312,151,6,292,415,6,

310,150,6,291,412,6,

309,149,6,290,409,6,

307,149,6,288,408,6,

306,147,6,287,405,6,

304,147,6,286,402,7,

302,147,6,284,401,7,

300,146,6,283,398,6,

299,145,7,281,396,6,

298,144,6,280,393,6,

295,143,6,279,391,6,

295,142,6,278,389,7,

293,141,7,276,387,6,

291,141,6,275,385,6,

290,140,6,273,383,6,

287,140,7,271,380,7,

287,139,6,271,378,6,

285,138,6,270,376,7,

284,137,6,269,374,6,

282,137,7,267,372,6,

281,135,6,266,370,6,

280,135,6,265,368,6,

278,135,6,263,366,6,

277,135,6,262,364,6,

275,134,6,261,363,7,

273,133,6,260,359,6,

273,133,7,259,358,7,

271,131,6,258,356,7,

270,131,6,255,355,6,

269,129,6,255,352,6,

267,130,6,255,351,6,

265,129,6,253,349,7,

263,127,6,252,347,7,

263,127,6,251,345,5,

262,127,6,249,344,6,

261,126,6,249,342,6,

259,125,6,248,339,7,

258,125,6,246,337,5,

255,124,6,244,335,5,

255,124,6,243,334,6,

253,123,6,242,332,6,

253,122,5,242,331,6,

252,122,5,240,329,6,

250,121,5,239,327,6,

248,120,6,238,326,7,

248,120,5,237,323,6,

247,120,6,237,323,5,

245,119,6,235,319,6,

244,118,6,234,319,6,

243,118,6,233,318,6,

242,117,6,231,316,6,

240,117,5,231,314,5,

239,115,6,231,313,6,

238,115,5,229,312,6,

237,115,5,229,309,6,

236,115,6,227,307,5,

234,113,5,226,307,6,

233,113,6,225,305,6,

231,112,5,225,304,5,

231,112,5,224,302,5,

230,112,6,223,301,5,

229,111,5,221,299,5,

228,110,6,221,297,5,

227,110,5,220,295,6,

226,109,6,219,295,5,

225,108,6,217,294,5,

224,108,5,217,291,6,

223,108,5,216,290,6,

221,107,6,214,289,6,

220,107,6,214,287,6,

220,106,6,213,286,5,

219,105,6,211,284,6,

218,105,5,211,284,6,

216,105,5,211,283,6,

216,128,6,209,281,6,

214,152,5,209,280,6,

214,152,5,207,278,6,

213,151,6,206,277,6,

211,149,5,206,275,5,

211,148,5,205,274,5,

209,147,6,204,273,6,

207,147,5,204,271,6,

207,145,6,201,270,5,

207,145,5,202,269,5,

206,144,5,199,268,5,

205,143,5,199,267,5,

204,143,6,199,265,6,

203,142,5,198,263,6,

201,141,5,198,263,5,

201,140,5,195,262,5,

199,140,5,195,260,5,

199,139,5,194,259,5,

199,138,5,194,258,5,

197,137,6,193,257,5,

196,137,5,192,255,6,

195,135,5,192,254,5,

195,135,5,190,253,5,

193,135,6,190,252,5,

193,133,5,189,251,4,

192,133,5,189,249,4,

192,132,5,188,248,5,

190,131,5,186,248,5,

189,131,5,186,246,5,

189,131,4,185,245,6,

188,129,5,185,244,5,

187,129,5,184,243,5,

186,129,5,183,242,5,

185,127,5,182,240,5,

184,126,5,182,239,5,

184,126,5,180,238,5,

184,126,4,179,238,6,

182,125,6,179,236,5,

181,124,5,178,236,4,

180,124,4,177,234,5,

179,123,5,233,234,5,

178,123,5,363,233,5,

178,122,5,466,231,5,

177,121,5,621,231,5,

176,121,6,799,230,5,

175,120,5,902,228,4,

175,120,5,907,227,5,

175,119,4,899,226,5,

173,118,5,884,225,4,

172,118,5,873,224,5,

172,117,5,865,224,5,

171,117,4,855,222,5,

170,116,4,845,221,5,

169,115,5,835,220,5,

167,115,5,828,220,5,

167,114,5,819,218,5,

167,113,4,811,218,5,

167,113,5,801,216,4,

165,113,5,793,216,5,

166,112,5,787,214,4,

165,112,5,779,214,5,

163,111,5,771,212,4,

163,110,5,763,211,5,

163,110,5,757,211,5,

161,110,5,750,209,5,

161,108,5,743,209,5,

159,108,4,736,207,5,

159,107,5,730,207,5,

159,107,5,723,207,5,

157,107,4,716,206,5,

157,106,5,710,205,5,

157,106,4,705,204,5,

156,105,5,699,202,5,

155,103,5,692,201,4,

154,103,5,686,201,5,

154,103,5,681,199,4,

153,103,5,676,199,4,

152,103,5,670,198,5,

152,102,4,664,198,4,

151,101,5,659,197,5,

150,101,5,654,196,5,

149,101,5,649,195,5,

149,100,5,643,195,5,

148,99,5,639,194,4,

148,99,5,634,193,5,

147,99,5,630,192,5,

147,99,5,625,191,5,

146,98,5,620,190,5,

146,97,4,615,189,5,

145,97,4,611,188,5,

143,97,4,608,188,5,

144,96,5,603,187,5,

143,95,5,598,187,4,

143,95,5,595,185,5,

142,95,5,590,185,5,

141,94,4,587,185,5,

141,94,4,583,184,5,

140,93,5,578,183,5,

139,93,4,575,182,5,

139,92,5,570,182,4,

138,92,4,568,180,5,

137,92,5,563,179,5,

137,91,5,560,179,5,

137,91,5,556,178,5,

135,91,5,551,178,5,

135,89,5,549,176,6,

135,90,4,545,176,5,

135,89,4,543,176,5,

134,88,5,538,175,5,

133,89,5,535,174,5,

133,88,4,531,173,5,

132,88,4,528,173,4,

131,88,5,525,172,4,

131,87,4,521,171,4,

131,86,4,518,171,5,

130,86,4,515,169,4,

129,86,5,511,169,4,

129,85,4,508,169,4,

129,85,4,505,167,5,

127,84,5,503,167,5,

127,83,4,499,167,5,

126,83,5,496,166,4,

126,83,5,493,165,4,

125,83,5,490,164,5,

125,83,4,487,164,4,

125,82,5,485,163,5,

124,81,5,481,163,4,

124,81,4,480,161,5,

123,81,5,476,161,5,

123,81,4,473,161,4,

123,81,5,471,159,5,

122,79,5,468,159,4,

121,79,5,465,158,5,

121,79,4,463,158,4,

121,79,4,461,158,5,

120,79,4,457,157,4,

119,78,5,455,156,5,

119,78,4,453,156,4,

118,78,4,450,155,5,

118,77,5,448,154,4,

117,77,4,446,155,4,

117,77,5,444,153,4,

116,76,5,441,152,4,

115,75,5,438,152,4,

115,76,4,435,151,5,

115,75,5,433,151,5,

115,75,4,431,150,4,

114,75,4,428,149,4,

113,74,4,426,148,5,

113,75,5,423,148,5,

112,73,4,422,147,4,

112,73,4,419,147,5,

112,73,4,417,147,4,

111,71,5,415,146,4,

111,71,4,413,145,5,

111,71,5,410,144,5,

109,71,5,409,144,4,

110,71,4,407,143,4,

109,71,5,404,143,4,

109,70,4,403,143,5,

108,70,5,399,142,4,

108,69,4,398,142,5,

107,70,4,396,141,5,

106,70,5,394,140,4,

107,69,5,391,140,4,

106,69,5,390,139,4,

106,69,5,387,139,5,

105,67,4,386,138,4,

103,67,4,384,137,5,

103,67,4,382,137,4,

103,67,5,380,136,4,

103,67,4,378,135,4,

103,66,4,376,135,5,

102,66,4,375,135,3,

102,66,4,372,135,4,

101,65,4,371,134,4,

102,65,4,369,133,4,

101,65,4,367,132,3,

99,65,4,366,133,5,

99,64,5,364,131,4,

99,64,4,361,131,4,

99,63,4,361,131,4,

98,63,5,359,131,5,

99,63,4,357,129,4,

98,63,4,355,129,5,

97,62,4,353,129,4,

97,62,3,352,129,4,

97,62,4,351,127,4,

96,61,5,349,127,4,

96,62,3,347,127,5,

95,62,4,345,126,4,

96,61,3,344,126,3,

95,61,5,343,125,4,

95,61,5,341,125,5,

94,61,4,339,125,4,

94,60,4,338,124,4,

94,60,4,337,124,4,

93,60,4,335,123,4,

93,59,4,334,123,4,

92,59,4,332,123,4,

92,58,4,331,122,5,

92,59,4,329,121,4,

91,58,4,327,121,5,

91,58,4,327,121,4,

90,57,4,325,120,4,

90,57,5,323,120,4,

90,57,4,322,120,4,

90,57,4,319,118,4,

89,56,4,319,118,4,

88,56,4,317,118,4,

89,56,5,316,118,5,

88,56,4,316,117,3,

88,56,5,314,117,5,

88,55,3,312,116,4,

88,55,4,311,115,4,

87,55,4,310,115,3,

87,55,5,307,115,4,

86,54,5,307,114,4,

86,54,4,305,114,4,

85,54,4,304,113,4,

85,53,4,303,113,5,

85,54,5,302,112,4,

85,53,5,301,112,4,

84,54,4,299,112,4,

83,53,4,298,111,4,

83,52,4,295,111,5,

83,52,5,295,111,4,

83,52,5,294,111,5,

83,52,4,294,110,4,

82,51,5,291,109,5,

81,51,4,290,109,5,

82,51,4,290,109,5,

81,51,5,287,108,5,

80,50,4,287,108,4,

80,50,3,285,107,4,

79,50,4,285,107,4,

79,50,4,284,106,3,

80,50,5,281,106,4,

79,49,4,281,106,4,

79,49,4,280,105,4,

78,49,4,279,105,4,

79,49,5,278,103,3,

78,48,4,276,103,3,

78,48,5,275,103,5,

78,49,4,274,103,4,

77,48,4,273,103,4,

77,73,4,272,103,4,

76,71,5,271,103,4,

76,71,5,270,102,4,

76,71,5,268,102,4,

76,70,4,268,102,4,

76,70,4,266,101,4,

75,69,4,265,101,4,

74,70,4,263,100,3,

74,69,4,263,100,3,

74,69,4,262,99,4,

74,68,4,261,99,3,

73,67,4,259,99,4,

73,67,4,259,99,4,

71,67,4,258,98,4,

73,67,4,257,98,4,

71,66,3,255,97,4,

71,67,4,255,98,4,

71,66,3,254,97,3,

71,66,3,253,96,3,

71,66,4,252,96,4,

71,66,4,252,96,3,

71,64,4,250,95,5,

70,65,4,249,95,3,

70,64,4,249,95,3,

71,64,5,247,94,4,

70,63,3,247,94,3,

69,63,3,246,93,5,

69,63,4,245,93,3,

69,62,4,244,93,5,

68,63,4,243,93,4,

68,63,4,242,92,3,

68,62,4,241,92,4,

68,62,5,240,91,4,

68,61,3,239,91,4,

67,61,5,238,91,4,

67,60,4,237,91,4,

67,60,3,237,90,4,

67,60,5,236,91,4,

66,60,3,235,89,4,

66,60,3,233,89,4,

66,59,4,233,89,3,

65,59,3,233,89,5,

65,59,4,231,88,4,

65,58,4,231,88,4,

65,58,3,230,88,4,

64,59,4,230,88,4,

65,57,4,228,88,4,

64,57,5,227,87,4,

64,57,4,226,87,4,

64,57,3,226,86,4,

63,57,4,225,86,4,

63,56,4,224,86,4,

63,56,5,224,86,5,

62,56,4,222,85,4,

62,55,4,221,84,4,

62,56,4,221,85,4,

62,55,3,220,84,4,

62,55,3,219,84,4,

61,55,5,219,83,4,

62,54,4,218,83,5,

61,54,4,216,83,3,

61,54,4,216,83,4,

61,53,5,216,82,3,

61,54,3,215,82,4,

60,53,4,213,82,4,

60,53,4,212,81,5,

60,52,3,212,81,3,

59,51,4,211,81,4,

59,53,4,211,80,4,

60,52,5,209,81,4,

59,51,4,209,79,4,

58,51,4,208,80,4,

58,51,4,207,79,5,

58,50,4,207,79,3,

57,51,3,206,79,4,

57,50,4,206,79,5,

57,50,5,205,79,4,

57,49,4,204,78,4,

57,50,4,204,78,4,

57,49,4,203,78,4,

56,49,3,201,78,4,

56,49,4,201,77,5,

57,49,4,199,76,4,

56,48,5,199,76,4,

56,48,3,199,76,4,

56,49,5,198,76,4,

56,48,5,198,76,3,

56,48,3,197,76,4,

55,48,4,196,76,3,

55,47,5,195,75,4,

55,47,4,194,74,3,

54,47,4,194,75,5,

55,46,3,193,75,4,

54,46,4,193,74,5,

54,46,4,192,73,4,

53,46,4,191,73,4,

54,46,3,190,73,3,

53,46,4,190,73,3,

53,45,4,189,71,4,

53,45,4,189,71,4,

52,45,4,188,73,4,

53,45,4,187,71,4,

52,44,5,187,71,3,

52,45,4,185,71,4,

51,45,4,185,71,4,

51,44,3,185,71,4,

51,44,4,184,70,4,

51,44,5,184,71,3,

51,44,3,182,70,3,

51,44,5,183,70,4,

50,44,4,181,69,4,

50,43,4,181,69,3,

50,43,4,179,69,3,

50,42,5,179,70,4,

50,43,4,179,69,4,

49,42,5,178,68,4,

50,43,4,177,68,5,

49,42,4,177,68,4,

49,41,4,176,67,4,

49,42,4,176,67,4,

48,42,3,176,67,3,

49,41,3,175,67,4,

48,41,5,174,67,4,

48,41,4,173,66,4,

48,40,3,173,67,4,

48,39,3,172,66,4,

47,39,3,172,66,4,

47,39,5,171,66,3,

46,39,4,170,65,4,

47,41,3,169,65,4,

47,39,4,169,65,3,

47,39,4,167,64,5,

46,39,4,167,63,4,

46,39,4,167,64,4,

46,39,4,167,65,4,

46,38,4,166,63,3,

46,39,4,166,63,4,

45,39,4,165,63,4,

45,38,4,164,63,5,

45,38,3,164,62,4,

45,39,4,163,63,3,

45,37,4,163,63,4,

44,37,3,162,63,4,

45,38,4,162,62,3,

44,37,4,162,62,5,

44,37,3,161,61,4,

44,37,4,159,62,4,

44,38,5,159,62,4,

43,37,4,159,60,4,

43,36,3,158,60,3,

43,37,4,158,60,4,

43,36,4,157,60,3,

43,37,4,156,60,5,

43,37,5,156,60,4,

42,36,4,156,60,4,

43,35,4,155,59,4,

42,35,4,155,59,3,

42,35,4,154,58,3,

42,35,4,153,58,4,

42,35,4,153,58,3,

41,35,4,152,58,3,

41,35,4,152,58,4,

41,35,4,152,57,5,

41,34,3,152,58,4,

41,34,4,150,57,4,

41,34,5,150,57,4,

41,34,5,149,57,4,

39,33,3,149,57,5,

41,33,5,148,57,3,

39,33,5,148,56,4,

39,34,3,147,56,4,

39,34,3,146,56,4,

39,33,3,147,56,3,

39,33,4,146,56,4,

39,33,3,145,56,4,

39,32,4,145,56,4,

39,33,4,143,55,4,

39,33,5,144,55,3,

39,33,3,143,55,4,

39,32,4,143,54,4,

38,31,4,143,54,4,

38,32,3,142,54,4,

38,31,3,141,54,4,

38,31,4,141,54,5,

38,31,4,140,54,4,

37,31,4,141,54,4,

37,31,3,139,53,3,

38,31,4,140,52,3,

37,31,3,139,53,4,

37,31,3,138,52,4,

37,30,3,137,52,4,

37,31,4,137,52,4,

37,30,4,137,51,4,

37,30,4,137,51,4,

36,30,4,135,52,3,

35,30,4,135,51,4,

36,30,4,135,50,3,

36,29,3,134,51,3,

35,29,3,134,50,4,

35,29,4,133,50,4,

35,29,4,133,50,5,

35,29,4,133,50,4,

35,29,4,132,50,4,

35,29,4,132,50,3,

35,28,4,131,50,4,

35,29,3,131,50,3,

35,28,4,130,50,3,

34,28,4,130,48,3,

34,29,5,129,49,4,

34,28,4,129,48,4,

34,28,4,128,48,3,

34,28,4,128,49,5,

34,28,4,127,49,3,

33,27,4,127,48,3,

33,28,3,127,47,4,

34,27,4,126,47,3,

33,27,3,126,47,4,

33,27,4,125,47,4,

32,26,3,125,47,3,

32,27,3,125,47,4,

33,26,4,125,47,4,

32,26,3,124,47,4,

33,26,4,124,46,4,

32,26,3,123,47,4,

33,26,4,123,46,3,

31,25,4,122,46,4,

31,26,3,121,46,4,

31,26,4,121,46,4,

31,26,3,121,46,3,

31,25,4,121,45,4,

31,26,4,120,45,3,

31,25,3,120,45,3,

31,26,4,120,45,3,

31,25,4,119,44,3,

31,25,4,119,44,4,

30,25,4,118,44,3,

31,25,3,118,44,4,

30,25,4,117,44,4,

30,25,3,116,44,3,

30,24,3,116,43,4,

30,24,3,117,44,4,

30,25,4,115,43,3,

30,24,3,115,43,4,

29,24,3,115,43,4,

29,24,3,114,43,3,

29,24,4,114,42,4,

29,24,3,114,42,3,

29,24,3,114,42,4,

29,24,4,113,42,3,

29,24,3,113,42,3,

29,24,3,112,43,4,

28,24,3,112,41,4,

28,23,5,112,41,4,

28,24,5,111,41,3,

28,23,4,111,41,3,

28,22,4,110,41,4,

28,22,3,110,41,3,

28,22,3,110,40,4,

28,23,5,109,40,3,

28,22,3,109,40,4,

28,23,4,108,41,3,

27,23,4,108,41,4,

27,22,4,108,39,4,

28,23,3,108,39,5,

28,22,4,107,39,4,

27,22,4,107,39,4,

27,22,3,107,39,3,

27,21,4,106,39,3,

26,21,4,106,39,4,

27,21,4,106,39,3,

27,22,4,105,39,3,

26,21,3,105,39,3,

26,21,4,103,38,3,

26,21,3,103,38,3,

27,21,3,103,38,4,

25,21,4,103,39,4,

25,21,3,103,38,4,

26,20,3,102,38,3,

25,21,4,103,37,4,

25,20,3,102,38,4,

26,21,4,102,37,3,

25,20,3,102,37,3,

26,20,4,102,37,3,

25,20,3,101,36,4,

25,20,3,99,37,4,

25,19,4,99,37,4,

25,19,4,99,37,3,

24,19,5,99,36,3,

25,19,4,99,37,3,

24,19,4,99,36,3,

24,19,5,98,36,4,

24,19,4,98,35,4,

24,19,4,98,35,4,

24,19,3,97,35,4,

24,19,3,98,36,3,

24,19,3,97,35,3,

24,19,4,96,36,4,

83,19,4,97,35,3,

86,19,3,96,35,3,

85,19,4,96,35,3,

84,18,4,96,35,4,

85,18,4,95,35,5,

84,19,3,94,34,3,

83,18,3,94,34,3,

83,18,3,94,35,4,

83,18,3,94,34,4,

82,18,4,94,34,3,

83,18,4,93,34,4,

81,18,4,93,34,3,

82,18,3,93,33,4,

80,18,4,92,33,5,

80,17,4,92,34,4,

79,17,3,92,33,4,

79,17,3,91,34,4,

79,17,4,91,33,4,

79,17,3,91,33,3,

78,17,3,90,32,4,

78,17,3,90,32,3,

78,17,3,89,33,3,

77,17,4,89,31,3,

77,17,4,89,32,4,

76,17,3,89,31,3,

76,17,3,88,31,3,

76,16,3,88,31,3,

75,17,4,88,32,3,

75,16,3,88,31,4,

75,17,3,88,32,3,

75,16,3,87,31,4,

75,16,3,87,31,3,

73,16,4,87,31,3,

74,15,4,86,31,3,

73,17,3,86,31,4,

71,16,3,86,30,3,

72,16,4,86,31,3,

73,15,4,85,31,3,

71,15,3,85,30,4,

71,15,3,85,30,3,

71,16,3,85,30,4,

71,15,3,83,30,3,

71,15,4,84,30,3,

70,15,3,83,30,3,

70,15,4,83,29,3,

70,16,4,83,30,3,

69,15,4,82,29,3,

69,15,4,82,29,3,

69,15,3,82,29,4,

69,15,3,82,29,3,

68,15,3,81,29,3,

68,15,3,82,30,3,

68,15,4,81,29,3,

68,15,3,81,29,4,

67,14,3,81,29,3,

67,15,3,80,28,4,

67,14,4,80,28,3,

67,15,4,79,28,3,

66,14,4,80,28,4,

66,14,4,79,28,4,

65,15,3,79,28,3,

66,14,4,78,28,4,

65,14,4,79,28,3,

65,14,4,78,28,3,

63,14,4,78,28,3,

63,14,3,78,28,3,

63,13,4,78,27,3,

64,14,3,78,27,3,

63,14,4,78,27,3,

63,13,3,77,27,4,

63,13,3,77,27,3,

62,13,3,76,27,3,

62,14,3,76,27,4,

62,14,3,76,27,3,

62,14,3,76,27,3,

62,13,4,75,26,3,

61,13,3,75,26,3,

61,13,3,75,26,4,

60,14,3,75,26,4,

61,14,3,74,26,3,

60,13,3,74,25,4,

60,14,3,74,26,4,

60,14,4,73,25,4,

60,13,3,73,26,3,

59,13,3,73,26,4,

59,13,3,73,26,3,

59,13,4,73,25,3,

58,13,4,71,25,3,

58,13,3,73,25,4,

58,13,3,71,25,3,

57,13,3,71,31,4,

57,13,3,71,44,4,

57,12,3,71,43,3,

57,12,4,71,43,3,

57,12,4,71,44,3,

56,12,3,71,43,3,

56,12,4,71,42,3,

56,12,4,70,42,4,

56,12,3,70,42,4,

56,13,3,70,42,4,

55,12,4,70,42,4,

54,12,3,69,41,4,

55,13,4,69,41,4,

54,12,3,69,41,4,

57,11,3,69,41,4,

60,12,4,68,41,3,

60,12,3,68,39,4,

60,12,3,67,39,3,

60,12,3,67,39,4,

59,12,3,67,39,3,

59,12,3,67,39,4,

58,12,4,67,39,4,

58,12,4,67,39,3,

58,11,3,67,39,4,

58,12,3,66,39,3,

57,11,4,66,39,3,

57,11,3,66,39,3,

57,12,3,66,38,4,

56,11,4,66,38,3,

57,11,3,65,38,3,

56,11,3,65,38,5,

60,45,4,65,38,3,

60,45,4,64,37,3,

60,44,3,65,38,4,

59,44,3,64,37,4,

59,43,4,64,37,3,

58,43,4,63,36,3,

59,43,3,63,37,3,

59,43,3,63,37,3,

57,43,4,63,35,4,

58,42,4,63,36,4,

57,42,3,63,35,4,

57,42,3,63,36,4,

56,41,4,62,36,4,

56,42,4,62,35,3,

56,42,4,62,35,3,

56,41,3,61,35,3,

56,41,3,62,35,3,

56,41,3,62,35,4,

55,40,3,61,35,3,

55,39,3,62,34,3,

55,39,3,61,34,3,

55,39,3,60,34,3,

55,39,3,61,34,3,

55,39,4,60,34,4,

53,39,3,60,34,4,

54,39,3,60,33,3,

54,39,3,60,33,4,

54,39,3,59,33,4,

53,38,3,59,33,4,

53,38,4,59,33,4,

52,38,4,59,32,3,

52,39,4,59,32,3,

52,38,4,59,32,3,

51,37,3,59,31,4,

51,37,4,58,33,4,

51,38,4,58,32,4,

51,38,4,58,33,4,

51,37,3,57,31,3,

50,37,3,58,31,3,

51,36,3,57,31,3,

50,36,3,57,31,3,

49,35,3,57,31,3,

49,36,5,57,31,3,

49,36,4,57,31,3,

49,35,4,56,31,3,

49,36,3,56,30,3,

48,36,4,56,31,3,

49,35,4,56,38,4,

48,35,4,56,130,4,

48,35,3,56,134,4,

48,34,3,55,133,4,

48,35,4,56,133,3,

48,34,4,56,131,3,

47,34,3,55,131,4,

47,34,4,54,130,3,

47,34,3,54,130,4,

46,33,4,54,129,4,

46,33,3,54,127,3,

46,33,4,54,127,4,

46,33,3,54,127,3,

46,33,3,53,127,4,

45,33,3,53,126,3,

45,32,4,53,125,3,

45,32,3,53,124,3,

45,33,3,53,124,3,

44,31,4,52,123,3,

44,32,4,51,123,3,

44,31,3,51,122,4,

44,31,3,52,122,3,

44,31,4,52,121,3,

44,31,4,52,120,4,

44,31,3,51,120,4,

43,31,3,51,119,3,

43,31,4,51,119,4,

43,31,4,51,118,3,

43,30,3,50,117,3,

43,30,3,51,118,3,

43,30,4,50,117,3,

43,30,3,50,116,3,

42,30,3,50,115,4,

42,29,4,49,115,3,

41,30,5,50,115,3,

41,29,4,50,115,4,

41,30,3,49,113,3,

41,29,4,49,113,3,

41,30,3,49,113,4,

41,29,4,49,112,4,

39,29,3,48,112,3,

39,29,4,48,111,4,

39,28,3,48,111,3,

39,28,4,48,110,3,

39,28,3,48,109,4,

39,28,3,48,109,4,

39,28,3,48,109,3,

39,27,3,47,108,4,

39,28,5,47,108,4,

39,28,3,47,108,3,

39,27,4,47,107,3,

38,28,3,47,107,3,

39,27,3,46,106,3,

38,27,4,47,105,3,

38,27,4,46,105,3,

37,27,5,46,104,4,

37,27,3,47,103,4,

37,27,3,45,103,3,

38,26,4,45,103,3,

37,26,4,46,103,3,

38,26,3,45,102,4,

36,26,4,45,102,4,

36,25,4,45,101,4,

37,25,4,45,101,3,

37,26,3,45,101,4,

35,26,4,45,99,3,

36,25,3,44,100,4,

36,25,5,44,99,4,

36,25,3,44,99,4,

35,25,4,44,98,4,

35,25,4,44,98,4,

35,25,3,43,97,3,

35,24,3,43,97,4,

35,24,4,44,97,4,

35,25,4,44,96,3,

35,25,4,43,96,3,

35,24,4,43,96,3,

34,25,3,42,95,3,

34,24,4,42,95,3,

34,24,3,43,95,3,

33,24,4,42,94,4,

34,24,4,42,94,4,

33,24,3,42,93,4,

34,24,3,42,93,3,

34,24,3,41,93,3,

33,23,3,41,92,3,

33,23,4,42,92,3,

32,23,4,42,92,4,

33,23,4,41,91,3,

32,22,4,41,91,4,

33,22,4,39,90,3,

32,22,4,40,90,3,

31,22,3,40,89,3,

31,22,3,40,89,4,

31,23,4,39,89,3,

32,21,3,39,89,3,

31,22,4,39,88,3,

31,22,3,39,88,3,

31,22,3,39,88,3,

31,22,3,39,87,4,

31,22,3,39,86,3,

31,22,3,39,86,3,

31,21,4,39,86,3,

31,21,3,39,85,3,

31,21,4,39,86,3,

31,21,5,39,85,4,

30,21,3,39,84,3,

30,20,4,38,84,3,

30,20,4,38,83,3,

30,20,4,39,84,4,

29,21,3,38,83,3,

30,20,3,38,83,4,

30,20,3,38,83,3,

30,20,4,37,82,4,

29,19,3,37,82,3,

29,19,3,38,82,4,

29,19,4,38,81,3,

29,19,4,38,81,3,

29,19,4,37,81,3,

29,19,4,37,80,4,

29,19,3,36,79,3,

28,19,3,36,79,3,

28,19,3,37,79,3,

28,19,3,36,79,4,

28,19,3,36,79,3,

28,19,3,37,79,4,

27,19,3,35,78,4,

28,18,4,36,78,4,

27,19,3,36,110,4,

27,19,4,36,141,4,

27,18,4,35,140,3,

27,18,3,35,140,4,

27,18,3,35,139,4,

27,18,4,35,137,4,

27,18,4,35,137,3,

27,18,4,35,135,3,

27,18,3,35,135,3,

27,17,3,35,135,3,

26,17,3,34,135,4,

26,17,3,34,134,3,

26,17,3,35,133,3,

25,17,4,34,133,3,

26,17,4,33,132,3,

25,17,4,33,131,3,

25,17,3,34,131,3,

25,17,3,34,131,3,

25,17,4,33,129,4,

25,17,4,33,129,3,

25,17,3,33,128,3,

25,16,3,33,127,3,

25,16,4,33,127,4,

24,16,3,33,126,3,

25,16,3,33,126,4,

24,16,4,32,126,3,

24,16,3,32,125,3,

24,16,3,31,124,3,

25,16,3,32,124,4,

24,16,4,32,123,3,

25,15,3,32,123,3,

24,15,3,31,122,4,

24,16,4,31,122,3,

24,15,3,31,121,3,

23,15,3,31,121,3,

24,16,4,31,120,4,

24,15,3,31,120,3,

24,15,3,31,119,3,

23,15,3,31,118,3,

24,15,3,31,118,3,

23,15,3,31,117,4,

23,15,3,31,117,4,

23,15,3,30,117,3,

22,14,3,30,115,3,

23,14,3,30,115,3,

22,15,3,30,115,4,

22,14,3,30,114,3,

22,14,3,31,114,4,

22,14,4,30,113,3,

22,14,3,30,112,4,

22,15,3,30,112,3,

22,14,3,30,112,3,

22,14,3,30,112,4,

21,14,3,29,110,3,

22,14,3,29,110,3,

21,13,3,29,110,3,

21,13,4,29,109,3,

21,14,3,29,110,4,

21,14,4,29,108,3,

22,14,4,29,108,4,

21,13,4,28,108,3,

21,14,4,29,107,3,

20,13,3,28,107,4,

20,14,3,28,107,4,

20,14,3,28,106,3,

21,13,3,29,105,3,

20,14,3,28,105,3,

21,13,3,28,103,3,

20,13,4,28,103,3,

20,13,3,28,103,3,

19,12,3,28,103,3,

20,13,3,28,103,3,

19,13,3,27,102,3,

20,13,3,27,101,3,

20,12,3,27,102,3,

19,13,3,27,100,3,

20,12,3,27,100,3,

19,12,3,27,100,4,

19,12,3,26,100,3,

19,12,4,26,99,3,

19,12,3,26,99,4,

19,12,4,26,98,3,

19,12,3,26,98,4,

19,12,4,26,97,3,

19,13,4,26,97,3,

19,12,3,27,97,3,

18,12,3,26,96,3,

19,11,3,26,96,3,

18,12,4,25,96,3,

19,11,4,25,95,3,

18,12,4,25,95,3,

19,12,4,25,94,4,

18,12,3,25,94,3,

18,12,3,25,94,3,

19,12,3,25,93,4,

17,12,3,25,93,4,

18,11,3,25,93,3,

17,11,3,25,92,3,

18,11,3,25,92,3,

17,11,3,24,91,3,

18,11,3,25,91,3,

17,11,3,25,91,3,

17,11,3,25,90,3,

17,11,3,24,90,3,

17,11,4,25,90,3,

18,11,3,24,89,3,

18,11,4,24,89,4,

17,11,3,25,89,3,

17,11,3,24,88,4,

16,10,3,24,88,3,

17,11,4,24,88,4,

17,11,3,24,87,3,

17,11,3,24,87,4,

17,11,3,24,87,4,

18,11,5,24,86,3,

17,10,3,24,86,3,

18,10,4,23,85,4,

17,11,3,24,85,3,

17,9,4,24,84,3,

17,11,4,24,83,3,

17,10,4,23,84,3,

17,10,3,22,83,4,

17,10,3,22,83,3,

17,10,3,23,83,3,

17,10,3,23,83,4,

16,9,3,23,82,3,

16,10,3,23,82,4,

16,10,3,22,82,3,

16,10,4,23,82,4,

16,9,4,22,81,3,

16,9,4,22,81,4,

16,9,4,22,80,3,

15,9,3,21,80,3,

16,9,3,22,79,4,

16,10,3,21,79,4,

15,9,3,21,79,3,

17,9,4,21,79,3,

16,10,3,22,79,3,

16,9,3,21,78,4,

16,10,4,22,78,3,

16,10,3,22,78,3,

15,9,4,21,78,3,

15,9,3,22,78,4,

16,9,4,21,77,3,

15,8,3,20,76,3,

15,9,3,21,76,3,

15,9,3,20,76,4,

15,8,3,20,76,3,

15,9,3,20,75,3,

15,8,3,20,75,3,

15,9,3,20,76,3,

15,9,4,20,75,3,

14,9,4,21,74,4,

14,8,3,20,74,3,

14,9,4,19,73,3,

14,9,3,20,73,3,

14,8,3,19,73,3,

14,8,3,20,73,3,

14,8,4,20,73,3,

14,7,3,20,71,3,

14,9,3,19,71,3,

14,9,3,19,71,3,

15,7,3,20,71,3,

14,7,3,19,71,3,

14,7,3,19,71,3,

14,7,4,19,71,3,

13,7,3,19,70,3,

14,9,4,19,70,4,

14,7,3,19,70,3,

13,9,3,19,70,3,

13,7,3,19,69,3,

13,7,3,19,69,3,

