
41,20,0,62,61,0,

43,19,0,61,61,0,

43,23,0,61,61,0,

44,23,0,61,61,0,

43,23,0,61,60,0,

43,22,0,60,60,0,

43,22,0,60,60,0,

42,22,0,60,59,0,

42,22,0,60,59,0,

42,22,0,59,59,0,

41,22,0,59,59,0,

41,22,0,59,58,0,

41,22,0,59,58,0,

41,22,0,58,58,0,

41,21,0,58,57,0,

41,22,0,57,57,0,

41,21,0,57,57,1,

39,21,0,57,56,0,

39,21,0,57,56,0,

39,21,0,56,56,0,

39,20,0,57,56,0,

39,21,0,56,56,0,

39,21,0,56,55,0,

39,20,0,56,55,0,

39,20,0,56,55,0,

39,20,0,55,55,0,

64,20,0,96,54,0,

75,28,0,96,54,0,

73,28,0,96,54,0,

73,28,0,95,53,0,

73,27,0,95,53,0,

71,27,0,94,53,0,

71,27,0,94,53,0,

71,27,0,93,52,0,

71,26,0,93,52,0,

71,26,0,92,51,0,

70,26,0,92,51,0,

70,26,0,92,51,0,

70,26,0,91,51,0,

70,25,0,91,51,0,

69,26,0,90,51,0,

69,26,0,90,50,0,

69,25,0,89,51,0,

68,25,0,89,50,0,

68,25,0,89,50,0,

67,25,0,88,50,0,

67,25,0,88,49,0,

67,25,0,88,49,0,

67,25,0,87,49,0,

66,25,0,87,49,0,

66,25,0,86,49,0,

65,24,0,86,48,0,

65,24,0,85,48,0,

65,24,0,85,48,0,

65,24,0,85,48,0,

64,25,0,84,48,0,

64,24,0,84,47,0,

63,24,0,84,47,0,

63,24,0,83,47,0,

63,24,0,83,47,0,

63,24,0,82,46,0,

62,24,0,82,46,0,

62,24,0,82,46,0,

62,24,0,81,46,0,

62,24,0,81,45,0,

61,24,0,81,45,0,

66,24,0,80,45,0,

66,24,0,79,45,0,

65,24,0,79,45,0,

65,24,0,79,45,0,

65,24,0,79,44,0,

64,24,0,79,44,0,

64,24,0,78,44,0,

63,23,0,78,44,0,

63,23,0,78,43,0,

63,23,0,77,43,0,

63,23,0,77,43,0,

63,23,0,77,43,0,

63,22,0,76,43,0,

62,23,0,76,42,0,

62,22,0,76,42,0,

62,22,0,75,50,0,

61,22,0,75,49,0,

61,22,0,75,49,0,

61,22,0,74,49,0,

60,22,0,74,48,0,

60,22,0,73,48,0,

60,21,0,73,48,0,

60,21,0,73,48,0,

59,21,0,73,47,0,

59,21,0,72,48,0,

59,21,0,71,47,0,

59,21,0,71,47,0,

58,21,0,71,47,0,

58,21,0,71,46,0,

58,20,0,71,46,0,

57,20,0,71,46,0,

57,20,0,71,45,0,

56,20,0,71,45,0,

57,20,0,70,45,0,

56,19,0,70,45,0,

56,20,0,70,45,0,

56,19,0,69,45,0,

56,19,0,69,44,0,

56,19,0,69,44,0,

63,19,0,68,44,0,

62,19,0,68,44,0,

62,19,0,68,43,0,

62,19,0,67,43,0,

62,19,0,67,43,0,

61,19,0,67,43,0,

61,19,0,67,43,0,

61,19,0,66,43,0,

61,18,0,67,42,0,

60,18,0,66,42,0,

60,18,0,65,41,0,

59,18,0,65,41,0,

59,18,0,65,41,0,

60,19,0,64,41,0,

59,20,0,64,41,0,

59,20,0,63,41,0,

59,20,0,63,39,0,

59,20,0,63,40,0,

58,19,0,63,39,0,

58,19,0,63,39,0,

58,19,0,63,39,0,

57,19,0,63,39,0,

57,19,0,62,39,0,

57,19,0,62,39,0,

57,19,0,62,39,0,

56,19,0,62,39,0,

56,19,0,61,83,0,

61,31,0,62,88,0,

61,31,0,93,88,0,

61,31,0,92,88,0,

61,30,0,91,87,0,

60,31,0,91,86,0,

60,30,0,91,86,0,

60,30,0,90,85,0,

59,30,0,89,85,0,

59,30,0,89,85,0,

59,30,0,89,84,0,

58,30,0,89,83,0,

58,29,0,88,83,0,

71,30,0,88,83,0,

71,31,0,88,83,0,

71,30,0,87,82,0,

71,30,0,86,81,0,

71,30,0,86,82,0,

71,30,0,86,81,0,

70,30,0,85,81,0,

70,30,0,85,80,0,

70,30,0,84,79,0,

69,29,0,83,79,0,

69,29,0,83,79,0,

68,29,0,83,79,0,

68,29,0,83,78,0,

67,29,0,83,78,0,

67,29,0,82,78,0,

67,29,0,82,77,0,

67,28,0,81,77,0,

67,28,0,81,77,0,

66,28,0,81,76,0,

66,28,0,80,76,0,

66,28,0,80,76,0,

65,28,0,79,75,0,

65,27,0,79,75,0,

65,27,0,79,75,0,

64,27,0,79,74,0,

63,27,0,78,74,0,

63,27,0,78,73,0,

63,27,0,105,73,0,

63,27,0,105,73,0,

63,27,0,103,71,0,

63,26,0,103,71,0,

62,26,0,103,71,0,

62,26,0,103,71,0,

62,26,0,102,71,0,

61,25,0,102,71,0,

61,25,0,101,70,0,

61,25,0,101,70,0,

60,25,0,100,70,0,

63,25,0,99,70,0,

82,31,0,99,69,0,

82,31,0,99,69,0,

82,31,0,98,68,0,

81,30,0,98,68,0,

81,31,0,97,68,0,

80,30,0,97,67,0,

79,30,0,96,67,0,

79,30,0,96,67,0,

79,30,0,96,67,0,

79,30,0,95,66,0,

78,30,0,95,66,0,

78,30,0,94,66,0,

78,29,0,94,65,0,

78,30,0,94,65,0,

78,35,0,93,65,0,

77,35,0,93,65,0,

77,35,0,92,64,0,

77,35,0,92,63,0,

76,35,0,92,63,0,

76,35,0,91,63,0,

76,34,0,91,63,0,

75,34,0,90,63,0,

75,34,0,90,63,0,

74,34,0,89,62,0,

74,34,0,95,62,0,

73,33,0,143,73,0,

73,33,0,142,79,0,

73,33,0,142,79,0,

71,33,0,141,79,0,

71,33,0,140,78,0,

71,33,0,139,78,0,

71,32,0,139,77,0,

71,32,0,138,77,0,

71,31,0,137,77,0,

70,31,0,135,76,0,

70,31,0,135,76,0,

70,31,0,135,75,0,

70,31,0,135,75,0,

71,31,0,134,75,0,

71,31,0,141,74,0,

71,31,0,140,74,0,

70,30,0,140,73,0,

70,30,0,139,73,0,

70,30,0,138,73,0,

69,30,0,137,73,0,

69,30,0,137,71,0,

69,29,0,135,71,0,

68,30,0,135,71,0,

67,29,0,135,71,0,

68,29,0,135,71,0,

68,29,0,134,71,0,

68,29,0,133,70,0,

68,29,0,132,70,0,

67,29,0,132,70,0,

67,29,0,131,69,0,

67,28,0,131,69,0,

67,29,0,130,68,0,

66,28,0,130,68,0,

66,28,0,129,68,0,

66,28,0,128,67,0,

65,28,0,127,67,0,

65,28,0,127,67,0,

65,27,0,127,67,0,

64,27,0,126,66,0,

63,27,0,125,66,0,

63,27,0,125,65,0,

63,26,0,124,65,0,

63,26,0,124,65,0,

63,26,0,123,65,0,

62,26,0,123,64,0,

62,26,0,122,63,0,

62,25,0,121,63,0,

62,26,0,121,67,0,

61,25,0,121,145,0,

61,25,0,120,159,0,

60,25,0,120,159,0,

60,25,0,119,157,0,

60,25,0,118,157,0,

60,25,0,118,155,0,

59,25,0,117,155,0,

59,24,0,117,153,0,

59,24,0,116,153,0,

59,24,0,115,152,0,

58,24,0,115,152,0,

58,24,0,115,150,0,

57,24,0,114,150,0,

57,24,0,113,149,0,

60,24,0,113,148,0,

61,24,0,113,147,0,

61,24,0,112,147,0,

61,23,0,112,146,0,

60,24,0,111,145,0,

60,23,0,111,144,0,

60,23,0,110,143,0,

60,23,0,110,143,0,

60,23,0,109,142,0,

59,23,0,109,142,0,

58,22,0,108,141,0,

59,22,0,108,140,0,

58,22,0,107,140,0,

58,38,0,107,139,0,

57,54,0,106,138,0,

57,53,0,105,137,0,

57,53,0,105,137,0,

57,53,0,105,135,0,

56,52,0,103,135,0,

56,51,0,103,135,0,

56,51,0,103,134,0,

56,51,0,103,134,0,

55,51,0,102,133,0,

55,51,0,102,133,0,

55,51,1,101,131,0,

54,50,0,101,131,0,

54,50,0,100,130,0,

54,50,0,100,130,0,

53,49,0,99,129,0,

53,49,0,99,129,0,

53,49,0,99,128,0,

53,49,0,98,127,0,

52,48,0,98,127,0,

52,48,0,97,126,0,

52,48,0,97,126,0,

51,48,0,96,125,0,

51,48,0,96,125,0,

51,47,0,96,124,0,

51,47,0,96,124,0,

51,47,0,95,123,0,

50,46,0,95,122,0,

50,46,0,94,122,0,

50,46,0,94,121,0,

49,46,0,94,121,0,

49,46,0,93,120,0,

49,45,0,93,120,0,

74,45,0,92,120,0,

82,44,0,92,119,0,

82,44,0,92,119,0,

81,44,0,91,133,0,

81,44,0,91,215,0,

80,44,0,90,228,0,

79,44,0,90,227,0,

79,44,0,89,225,0,

79,43,0,89,224,0,

78,43,0,89,223,0,

78,43,0,88,221,0,

78,42,0,88,220,0,

77,42,0,88,220,0,

77,42,0,88,218,0,

76,41,0,88,217,0,

77,41,0,86,216,0,

76,41,0,86,216,0,

76,41,0,86,214,0,

76,41,0,85,213,0,

75,39,0,85,211,0,

75,39,0,85,211,0,

74,39,0,84,209,0,

74,39,0,83,208,0,

73,39,0,83,207,0,

73,39,0,83,207,0,

73,39,0,83,206,0,

72,39,0,83,205,0,

77,39,0,82,204,0,

77,38,0,82,203,0,

76,39,0,82,202,0,

76,39,0,81,201,0,

76,38,0,81,199,0,

75,38,0,80,199,1,

75,38,0,80,198,0,

75,38,0,79,197,0,

74,37,0,79,196,0,

73,37,0,79,195,0,

73,37,0,79,195,0,

73,37,0,79,194,0,

98,37,0,78,193,0,

97,36,0,78,192,0,

96,36,0,78,191,0,

96,35,0,77,190,0,

95,36,0,77,189,0,

95,35,0,77,189,0,

94,35,0,76,188,0,

94,35,0,76,187,0,

93,35,0,76,186,0,

93,35,0,75,185,0,

92,34,0,75,184,0,

92,34,0,75,184,0,

94,34,0,74,183,0,

97,34,0,74,182,0,

97,34,0,74,182,0,

96,34,0,73,180,0,

96,33,0,73,179,0,

95,33,0,73,179,0,

94,33,0,71,178,0,

94,33,0,71,177,0,

94,33,0,71,176,0,

93,33,0,71,176,0,

93,32,0,71,175,0,

92,32,0,71,174,0,

92,31,0,70,174,0,

135,31,0,70,173,0,

135,31,0,70,172,0,

134,31,0,70,171,0,

133,31,0,70,171,0,

132,31,0,69,169,0,

132,31,0,69,169,0,

131,31,0,68,167,0,

130,31,0,68,167,0,

130,31,0,67,167,0,

129,30,0,67,166,0,

128,30,0,67,165,0,

127,31,0,67,164,0,

127,56,0,67,163,0,

126,56,0,66,163,0,

126,56,0,66,162,0,

125,56,0,66,161,0,

124,55,0,65,161,0,

124,55,0,65,159,0,

123,54,0,65,159,0,

123,54,0,64,159,0,

122,54,0,64,158,1,

121,53,0,63,157,0,

121,53,0,121,156,0,

175,52,0,147,156,0,

175,52,0,146,155,0,

173,51,0,144,154,0,

172,51,0,143,153,0,

171,51,0,143,153,0,

170,51,0,142,152,0,

169,50,0,142,152,1,

167,50,1,141,151,0,

167,50,0,140,150,0,

167,50,0,139,149,0,

166,49,0,138,148,0,

165,49,0,138,147,0,

163,48,0,137,147,0,

163,49,0,135,146,0,

162,48,0,135,145,0,

161,48,0,135,145,0,

160,48,0,134,144,0,

159,48,0,134,143,0,

159,47,0,133,143,0,

158,47,0,132,142,0,

157,47,0,131,142,0,

156,46,0,131,141,0,

189,46,0,130,141,0,

196,46,0,130,140,0,

195,46,1,129,139,0,

193,46,0,127,139,0,

192,45,0,127,138,0,

192,45,0,127,137,0,

190,45,0,127,137,0,

189,44,0,126,135,0,

188,45,0,125,135,0,

187,44,0,125,135,0,

186,44,1,124,135,0,

185,44,0,123,134,1,

184,44,0,123,133,0,

184,43,0,122,133,0,

182,43,0,121,132,0,

181,43,0,121,131,0,

180,42,0,120,131,0,

179,42,0,120,130,0,

178,42,0,119,129,0,

177,41,0,118,129,0,

176,41,0,118,129,0,

176,41,0,117,127,0,

175,41,0,117,127,0,

174,41,0,117,127,0,

173,39,0,135,126,0,

172,41,0,134,126,0,

171,39,0,134,125,0,

171,39,0,133,124,0,

169,39,0,132,124,0,

169,39,0,131,123,0,

167,39,0,131,123,0,

167,39,0,130,122,0,

166,39,0,129,121,0,

165,39,0,128,121,0,

164,38,0,127,120,0,

163,38,0,127,120,0,

163,38,0,126,213,0,

162,38,0,126,335,0,

161,38,0,125,467,0,

160,37,0,125,480,0,

159,37,0,124,476,0,

159,36,0,123,472,0,

158,36,0,123,468,0,

157,36,0,122,464,0,

156,36,0,121,462,0,

156,37,0,121,459,0,

156,37,0,120,455,0,

154,36,0,120,452,0,

153,37,0,119,450,0,

153,36,0,118,447,0,

152,36,0,118,572,1,

152,35,1,117,701,0,

151,36,0,117,845,0,

150,35,0,116,835,0,

149,35,0,115,824,0,

149,35,1,115,814,0,

161,35,0,115,807,0,

192,39,0,114,797,0,

190,39,0,113,791,0,

189,39,0,113,782,0,

188,39,0,112,773,0,

187,38,0,112,767,1,

185,38,0,111,759,1,

185,38,0,111,753,0,

184,38,0,110,745,0,

182,37,0,110,739,0,

182,37,1,109,732,1,

181,37,1,167,725,1,

179,37,1,178,719,1,

179,37,0,177,713,0,

178,37,0,176,707,1,

177,36,1,175,700,0,

176,36,0,174,694,0,

175,36,0,173,689,1,

174,35,1,172,683,1,

173,35,1,171,678,0,

172,35,1,170,671,0,

171,35,0,169,665,0,

171,34,1,175,661,0,

170,34,1,174,655,1,

202,73,0,173,652,1,

240,107,0,172,646,0,

238,106,1,172,639,0,

236,105,1,170,634,1,

235,103,1,169,631,1,

233,103,1,167,625,1,

231,103,1,167,620,1,

230,103,1,167,615,1,

229,102,1,166,611,1,

227,101,1,165,605,1,

226,101,1,164,600,1,

225,99,1,163,597,1,

224,99,1,162,591,1,

223,99,1,161,588,1,

221,99,1,161,584,1,

220,98,1,159,579,1,

219,98,1,159,575,1,

218,97,1,158,572,1,

217,96,1,158,568,1,

216,96,1,157,564,1,

215,95,1,156,560,1,

214,95,1,155,556,1,

212,94,1,155,551,1,

211,93,1,154,548,1,

210,93,1,153,545,1,

209,93,1,152,541,1,

207,92,1,152,538,1,

207,92,1,151,535,1,

206,91,1,150,531,1,

205,91,2,149,527,1,

204,90,1,149,524,1,

203,90,1,148,521,1,

202,89,1,147,518,1,

201,89,1,147,515,1,

199,88,2,146,510,1,

199,88,2,145,507,2,

198,88,2,144,504,1,

197,87,2,143,500,2,

196,87,1,143,498,2,

195,86,2,142,494,2,

194,86,2,142,492,2,

193,85,2,141,488,2,

192,85,2,140,485,2,

192,85,2,140,483,2,

190,84,2,139,480,2,

189,83,2,139,477,2,

189,83,2,138,475,2,

188,83,2,137,472,2,

187,82,2,137,469,2,

186,82,2,135,466,2,

185,81,2,135,463,2,

184,81,2,135,460,2,

184,81,2,134,457,2,

182,80,2,133,455,2,

182,79,2,133,452,2,

180,79,2,132,450,2,

179,79,2,131,447,2,

179,78,2,131,445,3,

178,78,2,130,442,2,

177,78,3,130,440,2,

176,78,3,129,437,2,

176,77,3,129,435,2,

175,76,3,127,432,3,

174,76,3,127,430,2,

173,76,3,127,427,3,

172,76,3,126,425,3,

172,75,2,126,423,3,

171,75,3,125,421,3,

169,74,3,125,418,3,

169,74,3,124,415,3,

167,73,3,123,414,3,

167,73,3,123,411,3,

167,73,2,122,409,3,

166,71,3,121,407,3,

165,71,3,121,405,3,

164,71,3,132,403,3,

163,71,3,225,400,3,

167,90,3,331,398,3,

167,89,3,327,396,3,

166,89,3,324,394,3,

165,88,3,322,391,3,

164,88,3,319,390,3,

163,87,3,318,387,3,

162,87,3,316,385,3,

162,86,3,315,384,3,

161,86,3,312,382,3,

160,85,3,311,379,3,

159,85,3,309,377,3,

159,84,3,307,376,3,

163,86,3,305,374,3,

162,86,3,304,371,3,

161,85,3,302,370,3,

159,85,3,300,368,3,

159,84,3,299,366,3,

159,84,3,297,364,3,

158,83,3,295,362,3,

157,83,3,294,361,3,

156,83,3,292,359,3,

156,82,3,291,357,3,

155,82,3,289,355,3,

154,81,3,287,353,3,

153,96,3,287,352,3,

152,139,3,284,350,3,

152,137,3,284,348,3,

152,135,3,282,346,3,

151,135,3,280,344,3,

150,135,3,279,343,3,

149,134,3,277,340,3,

148,133,3,275,339,3,

147,132,3,274,337,3,

147,131,3,273,335,3,

146,131,2,271,334,3,

145,130,3,270,332,3,

145,129,3,268,331,3,

143,128,3,267,327,3,

143,127,2,266,327,3,

143,127,3,263,325,3,

142,126,3,263,323,3,

141,126,2,262,322,3,

140,124,3,260,319,3,

140,124,2,259,319,2,

139,123,2,258,318,2,

169,123,3,256,316,2,

167,122,2,255,314,3,

167,121,2,254,313,2,

166,120,2,252,311,2,

165,120,3,251,310,2,

164,120,2,250,308,2,

163,119,2,248,307,2,

162,118,2,248,305,2,

161,118,2,246,304,2,

160,117,3,245,302,2,

159,116,2,243,300,2,

159,115,2,243,299,2,

158,115,2,241,298,2,

157,114,2,240,295,2,

156,114,2,239,295,2,

155,113,2,238,293,2,

154,113,2,236,292,2,

153,112,2,235,291,2,

152,111,2,234,289,2,

152,111,2,233,287,2,

151,110,2,231,287,2,

150,110,2,231,285,2,

149,109,1,230,284,2,

148,108,2,229,282,2,

147,108,2,227,281,2,

147,108,2,226,280,2,

146,107,2,225,278,2,

146,106,2,224,277,2,

145,106,2,223,275,2,

144,105,2,222,275,1,

143,123,2,221,273,2,

143,122,2,220,271,2,

142,121,2,219,271,2,

141,121,2,217,270,2,

140,120,2,217,268,2,

140,120,2,216,267,2,

139,119,2,215,265,2,

138,118,1,214,263,1,

137,117,1,213,263,2,

137,117,2,211,262,2,

135,115,1,211,261,1,

135,115,2,210,259,2,

135,115,2,208,259,2,

135,114,1,207,257,1,

134,113,1,207,255,1,

133,113,2,206,255,1,

133,112,1,205,253,1,

132,112,1,204,252,1,

131,111,1,203,251,1,

131,110,1,202,250,1,

130,110,1,201,249,1,

129,109,1,199,248,1,

129,108,1,199,247,1,

134,119,1,198,245,1,

133,118,1,197,244,2,

133,118,1,196,243,1,

132,117,1,195,242,1,

131,116,1,195,241,1,

130,115,1,194,240,1,

130,115,1,193,239,1,

129,114,1,192,238,1,

128,113,1,191,237,1,

127,113,1,190,236,1,

127,112,2,189,235,1,

152,112,1,189,233,1,

150,111,1,188,231,1,

150,111,1,187,231,1,

149,110,1,185,231,1,

148,109,1,185,229,1,

147,109,1,184,228,1,

146,108,1,184,227,1,

145,107,1,182,226,1,

145,107,1,182,225,1,

143,108,1,240,224,1,

143,109,1,304,223,1,

142,108,1,301,222,1,

141,107,1,300,221,1,

141,106,1,297,220,1,

140,106,1,295,220,1,

139,105,1,294,218,1,

138,105,1,291,217,1,

137,103,1,291,216,1,

137,103,1,289,216,1,

135,103,1,287,215,1,

135,103,1,285,214,1,

135,102,1,284,213,1,

134,102,1,282,211,1,

133,101,1,281,211,1,

133,100,1,280,210,1,

131,100,1,278,209,1,

131,99,1,275,207,1,

131,99,1,274,207,1,

130,99,1,273,206,1,

129,98,1,271,206,1,

129,97,1,271,205,1,

127,97,1,269,204,1,

127,97,1,268,203,0,

127,96,1,266,202,1,

126,96,1,263,201,1,

126,95,1,263,199,0,

125,95,1,262,199,1,

124,94,1,261,199,1,

124,94,1,259,198,1,

123,93,1,258,197,1,

123,93,0,257,196,1,

122,92,1,255,195,1,

122,96,1,254,195,1,

123,102,1,253,194,1,

121,102,1,251,193,1,

121,101,1,250,192,1,

120,100,1,249,192,1,

120,99,1,248,191,1,

120,99,1,246,190,0,

119,99,1,245,189,1,

118,98,1,243,188,1,

117,97,1,243,187,1,

117,99,1,241,187,1,

117,149,1,240,186,1,

116,147,1,240,185,1,

115,146,1,238,184,1,

115,145,1,237,184,1,

114,143,1,236,183,1,

114,143,0,235,182,1,

113,142,0,233,181,0,

113,141,0,231,180,1,

112,140,0,231,179,0,

112,140,0,230,179,0,

112,139,1,229,178,1,

118,139,1,227,177,0,

130,137,1,227,176,0,

129,135,1,225,176,1,

128,135,0,224,175,0,

127,135,0,224,174,1,

127,135,0,222,174,0,

126,134,0,221,173,1,

126,133,0,220,172,0,

125,132,1,219,171,0,

124,132,1,217,171,1,

124,131,0,217,169,0,

123,130,1,216,169,0,

122,130,0,215,169,1,

121,129,0,214,167,0,

121,128,1,212,167,1,

120,127,0,211,167,0,

120,127,1,211,166,1,

119,126,0,209,165,0,

118,126,0,208,164,1,

118,125,1,207,163,1,

117,124,1,207,163,1,

116,135,1,206,163,0,

163,134,0,205,161,0,

161,133,0,204,161,0,

159,132,0,203,159,0,

159,131,0,201,159,1,

158,131,1,201,159,1,

157,130,0,199,158,1,

156,129,0,199,157,0,

156,129,0,198,157,0,

155,127,0,197,156,0,

154,127,1,196,156,1,

153,126,0,195,155,0,

152,126,0,194,154,1,

152,125,0,193,153,0,

150,125,0,192,153,1,

149,124,0,192,152,1,

149,123,1,191,152,1,

148,122,0,190,151,0,

147,121,0,189,150,0,

147,121,1,188,149,0,

146,167,0,187,149,0,

148,173,0,186,148,0,

199,172,1,185,148,1,

220,170,0,185,147,1,

219,169,0,184,147,1,

217,167,0,183,146,0,

216,167,1,182,145,0,

214,166,1,181,144,0,

213,165,0,180,143,0,

211,164,0,179,143,1,

211,163,0,179,143,0,

209,162,0,177,142,1,

207,161,0,177,142,1,

248,161,1,176,141,1,

277,159,0,176,140,1,

275,159,1,175,140,0,

273,158,0,174,140,0,

271,157,1,173,139,0,

270,156,0,172,138,1,

268,155,0,172,137,0,

267,154,1,171,137,0,

265,153,0,170,137,0,

263,153,0,169,135,0,

262,152,0,167,135,0,

260,151,0,167,135,0,

259,151,0,167,134,1,

257,150,0,166,134,0,

255,149,0,165,133,0,

255,147,1,165,132,0,

253,147,0,164,132,0,

252,146,0,163,131,0,

250,146,1,162,131,0,

249,144,0,162,131,0,

248,144,0,161,130,0,

247,143,0,160,129,0,

245,142,1,159,129,0,

243,142,0,159,128,0,

242,147,1,158,127,1,

241,147,0,158,127,0,

240,146,0,157,126,0,

238,145,0,156,126,0,

237,145,0,156,126,0,

236,143,0,155,125,0,

235,143,0,154,124,0,

233,142,0,153,124,1,

231,141,0,153,124,0,

231,141,0,152,123,0,

230,140,0,152,123,0,

228,139,0,151,122,0,

227,139,0,150,121,0,

226,137,0,150,121,0,

224,137,0,149,120,0,

224,135,0,148,120,0,

223,135,0,147,120,0,

222,151,0,161,119,0,

220,163,0,159,118,0,

219,162,0,159,118,0,

218,161,0,158,117,0,

217,159,0,158,117,0,

216,159,0,157,117,0,

215,158,0,156,116,0,

214,157,0,155,115,0,

212,156,0,154,115,0,

211,156,0,153,115,0,

210,155,0,152,114,0,

209,154,0,152,114,0,

207,153,0,151,113,0,

207,153,0,150,113,0,

206,152,0,149,112,0,

205,151,0,149,112,0,

204,150,0,147,111,0,

203,149,0,147,111,0,

202,148,0,146,110,0,

201,147,0,145,110,0,

199,146,0,145,110,0,

199,146,0,144,109,0,

198,145,0,143,109,0,

197,220,0,143,108,0,

196,261,0,143,108,0,

195,259,0,142,108,0,

194,257,0,141,107,0,

193,255,0,140,106,0,

192,253,0,140,106,0,

192,252,0,140,105,0,

190,251,0,139,105,0,

189,249,0,138,103,0,

189,248,0,137,103,0,

219,329,0,137,103,0,

217,331,0,135,103,0,

216,327,0,195,103,0,

215,325,0,228,102,0,

213,323,0,226,102,0,

211,321,0,225,102,0,

211,319,0,223,101,0,

209,317,0,222,101,0,

207,315,0,221,100,0,

207,313,0,219,100,0,

206,312,0,218,99,0,

274,310,1,217,99,0,

271,307,0,216,99,0,

269,306,0,215,98,0,

268,305,0,213,98,0,

266,302,0,212,97,0,

264,301,0,211,97,1,

263,300,0,210,97,0,

262,297,0,209,96,0,

260,295,1,207,96,0,

259,295,0,207,96,0,

257,292,0,206,95,0,

255,291,0,205,95,0,

255,340,0,204,94,0,

253,352,0,203,94,0,

252,349,0,202,94,0,

251,347,0,201,93,0,

249,344,0,199,93,0,

248,342,1,199,92,0,

246,340,0,213,93,0,

245,338,0,309,92,0,

308,337,0,327,92,0,

361,334,0,326,91,0,

358,332,0,323,125,0,

355,331,0,322,124,0,

353,327,0,319,123,0,

351,326,0,317,122,0,

349,324,0,316,121,0,

347,323,0,314,121,0,

344,321,0,312,120,0,

342,319,0,310,120,0,

339,317,0,308,119,0,

338,315,0,307,118,0,

335,313,0,305,118,1,

334,312,0,303,117,0,

332,309,0,301,116,0,

330,307,0,300,115,0,

327,306,0,298,115,0,

326,304,0,295,115,0,

324,302,0,295,114,0,

322,301,1,303,113,0,

319,300,0,324,112,0,

319,298,0,322,163,0,

317,295,1,319,160,1,

350,294,1,318,159,0,

347,293,0,316,159,0,

344,291,0,314,158,0,

342,290,0,312,157,0,

340,287,0,310,156,0,

338,321,0,309,155,0,

335,435,0,307,154,0,

334,431,0,305,153,0,

332,427,0,304,152,1,

330,425,0,302,152,1,

327,422,0,300,150,0,

326,418,0,298,150,0,

323,415,0,297,149,0,

362,413,0,295,148,0,

359,410,0,293,147,0,

357,408,0,291,147,0,

355,405,0,290,146,1,

352,403,0,287,145,1,

350,399,0,287,144,0,

348,398,0,398,143,0,

346,395,1,465,143,0,

363,393,0,461,142,0,

449,391,0,455,141,0,

445,388,1,453,141,0,

441,386,0,450,140,0,

438,384,0,447,139,0,

435,382,0,444,138,1,

432,379,1,440,137,0,

428,377,1,438,136,0,

425,374,1,435,135,0,

423,372,1,432,135,0,

419,370,0,429,135,0,

417,368,0,427,134,0,

415,366,0,423,133,0,

412,364,0,421,133,1,

409,361,0,418,131,1,

407,359,1,415,131,0,

403,357,0,413,131,0,

401,355,1,411,130,0,

399,353,0,408,129,0,

397,351,0,406,129,0,

394,351,1,403,127,0,

391,423,0,401,127,0,

389,419,0,398,127,0,

387,415,0,395,126,0,

384,412,0,393,125,1,

382,410,1,391,124,0,

380,408,1,388,124,0,

377,405,0,386,124,0,

376,444,0,384,123,1,

373,441,0,382,122,0,

371,437,0,380,121,0,

368,434,0,377,121,0,

367,430,0,376,120,0,

364,428,1,373,120,0,

363,425,0,371,119,0,

359,423,0,369,119,0,

358,419,0,367,118,1,

356,417,0,365,117,1,

354,415,1,363,117,0,

352,412,0,361,116,1,

350,409,0,359,115,1,

348,476,0,357,115,0,

346,473,0,355,114,1,

344,469,1,353,114,1,

342,465,0,351,113,0,

340,462,1,349,113,1,

339,460,1,347,112,1,

337,455,1,345,112,1,

335,452,1,344,111,0,

333,449,1,342,110,1,

331,447,1,339,110,1,

329,444,1,337,109,1,

327,441,1,335,109,1,

326,438,0,335,108,1,

323,435,1,332,108,1,

322,433,1,331,107,1,

320,430,1,329,107,1,

319,427,1,327,106,1,

317,423,1,326,106,1,

316,421,1,323,105,1,

313,419,1,322,103,1,

312,415,1,320,103,1,

311,413,1,319,103,1,

309,411,1,317,103,1,

307,408,1,315,103,1,

306,406,1,314,102,1,

304,403,1,312,101,1,

303,401,1,311,102,1,

301,399,1,309,101,1,

299,396,1,307,100,1,

297,393,1,306,99,1,

295,391,1,304,99,1,

295,389,1,303,99,1,

293,387,1,301,98,1,

291,385,1,300,98,1,

291,383,1,299,97,1,

289,381,1,297,97,1,

287,378,1,295,97,1,

286,376,1,294,96,1,

285,374,1,293,96,1,

284,372,2,291,95,1,

282,370,1,290,95,2,

280,368,1,289,94,1,

280,366,1,287,94,1,

278,364,1,286,94,1,

276,362,1,284,93,1,

275,359,1,283,93,2,

274,358,2,282,93,1,

273,356,1,280,92,1,

271,354,1,280,92,1,

270,353,1,278,91,1,

269,351,1,276,91,1,

268,349,1,275,90,1,

266,347,1,274,90,1,

265,345,1,273,90,1,

263,344,1,271,89,1,

263,342,1,270,89,1,

262,340,1,269,89,1,

259,338,1,268,88,1,

259,335,1,267,88,1,

258,335,2,265,88,1,

257,333,1,263,87,1,

255,331,1,263,88,1,

254,329,1,262,87,1,

253,327,1,261,86,1,

252,326,1,259,86,1,

250,324,1,259,85,1,

249,323,1,257,85,1,

248,321,1,255,85,1,

247,319,1,255,84,1,

246,318,1,253,83,1,

245,316,1,253,83,1,

243,315,1,251,83,1,

243,313,1,250,83,1,

241,312,1,249,82,1,

240,310,1,248,82,2,

239,308,1,247,82,1,

238,307,1,246,81,1,

237,305,1,245,81,1,

236,304,1,243,81,1,

235,303,1,242,80,1,

233,301,1,242,115,1,

231,300,1,240,114,1,

231,298,1,239,113,1,

230,295,1,238,112,1,

229,295,1,237,112,1,

228,294,1,236,111,1,

227,291,1,234,110,1,

226,290,1,233,110,1,

225,289,1,231,109,1,

224,287,1,231,109,1,

223,286,1,231,108,1,

241,284,1,229,108,1,

240,283,1,228,107,1,

239,281,1,227,106,1,

237,280,1,226,106,1,

236,279,1,225,105,1,

234,277,1,224,103,1,

233,276,1,223,103,1,

231,275,1,222,103,1,

231,273,1,221,103,1,

229,271,1,220,103,1,

228,345,1,219,102,1,

227,373,1,217,101,1,

225,370,1,217,100,1,

224,368,1,216,100,1,

224,365,1,215,99,1,

222,363,1,214,99,1,

221,359,0,213,99,1,

220,359,1,212,98,1,

219,356,1,211,97,1,

218,354,1,211,97,1,

217,352,1,209,96,1,

281,350,1,209,96,1,

292,348,0,207,96,1,

290,346,1,207,95,1,

289,344,1,206,94,1,

287,342,1,205,94,1,

285,339,1,204,94,1,

284,338,1,204,94,1,

281,335,0,202,93,1,

280,335,1,202,92,1,

279,332,1,199,92,1,

277,330,1,199,91,1,

275,327,1,199,91,0,

274,327,1,199,90,0,

272,325,0,198,89,0,

271,323,1,197,89,1,

270,322,1,196,89,1,

268,319,0,195,89,1,

267,318,0,194,88,1,

265,316,1,193,88,0,

263,315,1,193,88,1,

263,313,1,192,87,0,

261,312,1,191,86,1,

259,310,1,190,86,1,

258,307,1,189,86,0,

257,306,1,188,85,1,

255,305,0,188,85,1,

254,303,1,187,84,0,

253,301,1,187,83,1,

252,300,0,185,83,0,

251,299,1,185,83,0,

249,297,1,184,83,0,

248,295,1,183,82,1,

246,294,1,182,82,0,

246,292,0,182,82,1,

244,291,1,181,81,0,

243,289,0,180,81,1,

241,287,1,179,80,0,

240,286,1,179,79,0,

239,285,0,178,79,1,

238,283,1,177,79,0,

237,282,0,176,79,0,

236,280,1,176,79,1,

234,280,1,175,78,0,

233,278,1,174,78,0,

231,276,1,174,78,1,

231,275,1,173,77,1,

230,273,0,172,77,1,

228,272,1,172,77,0,

227,271,1,171,76,0,

226,270,1,170,76,1,

225,268,1,169,76,0,

224,267,0,167,76,0,

223,265,0,167,75,0,

222,265,0,167,75,0,

221,263,0,167,74,0,

220,262,0,166,74,1,

219,261,0,165,74,0,

217,259,1,164,74,0,

217,258,0,163,73,0,

216,257,0,163,73,0,

215,255,0,163,73,0,

214,255,0,162,72,0,

213,253,0,161,71,0,

211,252,0,161,71,0,

211,251,0,159,71,0,

210,250,0,159,71,0,

209,249,1,159,71,0,

207,248,0,158,71,0,

207,246,0,157,70,0,

206,245,0,157,70,0,

205,244,0,156,69,0,

204,243,0,156,70,1,

204,242,0,155,69,1,

203,241,0,154,69,0,

202,240,0,153,68,0,

201,239,0,153,68,1,

199,238,1,152,68,0,

199,236,0,152,68,0,

198,235,0,151,67,0,

198,235,0,150,67,0,

196,233,0,150,67,0,

195,231,0,149,66,0,

195,231,0,148,66,0,

194,231,0,148,66,0,

193,230,0,147,66,1,

192,228,0,147,65,0,

192,227,0,146,65,0,

190,226,1,146,65,0,

189,225,0,145,65,0,

189,224,0,144,64,0,

190,223,0,143,64,0,

199,222,0,143,63,0,

197,221,0,143,63,0,

196,220,0,142,63,0,

195,219,0,141,63,1,

194,218,0,141,63,0,

193,217,1,140,63,1,

192,216,0,140,62,0,

192,216,1,139,62,0,

190,214,0,139,62,0,

189,214,0,138,61,0,

188,212,0,137,61,0,

188,211,0,137,61,0,

187,211,0,135,61,1,

186,209,0,135,61,0,

185,209,0,135,60,0,

184,207,0,135,60,0,

184,207,0,134,60,0,

183,206,0,134,59,1,

182,205,0,133,59,0,

181,204,0,132,59,0,

180,203,0,131,59,0,

179,202,0,131,58,0,

178,201,0,131,58,0,

178,201,0,131,58,1,

177,199,0,130,58,0,

176,199,0,129,57,0,

176,198,0,129,57,0,

175,197,0,128,57,0,

174,196,0,127,57,0,

173,195,0,127,57,0,

172,194,0,127,57,0,

172,194,0,126,56,0,

171,193,0,126,56,0,

170,192,0,125,56,0,

169,191,0,125,56,0,

167,190,0,124,56,0,

167,190,0,124,55,0,

167,189,0,123,56,0,

167,188,0,123,54,0,

166,187,0,122,54,0,

165,186,0,122,54,0,

165,185,0,121,54,0,

164,211,1,121,54,0,

193,282,0,120,53,0,

192,280,0,120,53,0,

191,277,0,120,53,0,

189,275,0,119,53,0,

188,274,1,119,52,0,

187,272,0,118,52,0,

186,271,0,117,51,0,

185,269,0,117,51,0,

184,268,0,117,51,0,

184,266,0,116,51,0,

183,265,0,115,51,0,

181,263,0,115,51,0,

180,262,0,114,50,0,

179,260,0,114,51,0,

178,259,0,114,50,0,

177,257,0,113,50,0,

177,255,0,113,50,0,

176,255,0,112,49,0,

175,253,0,112,49,0,

174,252,0,111,49,0,

173,251,0,111,49,0,

172,249,0,111,49,0,

171,248,1,110,48,0,

171,247,0,110,48,0,

169,245,0,109,48,0,

167,243,0,109,48,0,

167,243,0,108,48,0,

167,241,0,108,47,0,

166,240,0,108,47,0,

165,239,0,107,47,0,

165,237,0,107,46,0,

164,236,0,107,46,0,

163,236,0,105,46,0,

162,234,0,105,46,0,

162,233,0,105,46,0,

161,231,0,104,46,0,

160,230,0,103,45,1,

159,230,0,103,46,0,

158,228,0,103,45,0,

158,227,0,103,45,0,

158,226,0,102,45,0,

157,224,0,102,45,0,

156,224,0,102,44,0,

156,223,0,101,44,0,

155,222,0,101,44,0,

154,220,0,100,44,0,

153,219,0,99,44,0,

153,218,0,99,43,0,

152,217,0,99,44,0,

152,216,0,99,43,0,

151,215,0,99,43,0,

151,214,0,98,43,0,

150,213,0,98,43,0,

149,212,0,98,42,0,

149,211,0,97,42,0,

148,210,0,97,42,0,

147,209,0,147,42,0,

147,208,0,147,41,0,

146,207,0,146,41,0,

145,206,0,145,41,0,

145,205,0,144,41,0,

144,204,0,143,41,0,

143,203,0,143,41,0,

143,202,0,142,40,0,

142,202,0,141,41,1,

142,199,0,140,39,0,

141,199,0,140,39,0,

141,199,0,139,39,0,

140,198,0,139,39,0,

140,197,0,138,39,0,

139,195,0,137,39,0,

139,195,0,136,39,0,

138,194,0,135,39,0,

137,193,0,135,39,0,

135,192,0,134,39,0,

135,191,0,134,38,0,

135,190,0,133,38,0,

135,189,0,132,38,0,

134,188,0,131,38,0,

134,188,0,131,38,0,

134,187,0,130,38,0,

133,186,0,130,38,0,

132,185,0,129,37,0,

131,184,0,128,37,0,

131,184,0,127,37,0,

131,182,0,127,37,0,

130,182,0,126,36,0,

129,181,0,126,36,0,

129,180,0,125,36,0,

128,179,0,125,36,0,

127,179,0,124,36,0,

127,178,0,123,35,0,

127,177,0,123,35,0,

126,176,0,122,35,0,

126,175,0,121,35,0,

125,175,0,121,35,0,

125,174,0,121,35,0,

124,173,0,120,35,0,

124,172,0,120,35,0,

123,172,0,119,34,0,

123,171,0,118,35,0,

122,171,0,118,34,0,

121,169,0,117,34,0,

121,169,0,116,34,0,

120,167,0,116,34,0,

120,167,0,115,34,0,

120,167,0,115,33,0,

119,166,0,114,33,0,

118,165,0,114,33,0,

118,164,0,113,33,0,

118,164,0,113,33,0,

117,163,0,112,33,0,

116,163,0,112,33,0,

116,161,0,111,32,0,

115,161,0,111,31,0,

115,159,0,110,31,0,

115,159,0,109,31,0,

114,159,0,109,31,0,

114,158,0,109,31,0,

113,158,0,108,31,0,

113,157,0,108,31,0,

112,156,0,107,31,0,

112,156,0,107,31,0,

112,155,0,106,31,0,

111,154,0,105,31,0,

111,153,0,105,31,0,

110,153,0,105,30,0,

109,152,0,103,31,0,

109,152,0,103,30,0,

109,152,0,103,30,0,

108,150,0,103,30,0,

108,150,0,102,30,0,

107,149,0,102,29,0,

107,148,0,102,30,0,

107,148,0,101,29,0,

106,147,0,100,29,0,

105,147,0,99,29,0,

105,146,0,99,29,0,

105,145,0,99,29,0,

103,145,0,99,28,0,

103,144,0,98,29,0,

103,143,0,98,28,0,

103,143,0,97,28,0,

103,142,0,97,28,0,

102,142,0,96,28,0,

102,141,0,96,28,0,

101,141,0,96,28,0,

101,141,0,95,28,0,

100,140,0,95,28,0,

100,140,0,95,27,0,

99,139,0,94,27,0,

99,138,0,94,27,0,

99,137,0,94,27,0,

99,137,0,93,27,0,

98,135,0,92,27,0,

98,135,0,92,27,0,

97,135,0,92,27,0,

97,135,0,92,27,0,

97,135,0,91,26,0,

96,134,0,91,26,0,

96,133,0,91,26,0,

96,133,0,90,26,0,

95,132,0,90,26,0,

95,131,0,89,25,0,

95,131,0,89,25,0,

94,131,0,89,25,0,

94,130,0,89,25,0,

93,130,0,88,25,0,

93,129,0,88,25,0,

93,129,0,88,25,0,

93,129,0,88,25,0,

92,127,0,88,25,0,

92,127,0,87,24,0,

92,127,0,86,24,0,

91,127,0,86,25,0,

91,126,0,86,24,0,

90,125,0,85,24,0,

90,125,0,85,24,0,

90,125,0,85,24,0,

89,124,0,85,24,0,

89,124,0,84,24,0,

89,123,0,83,24,0,

88,123,0,83,24,0,

88,122,0,83,24,0,

88,122,0,83,23,0,

88,121,0,82,24,0,

88,121,0,82,24,0,

86,121,0,82,23,0,

87,120,0,82,23,0,

86,120,0,81,23,0,

86,119,0,81,24,0,

85,119,0,81,23,0,

85,118,0,80,22,0,

85,118,1,80,22,0,

84,118,0,79,23,0,

84,117,0,79,22,0,

83,116,0,79,22,0,

83,116,0,79,22,0,

83,115,0,79,22,0,

83,115,0,78,22,0,

82,115,0,78,22,0,

82,114,0,78,22,0,

82,114,0,77,21,0,

82,113,0,77,21,0,

82,113,0,77,21,0,

81,113,0,77,21,0,

80,112,0,77,21,0,

80,112,0,76,21,0,

80,111,0,76,21,0,

79,110,0,76,20,0,

79,110,0,76,21,0,

79,110,0,75,21,0,

79,109,0,75,21,0,

78,109,0,74,20,0,

78,109,0,74,20,0,

78,109,0,74,20,0,

78,108,0,74,20,0,

77,108,0,73,20,0,

77,107,0,73,20,0,

77,107,0,73,19,0,

77,106,0,73,19,0,

76,106,0,71,19,1,

76,105,0,71,20,0,

76,105,0,71,19,0,

75,105,0,71,19,0,

75,103,0,71,19,0,

75,103,0,71,19,0,

74,103,0,71,19,0,

74,103,0,70,19,0,

74,103,0,70,19,0,

73,102,0,70,19,0,

73,102,0,70,18,0,

73,101,0,69,19,0,

72,101,0,69,18,0,

71,101,0,69,18,1,

71,100,0,68,18,0,

71,99,0,68,18,0,

71,99,0,68,18,0,

71,99,0,68,18,0,

71,99,0,67,18,0,

71,98,0,67,18,0,

70,98,0,67,18,0,

70,98,0,67,18,0,

70,97,0,67,18,0,

70,97,0,66,18,0,

69,96,0,66,17,1,

69,97,0,66,17,0,

69,96,0,65,17,0,

69,96,0,65,17,0,

68,96,0,65,17,0,

68,95,0,65,17,0,

68,95,0,65,17,0,

68,94,0,65,17,0,

67,94,0,64,17,0,

67,94,0,64,16,0,

67,93,0,63,17,0,

67,93,0,63,17,0,

66,93,0,63,16,0,

66,93,0,63,17,0,

111,92,0,63,16,0,

110,92,0,62,16,0,

110,91,0,62,16,0,

109,91,0,62,16,0,

108,91,0,62,17,0,

108,90,0,62,15,0,

108,90,0,62,16,0,

107,89,0,61,16,0,

107,89,0,61,15,0,

106,89,0,61,15,0,

105,89,0,61,15,0,

105,88,0,60,15,0,

103,88,0,71,15,0,

103,88,0,76,15,0,

103,88,0,76,15,0,

103,87,0,76,15,0,

103,86,0,75,15,0,

102,86,0,75,15,0,

101,86,0,75,15,0,

101,86,0,74,15,0,

101,85,0,73,15,0,

100,85,0,73,15,0,

99,85,0,73,15,0,

99,84,0,73,14,0,

99,83,0,72,15,0,

98,83,0,72,15,0,

98,83,0,71,14,0,

97,83,0,71,14,0,

97,83,0,71,14,0,

97,83,0,70,14,1,

96,82,0,71,14,0,

96,82,0,70,14,0,

96,82,0,70,14,0,

94,81,0,70,14,0,

94,81,0,69,14,0,

94,81,0,69,14,0,

94,80,0,69,27,0,

93,80,0,68,25,0,

93,79,0,68,25,0,

92,79,0,67,25,0,

92,79,0,67,25,0,

92,79,0,67,25,0,

91,79,0,67,25,0,

91,78,0,67,25,0,

91,78,0,66,25,0,

90,78,0,66,24,0,

89,77,0,66,24,0,

89,77,0,65,24,0,

89,77,0,65,24,0,

88,76,0,65,24,0,

88,76,0,65,24,0,

88,76,0,64,24,0,

88,76,0,63,24,0,

87,76,0,63,24,0,

87,76,0,63,24,0,

86,75,0,63,24,0,

86,75,0,63,23,0,

85,75,0,62,23,0,

85,74,0,63,22,0,

85,74,0,62,23,0,

84,73,0,62,23,0,

84,73,0,62,22,0,

84,73,0,62,22,0,

83,73,0,61,22,0,

83,73,0,61,22,0,

83,71,0,61,22,0,

91,71,0,60,22,0,

89,71,0,60,22,0,

89,71,1,60,21,0,

89,71,0,60,21,0,

89,71,0,59,21,0,

88,71,0,59,21,0,

88,71,0,59,21,0,

88,70,0,59,21,1,

87,70,0,58,20,0,

86,70,0,58,21,0,

86,70,0,60,21,0,

86,69,0,97,20,0,

85,69,0,96,20,0,

85,69,0,96,20,0,

84,68,0,95,19,0,

84,68,0,95,20,0,

83,68,0,94,19,0,

83,67,0,94,19,0,

83,67,0,93,19,0,

83,67,0,93,19,0,

82,67,0,92,19,0,

82,67,0,92,19,0,

81,66,0,91,19,0,

81,66,0,91,19,0,

81,66,0,90,19,0,

81,66,0,90,19,0,

80,65,0,90,19,0,

79,65,0,89,19,0,

79,65,0,89,19,0,

79,64,0,88,19,0,

79,64,0,88,18,0,

78,64,0,88,18,0,

78,63,0,88,18,0,

78,63,0,88,18,0,

77,63,0,87,18,0,

77,63,0,86,18,0,

77,63,0,86,18,0,

77,63,0,86,17,0,

76,62,0,85,18,0,

77,62,0,85,17,0,

77,62,0,85,17,0,

77,62,0,83,17,0,

76,62,0,83,17,0,

76,62,0,83,17,0,

75,61,0,83,17,0,

76,61,0,83,17,0,

75,60,0,82,17,0,

75,61,0,82,17,0,

75,60,0,82,16,0,

74,60,0,81,16,0,

73,60,0,81,16,0,

73,60,0,81,16,0,

73,59,0,80,16,0,

73,59,0,79,16,0,

71,59,0,79,16,0,

71,59,0,79,16,0,

71,59,0,79,15,0,

71,59,0,78,16,0,

71,58,0,78,15,0,

71,58,0,78,15,0,

70,57,0,77,15,0,

71,57,0,77,15,0,

70,57,0,77,15,0,

70,57,0,76,15,0,

69,57,0,76,15,0,

69,56,0,76,15,0,

69,56,0,76,15,0,

69,56,0,75,15,0,

68,56,0,75,15,0,

68,56,0,74,15,0,

67,56,0,74,14,0,

67,56,0,74,14,0,

67,56,0,73,14,0,

67,56,0,73,14,0,

67,55,0,73,14,0,

66,54,0,73,15,0,

66,55,0,71,14,0,

66,54,0,71,14,0,

66,54,0,71,14,0,

65,54,0,71,14,0,

65,53,0,71,14,0,

65,53,0,71,14,0,

65,53,0,71,14,0,

64,53,0,70,14,0,

64,53,0,70,13,0,

63,53,0,70,13,0,

63,52,0,69,13,0,

63,52,0,69,13,0,

63,52,0,69,13,0,

63,51,0,68,13,0,

63,51,0,68,13,0,

63,51,0,68,13,0,

62,51,0,67,13,0,

62,51,0,67,13,0,

62,51,0,67,13,0,

61,50,0,66,12,0,

61,50,0,66,13,0,

61,50,0,66,12,0,

61,50,0,66,12,1,

60,50,0,66,12,0,

60,49,0,65,12,0,

60,49,0,65,12,0,

60,49,0,64,12,0,

59,49,0,64,12,0,

60,48,0,64,12,0,

59,48,0,63,12,0,

59,48,0,63,12,0,

58,48,0,63,12,0,

59,48,0,63,12,0,

58,48,0,63,12,0,

58,48,0,62,11,0,

58,48,0,62,12,0,

58,47,0,62,11,0,

57,47,0,62,12,0,

57,47,0,61,12,0,

56,46,0,61,11,0,

57,47,0,61,11,0,

56,46,0,61,11,0,

56,46,0,60,11,0,

56,46,0,60,11,0,

56,46,0,60,11,0,

56,46,0,60,11,0,

56,46,0,60,11,0,

55,45,0,59,11,0,

55,45,0,59,11,0,

55,45,0,59,12,0,

55,44,0,59,11,0,

55,45,0,58,10,0,

54,44,0,58,11,0,

54,44,0,57,10,0,

54,44,0,57,10,0,

53,44,0,57,10,0,

53,44,0,57,10,0,

53,44,0,57,10,0,

53,44,0,57,10,0,

53,43,0,56,10,0,

52,43,0,56,11,0,

52,43,0,57,10,0,

52,42,0,56,10,0,

52,42,0,56,10,0,

51,42,0,55,10,0,

56,42,0,56,10,0,

60,42,0,55,9,0,

60,42,0,55,10,0,

59,42,0,55,9,0,

59,41,0,55,9,0,

59,41,0,54,9,0,

58,41,0,54,9,0,

58,41,0,54,9,0,

57,41,0,53,9,0,

57,41,0,53,9,0,

57,40,0,53,10,0,

57,39,0,53,9,0,

57,39,0,53,9,0,

57,39,0,53,9,0,

56,39,0,52,9,0,

56,39,0,52,9,0,

56,39,0,52,9,0,

56,39,0,52,9,0,

55,39,0,51,9,0,

55,39,0,51,9,0,

55,39,0,51,9,0,

55,39,0,51,9,0,

54,39,0,51,9,0,

54,39,0,51,8,0,

54,39,0,51,9,0,

53,38,0,50,8,0,

53,38,0,50,8,0,

53,38,0,50,9,0,

71,38,0,50,7,0,

71,38,0,49,8,0,

71,38,0,49,7,0,

71,37,0,49,7,0,

71,37,0,49,7,0,

71,37,0,49,7,0,

71,37,0,48,7,0,

70,37,0,49,7,0,

70,37,0,48,7,0,

70,37,0,48,7,0,

69,37,0,48,7,0,

69,36,0,48,7,0,

68,36,0,48,7,0,

67,35,0,48,7,0,

67,36,0,81,7,0,

