
62,22,1,117,54,0,

61,22,1,117,53,1,

61,21,0,116,53,1,

61,22,0,115,52,1,

60,21,1,115,52,1,

60,21,1,115,52,1,

60,21,1,115,52,1,

60,21,0,114,51,1,

59,21,0,113,51,1,

59,20,1,113,51,1,

59,20,1,113,51,1,

58,20,0,112,51,0,

58,20,1,112,50,1,

57,20,0,113,50,1,

57,20,0,113,50,1,

57,21,1,113,50,1,

57,20,1,112,49,1,

57,20,1,112,50,1,

56,19,0,111,49,1,

56,19,1,111,49,1,

56,20,1,110,49,1,

56,19,1,110,48,1,

56,19,1,109,49,1,

55,19,0,108,48,1,

55,19,1,109,48,1,

54,19,1,108,48,1,

55,19,1,108,47,0,

54,19,1,107,48,1,

54,19,1,106,47,0,

54,19,0,106,47,1,

53,19,1,105,47,0,

53,18,1,105,46,0,

53,19,1,105,47,0,

53,18,1,105,46,1,

52,18,0,103,46,1,

52,18,1,103,46,1,

51,18,1,103,45,1,

51,18,0,103,45,0,

51,18,0,103,45,1,

51,19,1,102,50,1,

51,19,1,102,50,1,

51,19,1,101,60,1,

50,18,1,101,60,1,

50,19,0,101,60,1,

50,19,1,100,60,1,

50,18,1,99,59,0,

49,18,1,99,59,1,

49,18,1,98,58,1,

49,18,1,98,58,1,

48,18,0,98,57,1,

48,17,1,98,57,1,

48,18,1,97,63,1,

49,19,1,97,74,1,

49,19,1,97,73,0,

49,19,1,96,73,0,

49,18,1,96,73,1,

48,19,1,96,71,1,

48,18,0,95,71,0,

48,18,1,95,71,1,

48,18,1,94,71,1,

47,18,1,94,71,1,

48,17,0,94,71,1,

48,17,0,94,71,1,

47,18,1,123,70,1,

53,17,1,222,70,1,

81,21,1,219,70,1,

80,23,1,217,69,1,

79,23,1,217,69,0,

79,23,1,216,68,1,

78,23,1,214,68,1,

78,23,1,213,67,1,

77,22,1,211,67,1,

77,22,0,211,67,1,

77,22,1,210,67,1,

76,22,0,209,67,1,

76,22,1,207,66,0,

76,22,1,207,66,0,

76,22,1,206,66,1,

75,22,0,205,65,1,

74,22,0,204,65,1,

74,22,1,203,64,0,

74,21,1,202,64,1,

73,21,0,201,63,1,

73,21,1,199,63,1,

71,21,1,199,63,1,

71,20,1,199,63,1,

71,20,1,197,62,0,

71,20,1,197,62,1,

71,20,1,195,62,1,

71,20,1,195,62,0,

70,20,1,194,62,1,

70,20,1,193,61,1,

70,19,1,192,61,1,

70,20,1,192,61,1,

69,19,1,191,60,1,

69,19,0,190,60,1,

68,19,1,189,59,1,

68,19,0,188,60,1,

68,19,1,187,59,1,

67,19,1,187,59,1,

67,19,0,185,59,1,

67,19,0,185,59,1,

67,19,0,184,58,0,

67,19,1,184,57,1,

66,19,1,183,57,1,

66,19,1,182,57,0,

65,18,1,181,57,1,

65,19,1,180,57,1,

65,18,1,179,56,1,

64,18,1,178,56,0,

64,18,1,177,56,0,

63,18,1,177,56,1,

63,18,1,176,56,1,

63,18,0,176,55,1,

63,18,1,175,55,0,

63,18,0,174,54,1,

62,18,0,173,54,1,

62,18,1,173,54,1,

62,17,1,172,54,1,

62,17,1,171,64,1,

61,17,0,171,64,1,

61,17,1,169,64,1,

61,17,1,169,63,1,

60,17,1,167,63,1,

60,17,1,167,63,1,

60,17,1,167,62,1,

60,17,1,166,62,1,

59,17,1,166,62,1,

59,17,1,165,61,0,

59,16,1,164,62,0,

59,16,1,163,61,1,

58,16,1,163,61,1,

58,16,1,163,61,1,

57,16,1,161,60,1,

57,15,1,160,60,1,

57,15,1,159,60,1,

57,16,1,159,59,1,

56,15,1,158,59,1,

59,19,1,158,59,1,

60,27,1,158,59,1,

59,26,1,156,58,1,

59,26,1,156,58,1,

58,26,1,155,58,1,

58,26,1,155,57,0,

58,25,0,154,57,1,

58,25,1,154,57,1,

57,25,1,153,57,1,

57,25,1,153,56,1,

57,25,0,152,56,1,

56,25,1,151,56,1,

56,25,1,151,55,1,

57,26,1,150,55,1,

57,27,1,149,117,1,

56,27,1,148,116,1,

57,27,1,147,115,1,

56,26,1,147,115,0,

56,26,1,146,114,1,

56,25,1,146,113,0,

55,26,1,145,112,1,

55,25,1,144,112,1,

54,25,1,143,111,1,

54,25,1,143,111,1,

54,25,1,187,110,0,

60,25,1,194,121,1,

60,25,1,192,163,1,

59,25,1,192,167,1,

59,24,1,190,165,1,

59,24,1,189,164,1,

59,24,0,188,163,1,

58,24,1,187,163,1,

57,24,1,187,162,1,

57,24,1,185,161,1,

57,24,1,184,159,1,

57,24,1,184,159,1,

56,24,1,183,158,0,

56,23,1,182,158,1,

56,23,1,181,157,1,

56,22,1,180,156,1,

56,23,1,179,155,1,

55,22,1,179,154,1,

55,23,1,178,153,1,

54,22,1,177,207,1,

54,23,1,176,295,1,

54,22,1,176,423,1,

54,22,1,174,531,1,

54,23,1,174,536,1,

67,68,1,173,529,1,

67,67,1,172,526,1,

67,67,1,171,521,1,

66,67,1,170,517,1,

66,66,1,169,513,1,

65,65,1,169,509,0,

65,65,1,167,506,1,

65,64,1,167,502,1,

63,64,1,166,499,1,

63,63,1,166,496,1,

63,63,1,166,493,0,

63,71,1,250,491,1,

98,102,1,288,487,1,

98,109,1,286,483,1,

96,108,1,284,480,1,

96,108,1,283,476,1,

95,107,1,281,473,1,

95,107,1,280,471,1,

94,106,1,278,467,1,

93,105,1,276,463,1,

93,103,1,275,461,1,

92,103,1,273,459,1,

92,103,1,271,455,1,

92,103,1,270,452,1,

91,102,1,268,450,1,

114,125,1,267,447,1,

112,124,1,265,444,1,

111,124,1,263,495,1,

111,123,1,263,637,1,

110,121,1,262,649,1,

109,121,1,260,642,1,

108,120,1,258,637,1,

108,120,1,257,632,1,

107,119,1,255,625,1,

106,118,1,254,619,1,

106,118,1,253,615,1,

105,117,1,252,609,1,

105,115,1,251,604,1,

103,115,1,249,600,1,

103,115,1,248,595,1,

103,114,1,246,590,1,

102,113,1,245,585,1,

102,113,2,243,580,1,

101,113,1,243,575,1,

102,112,1,241,572,1,

140,115,2,240,568,1,

140,118,1,239,563,1,

138,117,2,238,559,1,

138,116,1,237,555,1,

137,116,1,235,551,1,

135,115,1,234,547,1,

135,115,1,233,542,1,

134,114,1,231,539,1,

134,118,2,231,535,1,

133,118,1,229,531,1,

132,117,2,228,527,1,

131,117,2,227,524,1,

131,115,1,226,519,2,

130,115,1,225,516,1,

129,115,1,224,512,2,

129,114,1,223,509,1,

127,113,2,222,505,1,

127,112,1,220,502,1,

126,112,2,220,498,1,

126,112,2,218,495,2,

125,111,2,217,492,1,

124,110,1,216,489,2,

124,110,2,216,485,1,

123,109,2,215,483,1,

123,109,2,213,480,2,

122,108,1,211,476,2,

121,107,2,211,473,1,

121,107,2,210,470,2,

120,106,2,209,467,1,

120,105,1,207,463,2,

119,105,2,207,461,2,

118,103,2,206,458,2,

118,103,2,205,455,2,

117,103,2,204,453,2,

116,103,2,204,450,3,

115,102,2,202,447,2,

115,102,3,201,445,2,

114,102,2,199,442,2,

114,101,2,199,440,2,

113,100,3,198,591,3,

113,100,3,198,731,2,

112,99,3,197,888,3,

112,99,3,195,875,3,

111,98,3,195,867,2,

111,98,3,194,856,2,

110,97,3,193,847,3,

109,97,3,192,837,2,

109,96,3,192,830,3,

108,96,3,190,820,3,

108,95,3,190,811,3,

108,95,3,189,805,3,

107,94,3,188,796,3,

107,94,3,188,789,3,

106,93,3,187,781,3,

105,93,3,185,773,3,

104,93,3,185,766,3,

103,92,3,184,759,3,

103,92,3,184,752,3,

103,91,3,183,745,3,

103,91,3,182,737,3,

102,90,3,181,732,3,

102,90,3,180,725,3,

102,89,3,179,719,2,

100,89,3,178,713,3,

100,88,3,177,708,3,

100,88,3,177,701,3,

99,88,3,176,696,3,

99,87,3,176,689,3,

99,87,3,175,685,3,

98,86,3,174,679,3,

98,86,3,173,674,3,

97,85,3,172,668,3,

97,85,3,172,664,3,

96,84,3,172,659,3,

96,84,3,171,654,3,

96,84,3,170,649,2,

95,83,3,169,643,3,

108,83,3,167,639,3,

120,82,3,167,634,3,

120,82,3,167,630,3,

119,82,3,166,624,3,

118,81,3,165,620,3,

117,81,3,165,615,3,

117,81,3,164,611,3,

116,79,3,163,608,3,

115,79,3,163,602,3,

115,79,3,162,597,3,

114,79,3,164,594,3,

114,79,3,163,589,3,

113,79,3,162,586,3,

113,78,3,161,581,3,

112,78,3,161,577,3,

111,77,3,159,573,3,

111,76,3,159,569,3,

110,76,3,159,565,3,

110,76,3,158,561,3,

110,76,3,157,558,3,

109,75,3,157,554,3,

108,75,3,156,550,3,

108,75,3,155,547,3,

107,75,3,155,543,3,

107,74,3,153,540,3,

106,73,3,153,536,3,

105,73,4,153,531,3,

105,73,3,152,529,4,

105,71,3,151,525,3,

103,71,3,151,523,3,

103,71,3,150,519,3,

103,71,3,149,515,3,

102,71,3,149,512,3,

103,71,3,148,508,3,

102,71,3,147,505,3,

101,70,4,147,502,3,

101,70,4,146,499,3,

100,69,3,145,496,3,

99,69,3,145,493,4,

99,69,3,144,489,3,

99,68,3,143,487,3,

98,67,3,143,484,4,

98,67,3,143,481,3,

97,67,3,142,479,3,

97,67,3,142,476,3,

98,66,3,141,474,3,

98,66,3,140,470,3,

98,66,3,140,468,3,

97,65,3,139,481,3,

97,65,3,138,535,3,

96,65,3,140,531,3,

96,65,3,224,526,3,

95,65,3,225,523,3,

95,63,3,224,519,3,

94,63,3,222,515,3,

94,63,3,221,511,3,

94,63,3,220,508,3,

93,63,3,219,505,3,

92,62,3,218,500,3,

92,62,3,217,498,3,

92,62,3,216,494,3,

91,62,3,215,491,3,

91,61,3,214,487,3,

91,61,3,212,484,3,

90,61,3,211,481,3,

90,61,3,210,478,3,

89,60,3,209,476,3,

89,60,3,208,472,3,

89,59,3,207,470,2,

88,60,2,206,467,3,

88,59,3,205,463,3,

88,59,3,204,461,3,

88,59,3,204,459,2,

86,58,3,202,455,3,

87,58,3,201,454,3,

86,57,3,201,451,3,

85,57,2,199,448,3,

85,57,3,199,446,3,

84,57,3,198,444,3,

85,57,3,197,441,3,

83,56,2,196,439,3,

83,56,2,195,437,2,

83,56,3,194,434,3,

82,56,3,193,432,2,

82,56,3,192,429,3,

81,56,2,192,428,2,

81,55,3,191,425,3,

80,55,2,190,423,3,

80,54,2,189,420,3,

81,54,2,188,419,2,

79,54,3,187,415,2,

79,53,2,187,414,2,

80,54,2,185,412,3,

79,53,2,184,409,2,

79,53,2,184,408,2,

79,53,2,183,406,3,

79,52,2,182,403,2,

78,52,2,181,402,2,

78,52,2,180,399,2,

78,51,2,179,398,3,

78,51,2,179,396,2,

77,51,2,178,393,2,

76,84,3,177,391,3,

77,156,3,176,390,2,

108,155,2,175,387,2,

108,153,2,174,385,2,

107,153,2,174,384,2,

107,152,2,173,381,2,

106,151,2,172,378,2,

105,150,2,171,377,2,

105,148,2,170,375,2,

103,147,2,169,372,2,

103,147,2,169,371,2,

103,146,2,167,369,2,

103,145,2,167,367,3,

102,145,2,167,365,2,

101,143,2,166,363,2,

100,143,2,164,361,2,

100,142,2,164,359,2,

99,141,2,163,357,2,

99,141,2,162,355,2,

98,140,2,162,354,2,

98,140,2,161,352,2,

97,139,2,159,350,2,

97,137,2,159,348,2,

96,137,2,159,347,2,

96,137,2,158,345,2,

96,135,2,157,344,2,

95,135,2,157,343,2,

94,135,2,156,339,2,

94,134,2,155,339,2,

93,133,2,154,337,2,

93,132,2,153,335,2,

92,131,2,153,333,2,

92,131,2,152,332,2,

92,130,1,152,331,2,

91,129,2,151,329,2,

91,129,1,150,327,2,

90,128,2,150,326,2,

90,127,2,149,324,2,

89,127,1,149,323,1,

89,126,2,147,321,1,

88,125,2,147,346,1,

88,125,2,147,504,2,

88,125,2,145,546,1,

87,124,2,145,541,2,

87,123,2,143,536,2,

86,122,1,143,532,2,

152,122,2,143,527,2,

162,121,1,142,524,2,

159,121,1,142,519,1,

159,120,2,141,516,1,

158,120,2,141,590,2,

157,119,2,140,583,1,

156,119,1,139,579,2,

155,118,2,139,574,2,

154,117,2,138,569,1,

153,116,2,137,564,1,

152,115,2,137,561,2,

152,115,2,135,556,2,

151,114,1,135,551,2,

151,114,1,135,547,1,

149,113,2,134,542,1,

149,113,2,134,539,1,

147,112,1,133,536,1,

147,111,2,132,531,2,

147,111,1,131,526,2,

145,111,1,131,524,2,

190,110,1,131,519,1,

304,110,2,140,515,1,

326,109,1,145,511,1,

323,108,2,144,508,1,

321,108,1,143,504,1,

319,107,1,143,500,2,

316,106,2,142,497,2,

315,106,1,141,494,1,

312,105,1,141,491,1,

310,105,1,140,487,1,

308,103,1,139,483,2,

307,103,2,139,481,2,

305,103,1,161,477,1,

304,103,1,161,473,1,

301,103,1,159,471,1,

300,102,1,159,467,1,

297,102,1,157,465,2,

295,101,1,157,462,1,

294,100,1,156,459,1,

293,100,1,155,455,1,

291,99,1,154,453,1,

289,99,1,153,450,1,

287,98,1,153,448,1,

286,98,1,152,445,1,

285,98,1,152,442,1,

283,97,2,151,440,2,

281,96,1,149,436,1,

280,96,1,149,434,1,

279,95,1,148,432,1,

277,95,1,147,429,1,

275,94,1,147,426,1,

274,94,1,146,423,1,

273,93,1,145,422,1,

271,93,1,145,419,1,

270,93,1,143,417,1,

268,93,1,143,414,1,

268,92,1,142,412,2,

267,92,1,142,409,1,

265,91,1,141,408,1,

263,91,1,141,405,1,

262,90,1,140,402,1,

261,90,1,139,400,1,

259,89,1,138,398,1,

258,89,1,137,395,1,

257,89,1,137,393,1,

255,88,1,137,391,1,

254,88,1,135,390,1,

253,87,1,135,387,1,

252,87,1,135,385,1,

250,87,1,134,384,1,

249,86,1,133,381,1,

248,86,1,133,379,1,

247,85,1,132,376,1,

246,85,1,131,375,1,

244,85,1,131,372,1,

243,84,1,130,371,1,

242,84,1,130,369,1,

241,83,1,129,367,1,

240,83,2,129,365,1,

238,82,1,127,363,1,

237,82,1,127,359,1,

236,81,1,127,359,1,

235,82,1,127,357,1,

233,81,1,126,355,1,

233,80,1,125,353,1,

231,79,1,125,352,1,

231,79,1,124,350,1,

230,79,1,124,377,1,

228,80,1,125,375,1,

227,80,1,126,372,1,

226,79,1,126,370,1,

225,79,1,125,368,1,

224,79,1,125,365,1,

223,79,1,124,363,1,

222,78,1,124,359,1,

221,77,1,123,359,1,

220,77,1,122,356,1,

219,77,1,121,354,1,

217,76,1,121,352,1,

217,76,1,121,350,1,

216,76,1,120,348,1,

215,76,1,120,346,1,

213,76,1,120,344,1,

213,75,1,119,343,1,

211,75,1,118,341,1,

211,74,1,117,339,1,

210,74,1,117,337,1,

209,73,1,117,335,1,

207,73,1,116,334,1,

207,73,1,115,332,1,

206,73,1,115,331,1,

205,78,1,115,327,1,

204,77,1,115,327,1,

203,76,1,113,325,1,

202,76,1,113,323,1,

201,76,1,112,322,1,

199,75,1,112,321,1,

199,75,1,112,319,1,

198,75,1,112,318,1,

198,74,1,111,316,1,

197,74,1,111,315,1,

195,74,1,110,313,1,

195,73,1,110,312,1,

194,73,1,109,310,1,

193,71,1,109,309,1,

192,71,1,108,307,1,

192,71,1,108,305,2,

190,71,1,107,304,1,

190,71,1,107,303,1,

189,70,1,107,302,1,

188,70,1,106,300,1,

187,70,1,105,299,1,

186,69,1,105,297,1,

185,69,1,103,295,1,

184,69,1,103,295,1,

184,69,1,103,293,1,

183,68,1,103,292,1,

182,67,1,103,291,1,

181,67,1,102,289,1,

180,67,1,102,287,1,

179,67,1,102,287,1,

179,66,1,101,286,1,

178,66,1,100,284,1,

177,66,1,101,283,1,

176,66,1,99,281,1,

176,65,1,99,280,1,

175,65,1,99,280,1,

174,64,1,99,278,1,

174,64,1,98,277,1,

173,64,1,98,275,1,

172,63,1,98,274,1,

172,63,1,97,273,1,

170,63,0,97,272,1,

169,63,1,96,271,1,

169,62,1,96,270,1,

167,63,1,96,269,1,

167,62,1,102,268,1,

167,62,1,101,266,1,

166,62,1,100,265,1,

165,61,1,99,263,1,

165,61,0,99,263,1,

163,61,1,99,262,1,

163,60,1,98,261,1,

163,60,1,98,260,1,

162,60,1,97,259,1,

161,60,1,97,257,0,

160,61,1,97,255,1,

161,85,1,123,255,1,

159,89,1,189,254,1,

159,88,1,187,252,1,

158,88,1,185,252,1,

158,88,1,185,251,1,

157,87,1,184,250,1,

156,86,0,183,249,1,

156,85,1,181,248,1,

155,85,1,179,246,1,

154,84,1,179,245,1,

153,84,1,178,245,1,

153,83,1,178,243,1,

152,83,1,176,243,1,

152,83,1,175,241,1,

152,82,1,174,240,1,

150,82,1,174,239,1,

150,81,1,173,238,1,

149,81,1,172,237,1,

148,80,1,171,236,1,

147,79,1,170,235,1,

147,79,1,169,234,1,

147,79,1,167,233,1,

146,79,1,167,231,1,

145,78,1,167,231,1,

145,78,1,166,230,1,

144,78,1,165,229,1,

143,77,1,165,227,1,

143,77,1,163,227,1,

142,77,1,163,226,1,

142,76,1,162,225,1,

141,76,1,162,224,1,

140,75,1,161,223,1,

140,103,1,159,222,1,

139,116,1,159,221,1,

139,115,1,158,220,1,

138,115,1,157,219,1,

137,114,1,156,219,1,

137,113,1,156,217,1,

135,112,1,155,217,1,

135,112,1,154,216,1,

135,112,1,153,215,1,

135,111,1,153,214,1,

134,110,1,152,212,1,

133,109,1,151,211,1,

132,109,1,150,211,1,

132,108,1,149,210,1,

131,108,1,149,209,1,

130,107,1,148,207,1,

130,106,0,147,207,1,

129,106,1,146,206,1,

129,105,1,146,205,0,

129,103,1,145,204,1,

127,103,1,145,204,1,

127,103,1,143,203,1,

127,103,1,143,202,1,

126,103,1,142,201,1,

126,102,0,142,199,1,

125,101,1,141,199,0,

124,101,0,140,198,1,

124,100,1,140,198,1,

123,99,1,139,197,1,

123,99,1,138,195,1,

122,99,1,138,195,1,

121,99,1,137,195,1,

121,98,1,137,193,1,

120,97,1,135,193,0,

120,97,1,135,192,0,

120,96,1,135,191,1,

120,96,1,134,191,1,

119,95,1,133,190,1,

118,95,0,133,189,1,

117,94,1,132,188,1,

117,94,1,131,187,1,

117,93,1,131,187,1,

117,93,1,131,185,1,

115,92,1,130,185,0,

115,92,1,129,185,1,

115,92,1,174,184,1,

147,91,1,173,183,1,

145,90,1,172,182,1,

144,90,1,171,182,1,

143,89,1,170,180,1,

143,89,1,169,180,0,

142,89,1,167,179,1,

142,88,1,167,178,1,

141,88,1,166,178,1,

140,88,1,165,177,1,

139,87,1,165,177,1,

139,87,1,163,176,1,

137,86,1,163,175,1,

137,86,1,162,174,1,

137,85,1,161,174,1,

135,85,1,159,173,0,

135,84,1,159,172,1,

135,84,1,158,172,0,

134,83,1,158,171,1,

133,83,1,157,170,1,

132,83,1,156,169,1,

131,82,1,156,167,1,

131,82,1,155,167,1,

130,81,1,154,167,1,

130,81,1,153,167,1,

129,81,0,153,166,0,

128,80,1,152,166,1,

127,79,1,151,165,1,

127,79,1,151,163,1,

126,79,1,150,163,0,

126,79,1,149,163,1,

125,78,1,148,162,1,

124,78,0,147,161,1,

124,78,1,147,161,1,

123,78,1,146,159,1,

123,77,1,145,159,1,

122,77,1,145,159,1,

121,77,1,143,158,1,

121,76,1,143,158,1,

120,76,0,143,157,1,

120,76,1,142,156,1,

119,75,1,141,156,1,

119,75,1,140,155,0,

118,74,1,140,155,1,

118,74,1,139,154,0,

117,73,1,139,153,1,

116,73,1,138,153,0,

116,73,1,137,152,1,

115,72,1,135,152,1,

114,71,1,135,151,1,

114,71,0,135,151,1,

114,71,1,134,150,1,

113,71,1,134,149,1,

112,71,1,134,149,1,

112,70,1,132,148,0,

112,70,1,132,147,1,

112,69,1,131,147,0,

111,69,1,131,146,1,

110,69,1,130,146,1,

110,69,1,129,145,1,

109,68,1,129,144,1,

109,68,1,128,143,1,

109,67,1,127,143,0,

108,67,1,127,142,1,

108,67,0,126,142,1,

107,66,1,126,142,1,

107,66,1,126,141,0,

106,66,1,126,141,1,

106,66,1,124,140,1,

105,65,1,124,139,1,

105,65,1,123,139,0,

105,64,1,122,138,1,

103,64,1,122,137,1,

103,63,0,121,137,0,

103,63,1,121,137,1,

103,63,0,121,135,1,

102,63,1,120,135,1,

102,62,1,120,135,1,

102,62,1,119,135,1,

101,62,1,118,134,0,

101,61,1,118,133,1,

100,61,1,117,133,1,

99,61,0,116,133,1,

99,61,1,116,132,1,

99,61,0,115,131,1,

98,60,1,115,131,1,

98,60,1,115,130,1,

98,60,0,114,130,1,

97,59,0,114,130,1,

97,59,1,113,129,1,

96,59,1,113,128,0,

96,58,1,112,127,0,

96,59,1,112,127,1,

95,58,1,111,127,1,

95,57,1,111,127,0,

94,57,1,111,126,1,

94,57,0,110,126,1,

93,57,1,110,125,0,

93,57,1,109,124,1,

93,56,1,109,124,1,

93,56,1,108,124,1,

92,56,1,108,124,1,

92,56,1,107,123,1,

91,56,0,107,122,1,

91,55,1,106,122,1,

91,55,1,106,121,0,

90,54,1,105,121,1,

90,54,1,105,121,1,

89,54,0,105,120,1,

89,54,1,103,120,0,

89,54,0,103,120,1,

88,54,1,103,119,1,

88,53,1,103,119,1,

97,52,1,103,118,0,

96,53,1,102,118,1,

96,52,0,102,117,1,

95,52,1,101,117,1,

95,51,0,100,116,0,

94,51,1,100,116,1,

94,51,1,100,115,1,

93,51,0,99,115,1,

93,51,0,99,114,1,

92,51,1,99,114,0,

92,50,1,98,113,1,

91,50,1,98,113,1,

107,50,1,97,113,0,

106,49,1,97,112,1,

105,49,1,96,112,1,

105,49,1,96,111,1,

103,49,1,96,111,1,

103,49,1,96,111,1,

103,48,1,95,110,1,

103,48,0,95,110,1,

102,48,0,94,110,0,

101,48,0,94,109,0,

101,47,0,93,109,1,

101,47,1,93,108,1,

99,47,1,93,108,0,

99,47,1,92,108,1,

99,46,1,92,107,1,

99,47,0,91,107,0,

98,46,1,91,107,1,

98,46,1,91,106,1,

97,46,0,91,105,1,

97,46,0,89,105,1,

96,45,0,89,105,1,

96,45,1,90,104,1,

96,45,0,89,103,0,

95,45,1,89,103,1,

95,44,1,88,103,1,

94,44,0,88,103,1,

94,44,0,88,103,1,

93,44,1,88,102,1,

93,44,0,88,102,0,

93,43,0,87,102,1,

92,44,1,86,101,1,

92,43,1,87,101,0,

91,43,1,86,101,1,

91,43,0,85,100,1,

90,42,1,85,99,0,

89,43,1,85,99,1,

89,43,1,85,99,1,

89,43,1,84,99,1,

88,42,1,84,98,0,

88,42,0,83,98,1,

88,41,1,83,98,1,

88,41,1,83,97,0,

88,41,1,83,97,0,

87,41,1,83,97,1,

87,41,1,82,96,1,

87,39,0,82,96,1,

86,39,1,82,96,1,

86,39,1,81,96,1,

85,39,0,85,96,1,

85,39,1,173,95,1,

85,39,0,179,95,1,

84,39,1,178,94,0,

84,39,1,177,94,1,

83,39,1,176,94,0,

83,39,1,176,93,1,

83,39,1,174,93,1,

83,39,1,174,93,1,

82,38,1,172,92,0,

82,39,0,172,92,1,

81,39,1,171,92,1,

81,38,0,170,91,0,

81,37,1,169,91,1,

81,38,1,167,90,0,

80,37,1,167,91,1,

79,37,0,167,90,0,

79,37,0,166,89,1,

79,37,1,165,89,0,

79,37,1,165,89,0,

78,37,1,164,88,1,

79,37,1,163,88,1,

78,36,0,162,88,1,

77,35,0,161,88,1,

77,36,1,161,88,1,

77,35,1,160,87,1,

77,36,1,159,87,1,

77,35,1,159,87,0,

76,35,1,158,86,1,

76,35,1,158,86,1,

76,35,1,157,85,0,

75,35,1,156,85,1,

76,35,0,155,85,0,

75,34,1,155,84,1,

74,34,0,154,85,1,

74,34,1,153,84,1,

74,34,1,152,83,1,

73,34,1,152,83,1,

73,33,1,151,83,1,

73,33,1,151,83,0,

73,33,1,150,83,1,

71,33,1,150,82,1,

71,33,1,148,82,1,

71,33,1,148,82,1,

71,33,1,147,81,0,

71,33,1,147,81,0,

71,32,1,146,81,1,

71,31,1,145,81,1,

70,31,1,145,79,1,

70,31,1,145,79,1,

70,31,1,143,79,1,

70,31,1,143,79,1,

69,31,0,143,79,1,

69,31,1,142,78,1,

69,31,1,141,79,1,

68,31,1,141,78,1,

68,31,1,140,78,1,

68,30,1,139,78,1,

67,30,1,139,77,1,

67,30,1,138,77,1,

67,30,1,138,77,0,

67,30,1,137,77,0,

67,30,0,135,76,1,

66,30,1,135,76,0,

66,29,0,135,76,1,

134,51,1,135,75,1,

132,51,1,134,75,1,

131,50,0,134,75,1,

130,50,0,133,75,1,

130,50,1,133,74,1,

129,50,1,131,74,1,

128,49,1,131,74,1,

127,49,0,131,73,0,

127,49,0,130,73,0,

126,50,1,130,73,1,

126,50,1,128,73,1,

125,50,1,128,71,0,

124,49,1,127,71,1,

124,49,1,127,71,0,

123,48,1,127,71,1,

123,49,1,126,71,0,

121,48,1,125,71,1,

121,48,1,125,71,1,

121,48,1,124,71,1,

120,47,1,124,70,1,

120,47,1,123,70,1,

119,47,0,123,70,1,

118,47,1,122,69,1,

117,47,1,122,69,1,

117,46,1,121,69,1,

117,46,0,121,69,0,

116,46,1,120,68,1,

115,45,1,120,68,1,

115,45,1,119,67,1,

115,45,0,118,67,1,

114,45,1,118,67,0,

113,44,1,118,67,1,

112,44,1,117,66,0,

112,44,0,116,67,1,

112,47,1,115,66,1,

111,46,1,115,66,1,

110,46,1,115,66,1,

110,46,1,115,65,0,

110,46,1,114,65,0,

109,46,1,113,65,0,

109,45,1,113,65,1,

108,45,1,112,64,1,

108,45,1,112,64,1,

107,45,1,112,63,0,

106,45,1,111,63,1,

106,44,1,110,63,1,

105,44,1,110,63,1,

105,44,0,110,63,1,

104,44,1,109,63,1,

103,43,1,109,62,0,

103,43,1,108,62,1,

103,43,1,108,63,1,

103,43,1,107,61,1,

102,42,1,107,62,1,

101,42,1,107,61,1,

101,42,1,106,61,1,

101,42,1,105,61,0,

100,41,1,105,61,0,

99,41,1,104,60,1,

99,41,1,103,60,1,

99,41,1,103,60,1,

98,41,1,103,60,1,

98,39,1,103,60,1,

97,39,1,102,59,1,

97,39,1,102,60,1,

96,39,1,102,59,1,

96,39,1,101,59,1,

96,39,1,101,59,1,

95,39,1,100,58,0,

95,39,1,100,58,1,

94,39,0,100,57,1,

94,39,1,99,58,0,

94,38,1,99,57,1,

93,38,0,99,57,1,

93,38,1,98,57,1,

93,38,1,97,57,1,

92,38,1,97,57,1,

92,38,0,97,56,1,

92,37,1,97,56,0,

91,37,1,96,56,1,

90,37,1,96,56,0,

90,37,1,96,56,1,

128,37,1,96,56,1,

184,36,1,95,56,1,

183,37,1,94,55,0,

182,36,1,94,55,1,

180,36,1,94,55,1,

179,36,1,93,55,1,

179,36,1,93,54,1,

178,35,1,92,54,0,

177,35,0,92,54,0,

176,35,1,92,54,0,

175,35,1,91,53,1,

174,35,0,91,53,0,

173,35,1,91,53,0,

172,34,1,90,52,1,

172,35,1,90,53,1,

171,35,1,89,52,1,

170,34,1,89,52,1,

169,34,0,89,52,0,

167,34,1,88,52,1,

167,33,1,88,51,1,

167,33,0,88,51,1,

166,33,1,88,51,1,

166,33,1,88,51,1,

165,33,0,87,50,1,

164,32,1,87,51,1,

163,32,1,86,50,1,

162,33,1,86,50,1,

161,32,0,85,50,1,

161,32,1,85,50,1,

159,32,0,85,50,1,

159,31,1,84,49,0,

158,31,1,84,49,0,

158,31,1,83,49,1,

157,31,1,83,49,1,

156,31,1,83,49,1,

156,31,0,83,48,0,

155,31,1,82,48,1,

155,34,1,82,48,1,

153,45,1,81,48,1,

153,44,0,81,48,1,

152,44,1,81,48,1,

152,43,1,81,48,1,

151,43,1,79,48,1,

150,43,0,79,47,1,

149,43,0,79,47,1,

149,42,1,79,47,1,

148,42,1,79,47,1,

147,41,1,79,46,1,

147,42,1,78,46,1,

147,41,1,78,46,0,

146,41,0,78,46,0,

145,41,0,78,46,1,

145,41,1,78,46,1,

143,41,1,77,45,1,

143,39,1,76,45,1,

142,39,1,76,45,1,

142,39,1,76,45,1,

141,39,1,76,45,1,

141,39,1,75,44,1,

140,39,1,75,44,1,

140,39,0,75,44,1,

139,39,1,75,44,1,

192,39,1,74,44,1,

290,38,1,74,43,0,

286,38,1,74,44,1,

284,39,0,83,44,1,

283,38,1,101,43,1,

281,38,0,101,43,1,

280,37,1,99,43,1,

278,37,0,99,43,1,

277,36,1,99,42,1,

275,37,1,98,42,1,

273,37,1,98,43,0,

271,37,0,97,42,1,

271,36,1,97,41,1,

270,39,1,96,41,1,

271,49,1,96,41,1,

270,49,0,96,41,1,

268,48,0,95,41,1,

266,48,1,94,41,1,

265,48,1,94,41,1,

263,48,1,93,41,1,

263,47,1,93,41,0,

262,48,1,92,39,1,

260,47,1,92,39,0,

259,47,0,92,39,1,

258,46,0,91,39,1,

255,46,1,91,39,1,

255,56,1,90,39,0,

254,56,0,90,39,0,

252,55,0,89,39,0,

252,54,1,89,39,1,

251,54,1,88,39,1,

249,54,0,88,39,1,

248,53,1,88,39,0,

247,54,1,88,39,1,

246,53,1,87,38,1,

245,53,1,87,39,1,

243,52,1,86,38,0,

242,52,1,86,38,1,

241,51,1,86,38,1,

240,51,1,85,38,1,

239,51,1,86,38,1,

238,51,1,85,38,0,

237,51,1,84,37,1,

236,51,1,84,37,1,

235,50,1,83,37,1,

233,50,1,83,37,1,

233,49,1,83,37,1,

231,50,1,82,36,1,

231,49,1,82,37,1,

230,49,0,82,36,0,

229,48,0,81,36,1,

227,49,1,81,36,1,

226,48,1,81,36,1,

225,48,0,80,36,1,

225,48,0,79,36,0,

224,47,1,79,35,1,

223,47,0,79,35,1,

221,46,1,79,35,1,

221,47,0,78,35,1,

220,47,0,78,35,1,

219,46,0,78,35,0,

217,46,1,77,35,1,

217,46,1,77,35,1,

216,45,1,111,34,0,

215,45,1,112,35,1,

214,45,1,111,34,1,

213,45,1,110,34,1,

211,44,1,110,34,1,

211,44,1,109,33,1,

210,44,0,108,33,1,

209,44,1,108,33,1,

207,44,1,108,33,1,

207,43,1,107,33,1,

206,43,1,106,33,1,

205,43,1,105,33,1,

204,42,1,105,33,0,

203,42,0,105,33,1,

202,42,1,103,32,0,

201,42,1,103,31,0,

199,42,1,103,31,1,

199,41,1,103,31,0,

199,41,1,103,31,1,

197,41,1,101,31,0,

197,39,1,101,31,1,

195,41,1,100,31,1,

195,39,1,100,31,1,

195,39,0,100,31,0,

194,39,1,99,31,1,

192,39,1,99,31,1,

192,39,1,98,30,0,

191,39,1,98,30,1,

191,39,1,98,30,1,

189,39,1,97,30,1,

189,39,1,96,30,1,

188,38,1,96,30,1,

187,38,0,96,30,1,

186,38,1,95,30,1,

185,38,1,95,30,1,

185,38,1,94,29,1,

184,38,1,94,30,1,

184,37,1,94,29,0,

183,37,1,93,30,1,

182,37,0,93,29,0,

181,37,1,92,29,0,

180,37,1,92,29,1,

179,36,1,92,28,0,

179,35,1,91,28,1,

178,36,1,91,29,1,

177,35,1,90,29,1,

176,35,1,90,28,0,

176,35,1,89,28,1,

175,35,1,89,28,1,

174,35,1,89,28,1,

174,35,1,88,28,1,

173,35,1,88,28,1,

172,34,1,88,28,1,

172,35,1,88,28,1,

171,34,1,88,27,1,

170,34,1,86,27,1,

169,34,1,86,27,1,

169,33,1,86,27,1,

167,34,1,85,27,1,

167,33,1,85,27,1,

167,33,1,85,27,1,

166,32,0,84,27,1,

166,33,0,84,27,1,

165,32,1,83,26,0,

164,32,1,83,26,1,

163,32,1,83,26,1,

163,31,1,82,26,1,

162,31,1,82,26,1,

161,31,1,81,25,1,

161,31,1,81,25,0,

159,31,1,81,25,1,

159,31,1,80,25,1,

159,31,1,79,26,1,

158,31,0,79,25,1,

157,31,1,79,25,1,

156,30,1,79,25,1,

156,31,1,79,25,1,

156,30,1,78,25,1,

155,30,1,78,24,1,

154,30,1,78,24,0,

153,30,1,77,24,1,

153,30,1,77,25,1,

152,30,0,77,24,1,

152,30,1,76,24,1,

152,29,1,76,24,0,

151,36,0,76,24,0,

150,36,0,76,24,1,

149,35,1,75,24,1,

149,35,1,75,24,1,

148,35,0,74,24,1,

147,35,1,74,24,0,

147,34,1,74,23,1,

146,34,1,74,23,1,

146,34,1,73,23,1,

145,34,1,73,23,0,

144,34,0,73,23,1,

144,33,1,71,23,1,

143,34,0,71,22,1,

143,33,1,71,22,0,

142,33,1,71,23,1,

142,33,1,71,22,1,

141,32,0,71,22,1,

140,32,1,71,22,1,

140,32,1,71,22,1,

139,31,0,70,22,0,

139,32,1,70,22,1,

138,31,0,70,22,1,

138,31,1,70,21,0,

137,31,1,69,21,1,

135,31,0,69,22,1,

135,31,1,69,22,1,

135,31,1,69,21,0,

135,30,1,68,21,1,

134,30,1,67,21,1,

134,31,1,67,21,1,

133,30,1,67,21,0,

133,30,0,66,20,1,

132,30,0,66,21,1,

132,30,1,66,21,1,

131,30,1,66,20,1,

131,29,0,66,20,1,

130,30,0,66,20,1,

130,29,1,65,20,1,

129,29,1,65,20,1,

128,29,0,65,20,0,

128,29,0,64,21,1,

127,28,1,65,20,1,

127,28,0,64,20,1,

127,28,0,63,19,0,

126,28,0,63,19,1,

126,28,1,63,19,1,

125,28,0,63,19,1,

125,27,1,62,19,1,

124,28,0,62,19,1,

124,28,1,62,19,0,

123,27,1,62,19,0,

123,27,1,62,19,1,

122,27,1,61,19,0,

121,27,1,62,18,1,

121,26,1,61,19,1,

121,26,1,61,19,1,

121,27,1,60,19,1,

120,27,0,60,18,1,

120,26,0,60,19,1,

119,26,1,60,18,1,

118,26,0,60,18,1,

118,26,1,61,19,1,

118,25,1,75,18,1,

117,25,0,74,18,1,

116,25,0,73,18,1,

115,25,1,73,18,1,

115,25,1,73,18,1,

115,25,1,73,18,1,

115,25,1,71,17,0,

114,24,1,72,17,0,

114,25,1,71,17,1,

113,24,1,71,17,1,

113,24,1,71,17,1,

112,24,1,71,17,1,

112,24,1,71,17,0,

111,24,1,92,17,0,

112,24,1,152,17,1,

111,24,1,150,17,0,

110,24,1,149,17,1,

110,24,1,148,17,1,

109,24,1,147,16,0,

109,24,1,146,16,1,

108,23,1,146,16,1,

108,24,1,145,16,1,

108,23,1,143,16,1,

107,22,1,143,17,1,

107,23,0,143,16,0,

106,23,1,142,16,1,

105,23,1,141,16,1,

105,23,1,140,15,1,

105,22,0,140,16,1,

103,22,1,139,15,0,

103,22,0,139,16,1,

103,22,1,137,16,1,

103,22,1,137,15,1,

103,22,1,135,15,1,

102,21,1,135,15,1,

102,22,1,135,15,0,

102,21,1,135,15,1,

101,21,1,134,15,1,

100,21,1,133,15,1,

100,21,1,132,15,1,

99,21,1,132,15,1,

99,21,1,131,14,0,

99,20,0,131,15,0,

98,21,1,130,15,1,

98,21,1,130,14,1,

98,20,1,130,15,0,

97,20,1,129,15,1,

97,20,1,127,14,1,

97,20,1,127,14,1,

96,20,1,127,14,1,

96,20,1,126,15,1,

96,20,1,126,14,0,

95,20,0,126,14,1,

95,19,1,125,14,0,

94,19,1,124,14,1,

94,19,0,124,14,1,

94,19,1,123,14,0,

93,19,0,123,14,0,

93,19,0,122,14,1,

93,19,1,121,14,1,

92,19,1,121,13,0,

92,19,1,120,14,1,

92,19,1,120,13,1,

91,19,1,120,13,1,

91,19,1,120,13,1,

91,19,1,118,13,1,

90,19,0,118,13,1,

90,19,0,117,13,1,

89,19,1,117,12,1,

89,18,1,116,13,1,

89,18,1,115,13,1,

88,18,1,115,13,1,

88,32,1,115,12,1,

88,46,0,115,13,1,

88,46,1,114,13,1,

87,46,0,113,12,1,

86,45,1,113,12,1,

87,45,1,112,12,1,

86,45,1,112,13,1,

86,45,0,112,12,0,

85,44,0,111,12,0,

85,44,1,110,12,1,

84,44,1,110,12,0,

84,44,1,109,12,0,

83,44,1,109,12,0,

83,50,0,108,12,1,

83,52,1,108,12,1,

82,52,1,108,12,0,

82,51,1,107,12,1,

82,51,0,107,12,1,

82,51,1,106,12,0,

81,50,0,106,12,1,

81,50,1,105,11,0,

81,50,1,105,12,1,

80,49,0,103,11,1,

80,49,1,103,12,1,

79,49,0,103,11,1,

79,49,1,103,11,1,

79,49,1,103,11,1,

79,48,0,103,11,1,

79,48,1,103,11,1,

78,48,1,102,11,0,

78,47,1,102,11,1,

78,47,1,101,11,1,

77,47,1,101,11,1,

77,46,0,100,11,1,

76,46,1,99,11,1,

76,46,1,99,11,1,

76,46,1,99,10,1,

76,46,1,99,10,0,

76,45,1,98,10,0,

75,45,1,98,10,1,

75,45,0,98,11,1,

75,45,1,97,10,1,

74,45,1,97,10,1,

74,44,1,96,10,1,

74,44,1,96,10,0,

73,44,1,96,10,1,

73,44,1,95,10,1,

73,44,1,95,10,1,

73,44,0,95,10,0,

71,43,0,94,10,0,

72,43,0,94,10,1,

71,44,1,94,10,1,

71,44,1,93,10,1,

71,44,1,92,9,0,

71,44,1,92,9,1,

71,43,1,92,9,1,

70,43,1,92,9,0,

70,43,1,91,9,0,

70,42,1,91,9,1,

70,42,1,91,10,1,

70,42,1,90,10,0,

69,42,1,90,9,0,

69,41,1,89,9,1,

69,42,1,89,9,1,

69,43,1,89,9,0,

68,51,1,89,9,1,

68,51,1,88,9,1,

67,51,1,88,9,1,

67,50,1,88,9,1,

67,50,1,88,9,1,

67,50,1,87,9,1,

67,49,1,86,9,0,

67,49,0,86,9,1,

66,49,1,86,9,1,

66,49,1,86,9,1,

65,48,1,85,9,1,

66,48,1,85,8,1,

66,48,0,85,9,1,

65,48,1,84,9,1,

65,48,0,83,8,0,

65,48,0,83,9,1,

64,48,1,83,9,1,

64,47,0,83,7,0,

64,46,1,83,7,1,

63,47,1,82,7,1,

63,46,1,82,7,0,

63,46,0,82,7,0,

63,45,1,81,7,1,

63,46,1,81,7,1,

62,45,1,80,7,0,

62,45,1,81,7,1,

62,45,1,80,7,0,

62,46,0,79,7,0,

62,48,0,79,7,1,

61,48,0,79,7,0,

61,48,0,79,7,0,

61,47,0,79,7,1,

61,47,1,79,7,1,

60,47,1,78,7,1,

60,47,1,78,9,1,

60,46,1,78,7,1,

60,46,0,77,7,1,

60,46,1,77,7,0,

60,46,0,76,7,1,

59,46,1,76,7,1,

59,46,1,76,7,0,

59,45,1,76,7,0,

58,45,0,76,7,1,

59,45,1,76,7,1,

58,44,1,75,7,1,

58,44,0,74,7,1,

57,45,0,74,7,1,

57,44,0,74,7,1,

57,44,0,74,7,0,

57,43,1,73,7,1,

57,44,1,73,7,0,

57,43,0,73,7,0,

57,43,1,71,7,1,

56,42,0,72,7,1,

56,43,0,71,7,1,

56,42,1,71,7,1,

56,42,1,71,7,1,

56,42,1,71,7,1,

55,41,0,71,7,1,

56,41,0,71,6,1,

55,41,1,71,7,1,

55,41,1,71,7,1,

54,41,0,70,7,1,

55,41,1,70,7,1,

54,41,1,70,6,1,

54,41,1,70,6,0,

54,39,1,69,7,0,

54,39,1,68,6,0,

53,39,1,69,7,1,

53,39,0,71,7,1,

53,39,0,71,7,1,

53,39,1,71,6,1,

52,39,0,70,6,1,

52,39,1,70,6,1,

52,39,1,70,7,1,

52,39,1,69,6,1,

51,38,0,68,6,1,

51,38,1,68,6,0,

51,38,1,68,6,1,

51,37,0,68,6,1,

51,38,0,67,6,1,

51,38,1,67,6,1,

50,38,1,67,6,0,

50,37,0,67,6,0,

50,37,0,67,6,1,

50,37,1,67,6,1,

50,37,0,66,6,1,

50,37,0,66,6,1,

49,37,0,65,6,0,

49,36,1,66,6,0,

49,37,0,65,5,1,

49,36,1,65,6,0,

49,35,1,65,6,1,

48,35,1,64,5,1,

48,35,0,64,6,1,

48,35,1,63,6,1,

48,35,0,63,6,1,

48,35,1,63,5,0,

48,35,0,63,6,0,

47,34,1,63,6,1,

47,34,0,62,5,1,

48,34,1,62,6,1,

47,34,1,63,6,0,

46,34,0,62,5,1,

46,34,0,62,6,0,

46,34,1,62,5,1,

46,33,1,61,5,1,

46,33,1,62,5,0,

46,33,0,61,6,1,

46,33,1,61,6,1,

46,33,1,62,5,1,

45,33,0,61,5,1,

45,33,1,62,5,0,

45,32,1,62,5,1,

44,32,0,61,5,0,

45,31,1,61,5,1,

45,32,1,60,6,1,

44,31,1,61,5,0,

44,31,0,60,5,1,

44,31,1,60,5,1,

44,31,1,60,5,1,

44,31,1,59,4,1,

44,31,0,59,5,0,

43,31,0,59,5,0,

43,31,0,59,5,0,

43,30,0,60,5,1,

43,30,1,94,5,0,

43,30,1,93,4,1,

42,30,0,93,5,1,

43,30,0,92,5,1,

42,30,1,92,5,0,

42,30,0,91,4,1,

42,29,1,91,4,0,

42,30,1,91,5,0,

41,29,1,90,4,1,

41,29,1,89,4,1,

41,29,1,89,4,1,

41,29,1,88,4,1,

41,28,1,88,4,1,

41,29,0,88,4,0,

39,28,1,88,4,0,

41,28,0,87,5,1,

40,28,1,87,4,0,

39,28,0,87,4,1,

39,28,0,87,5,1,

39,28,0,85,5,1,

39,28,0,85,4,1,

39,28,1,85,4,0,

39,27,1,84,4,0,

39,27,0,84,4,0,

39,27,1,84,4,1,

39,27,1,83,6,1,

39,27,0,83,4,1,

39,27,1,83,4,0,

39,27,0,83,5,1,

39,27,0,82,4,1,

38,26,0,81,3,0,

38,26,0,82,4,1,

38,26,1,81,4,1,

38,26,0,81,4,0,

37,25,0,81,3,0,

38,25,1,80,4,1,

38,25,1,79,4,1,

37,25,1,79,3,0,

37,25,0,79,4,1,

37,25,0,79,3,0,

37,25,1,78,4,1,

36,25,0,78,3,0,

36,25,1,78,3,0,

36,25,0,78,3,1,

36,24,0,77,4,0,

36,24,0,77,3,1,

36,25,0,77,4,1,

36,24,0,76,3,0,

35,24,1,76,3,0,

35,24,0,76,4,0,

35,24,1,75,3,1,

35,24,0,75,3,0,

35,24,1,75,3,1,

35,24,1,75,3,1,

35,24,1,74,3,1,

35,24,1,73,3,1,

35,25,1,74,3,0,

34,25,1,73,3,1,

34,25,1,73,3,0,

35,24,1,73,3,1,

34,25,1,73,4,0,

34,25,1,71,4,0,

34,24,1,71,3,1,

34,25,0,71,3,1,

34,24,1,71,3,1,

33,24,1,71,4,1,

33,24,0,71,3,0,

33,24,0,70,3,1,

34,24,0,70,3,0,

33,24,1,70,3,1,

33,24,1,69,3,0,

33,24,0,69,3,1,

32,23,0,69,3,1,

31,23,1,69,3,0,

31,23,0,68,3,0,

32,23,1,68,3,1,

32,23,1,68,3,0,

31,23,0,67,3,1,

31,23,0,67,3,0,

31,22,1,67,3,1,

31,22,1,67,3,1,

31,23,1,66,3,0,

44,39,1,66,3,0,

45,45,1,66,3,0,

45,45,1,66,3,0,

44,45,0,65,3,1,

45,44,1,65,3,1,

44,44,1,65,3,1,

44,44,0,64,3,0,

44,44,1,65,78,1,

44,43,0,64,106,1,

44,43,1,63,109,1,

43,43,1,63,108,1,

43,43,1,63,107,0,

43,43,1,63,107,1,

43,42,0,63,106,0,

43,42,0,62,105,1,

42,41,1,62,103,0,

42,42,0,62,103,1,

41,41,1,62,103,0,

41,41,1,61,103,1,

41,41,1,61,102,1,

41,39,1,61,102,1,

41,40,0,60,101,1,

40,39,1,60,101,1,

39,39,1,60,100,1,

39,39,0,60,100,0,

39,39,1,59,99,0,

39,39,1,59,99,1,

39,39,1,59,99,1,

39,39,0,59,98,0,

39,39,1,59,98,0,

39,39,1,59,97,1,

39,38,0,58,97,1,

39,39,0,58,96,1,

39,38,0,57,96,0,

39,38,0,57,96,0,

38,37,1,57,95,1,

38,37,1,57,94,1,

38,38,1,57,94,0,

38,37,0,56,94,1,

38,37,0,57,93,1,

38,36,1,56,93,1,

38,36,0,56,93,1,

37,37,1,56,92,1,

37,36,0,56,92,0,

36,36,1,56,91,1,

36,35,1,56,91,1,

36,35,1,55,90,1,

36,36,1,55,90,0,

36,35,1,54,90,1,

35,35,1,54,89,1,

36,35,0,54,89,1,

35,35,1,54,89,1,

35,35,1,54,88,1,

35,35,0,53,88,1,

35,34,1,53,88,1,

35,34,0,53,88,1,

35,34,1,53,87,1,

34,34,0,52,86,1,

35,33,1,52,85,1,

34,33,1,53,85,1,

34,33,0,51,85,0,

34,33,1,52,85,1,

33,33,1,51,84,0,

34,32,1,51,83,1,

40,32,1,51,84,1,

39,32,1,51,83,1,

39,32,1,51,83,1,

39,31,0,51,83,0,

39,32,1,51,82,0,

39,31,1,50,82,1,

39,31,0,50,81,1,

39,31,1,50,81,0,

39,31,1,49,81,1,

38,31,0,49,81,1,

39,31,0,49,80,1,

38,31,1,49,79,1,

51,31,1,49,79,1,

86,32,0,49,79,1,

85,31,0,49,79,1,

85,31,1,48,79,1,

85,31,1,48,78,0,

83,31,1,48,78,1,

83,31,0,48,78,1,

83,31,1,48,77,1,

82,31,1,47,77,1,

82,31,1,47,76,0,

82,31,0,47,76,1,

81,30,0,47,76,1,

81,30,0,47,76,1,

80,30,0,46,75,1,

81,31,1,82,75,1,

80,30,1,171,75,1,

79,30,0,188,75,0,

79,29,1,187,74,1,

79,29,0,185,73,1,

79,30,1,184,73,1,

78,29,0,184,73,1,

78,29,1,183,73,1,

77,29,1,181,71,1,

77,29,0,180,71,1,

77,28,1,179,71,1,

76,28,1,179,71,1,

76,29,1,178,71,1,

76,30,1,177,71,1,

75,30,1,176,70,1,

75,29,0,176,70,1,

74,30,0,175,70,1,

73,30,0,174,69,1,

73,29,1,173,69,0,

73,29,1,172,69,1,

73,29,0,171,69,1,

71,29,1,170,68,0,

71,28,1,169,67,1,

71,29,1,169,67,1,

71,28,1,167,67,1,

71,28,1,167,67,1,

71,28,1,167,67,1,

71,28,1,166,66,1,

70,28,0,166,66,0,

70,27,1,165,66,1,

69,28,1,163,65,1,

69,27,0,163,65,1,

69,27,1,163,65,0,

68,27,0,162,65,1,

68,27,1,161,64,0,

68,27,0,159,63,1,

67,26,1,159,63,1,

67,26,1,159,63,0,

67,25,0,158,63,1,

67,26,1,157,63,1,

66,25,1,157,63,0,

66,25,1,156,62,1,

65,25,1,155,62,1,

65,25,1,155,62,1,

65,25,1,154,62,1,

64,25,1,153,61,1,

64,25,1,152,61,0,

63,24,0,152,61,1,

63,25,1,152,60,1,

63,25,1,151,60,1,

63,25,1,150,60,0,

63,24,0,149,60,1,

63,24,1,149,59,1,

62,24,1,148,59,1,

62,24,1,147,59,1,

61,24,1,147,58,1,

61,24,1,146,58,1,

61,24,1,145,58,1,

61,24,1,145,58,0,

61,24,0,144,57,1,

60,24,1,143,57,0,

60,23,1,143,57,1,

60,23,1,143,57,1,

60,23,1,142,57,1,

59,23,1,141,56,1,

59,22,1,141,56,0,

59,22,1,140,56,0,

58,22,1,140,56,1,

58,22,1,139,55,1,

57,22,0,138,55,1,

57,22,1,138,55,0,

57,22,0,137,54,1,

57,22,1,137,54,0,

56,22,0,135,54,1,

57,21,0,135,53,1,

57,21,0,135,53,0,

56,22,1,135,53,1,

56,22,1,134,53,1,

56,22,1,133,53,0,

55,21,1,133,52,1,

55,21,1,132,52,1,

54,21,1,131,52,0,

54,21,0,131,51,1,

54,21,1,131,52,1,

54,20,1,130,51,0,

