
230,4,0,48,46,1,

229,3,1,47,47,1,

227,3,1,47,46,1,

227,3,1,47,46,1,

226,4,1,47,45,0,

225,4,1,46,45,0,

224,3,1,46,45,1,

223,3,1,46,45,0,

221,3,1,46,45,0,

221,3,1,46,45,1,

231,4,1,45,44,1,

231,3,1,45,44,1,

230,3,1,45,44,1,

229,4,1,45,44,0,

228,3,1,44,43,1,

227,3,1,44,43,0,

226,3,0,44,43,0,

225,3,1,44,43,1,

224,3,1,44,42,1,

223,3,0,44,43,1,

221,3,1,44,42,0,

221,3,1,43,42,1,

220,3,1,44,41,1,

248,3,0,68,42,1,

246,3,1,75,42,1,

245,3,1,74,41,0,

243,3,1,73,41,1,

243,3,0,73,41,1,

241,3,1,71,41,1,

240,3,1,71,39,1,

239,3,1,71,41,1,

238,3,1,71,39,0,

237,3,0,71,39,1,

236,3,1,71,39,1,

234,3,1,71,39,1,

233,3,1,70,39,1,

237,3,1,70,39,1,

236,3,0,70,41,1,

235,3,1,69,41,0,

233,3,0,69,41,1,

231,3,1,69,41,0,

231,3,1,69,39,0,

231,3,1,68,39,1,

229,3,0,67,39,1,

228,3,0,68,39,0,

227,3,1,75,39,1,

226,3,1,74,39,1,

225,3,1,74,39,1,

224,3,1,73,39,0,

231,3,0,73,39,1,

229,3,1,73,39,1,

228,3,1,71,39,1,

227,3,1,71,38,1,

226,3,1,71,38,1,

225,3,0,71,38,1,

224,3,1,71,38,1,

223,2,1,71,37,1,

222,2,1,70,38,1,

220,3,0,70,37,1,

220,3,1,70,37,1,

219,2,1,70,37,1,

218,3,1,69,37,0,

259,3,1,69,39,1,

257,3,0,69,45,0,

255,2,1,68,45,1,

254,3,1,68,44,0,

253,3,1,68,44,1,

251,3,1,67,44,1,

250,3,1,67,44,1,

248,3,1,67,44,0,

248,3,1,66,43,1,

246,3,1,66,43,1,

245,3,1,66,43,1,

244,2,1,66,43,0,

243,3,1,65,42,0,

259,3,1,65,42,0,

258,2,1,65,42,1,

256,2,1,65,42,1,

255,2,1,64,42,1,

254,3,1,63,41,1,

253,3,0,63,41,1,

251,2,1,63,41,1,

251,3,1,63,41,1,

249,2,0,63,41,1,

248,3,1,62,39,1,

247,2,0,62,39,1,

246,2,1,62,39,1,

244,2,1,62,39,1,

252,2,1,62,39,1,

251,2,1,61,39,1,

249,3,1,61,39,1,

248,2,1,61,39,0,

247,2,1,60,39,0,

246,3,1,60,39,1,

245,3,0,60,39,1,

243,2,0,60,39,1,

242,2,1,59,38,0,

241,2,1,59,38,0,

240,2,1,59,38,1,

239,2,1,59,38,1,

238,2,1,58,38,1,

255,3,1,58,37,1,

253,3,1,58,38,1,

252,3,1,57,38,1,

251,3,1,57,37,1,

249,2,1,57,37,1,

249,2,1,57,37,1,

247,2,1,57,37,0,

246,2,0,56,36,0,

245,2,1,56,37,1,

243,2,1,56,36,1,

242,2,0,56,36,1,

241,3,1,55,35,0,

240,3,0,56,35,1,

283,4,1,55,35,1,

281,5,1,55,35,1,

280,5,1,54,35,1,

278,5,1,54,35,1,

276,5,1,54,35,1,

275,5,1,54,34,1,

273,5,1,54,34,1,

272,5,0,53,34,1,

271,5,0,53,34,1,

270,5,0,53,34,1,

268,5,1,53,34,1,

267,5,0,52,34,0,

266,5,1,52,33,1,

264,5,1,52,33,0,

263,5,1,51,33,1,

262,5,1,51,33,1,

261,5,1,51,33,0,

259,5,1,51,33,1,

259,4,1,51,33,1,

257,4,1,50,33,1,

255,4,1,50,32,0,

255,4,0,50,33,1,

254,5,1,50,32,0,

252,4,1,50,31,1,

251,4,1,49,31,1,

250,4,1,49,31,1,

249,4,1,49,31,1,

248,4,0,49,31,1,

247,4,1,48,31,1,

246,4,1,48,31,1,

244,4,1,48,31,1,

243,4,1,48,31,1,

242,4,0,47,31,1,

241,4,0,48,31,0,

240,4,1,48,31,1,

239,4,1,47,30,1,

238,4,1,47,30,0,

237,4,1,47,30,1,

236,4,0,47,30,1,

236,4,1,47,30,1,

235,3,1,46,29,1,

233,4,1,46,29,1,

231,4,1,46,30,1,

231,4,1,46,29,1,

230,4,1,45,29,1,

229,4,0,45,29,1,

228,3,1,45,28,1,

227,4,1,44,28,0,

226,3,1,44,28,0,

225,3,1,44,28,1,

224,4,1,44,28,1,

223,4,1,44,28,1,

235,3,1,53,30,1,

236,4,1,62,41,1,

235,3,1,62,43,1,

233,3,1,61,42,0,

232,3,1,61,42,0,

231,3,1,60,41,0,

230,3,1,60,41,1,

229,3,1,60,41,1,

228,3,1,60,41,1,

227,3,1,60,41,0,

226,3,1,59,39,1,

225,3,1,59,41,1,

224,3,0,59,39,0,

225,3,1,58,39,1,

233,3,0,58,39,1,

231,3,1,58,39,0,

231,3,1,57,39,1,

229,3,1,57,39,1,

228,3,1,57,39,1,

227,3,1,56,39,1,

226,3,0,57,39,1,

225,3,1,56,38,1,

224,3,0,56,38,1,

223,3,1,56,38,1,

222,3,1,56,38,1,

221,3,1,56,38,1,

227,3,0,55,38,1,

251,4,0,54,37,1,

249,4,1,55,47,1,

248,4,1,54,56,1,

246,4,1,54,55,1,

245,4,1,54,55,1,

244,4,1,53,55,1,

243,3,1,54,55,0,

241,4,0,53,54,1,

240,4,1,53,53,1,

239,4,1,52,53,0,

238,4,1,52,53,1,

237,3,0,52,53,1,

239,4,1,52,53,1,

249,5,1,51,52,0,

248,5,1,51,52,0,

247,5,1,51,51,1,

245,5,1,51,51,1,

243,5,1,51,51,1,

243,5,1,51,51,1,

242,4,1,50,51,0,

241,4,1,50,50,1,

239,5,1,50,50,1,

238,5,1,50,50,0,

237,5,1,49,50,1,

236,4,1,49,50,1,

235,5,0,49,49,0,

234,3,0,49,49,1,

233,5,1,48,49,0,

231,4,1,48,48,1,

231,4,1,48,48,1,

230,4,1,48,48,0,

229,4,1,47,48,1,

227,4,1,48,48,1,

227,4,0,47,47,0,

226,4,1,47,47,1,

225,4,1,47,47,1,

224,4,1,46,47,0,

223,4,1,46,47,1,

222,4,1,46,46,1,

223,3,1,46,61,0,

222,4,1,46,62,1,

221,4,1,45,62,1,

220,3,1,45,61,1,

219,3,0,45,61,0,

218,4,1,45,61,1,

217,4,1,45,61,1,

216,4,0,45,61,1,

216,4,1,44,60,1,

214,3,1,44,60,1,

213,3,1,44,60,1,

212,3,1,44,59,1,

211,4,1,69,60,1,

240,9,1,88,59,1,

239,11,1,87,58,1,

237,10,1,87,58,1,

236,11,1,86,57,1,

235,10,1,85,57,1,

233,10,0,85,57,1,

231,10,1,84,57,1,

231,10,0,83,57,0,

230,10,1,83,56,1,

229,10,1,83,56,1,

227,10,1,83,56,1,

227,10,1,82,56,1,

281,12,0,82,56,1,

281,15,1,81,56,1,

280,15,0,81,56,1,

278,15,1,81,55,1,

276,15,1,80,54,0,

275,15,1,79,55,1,

273,15,1,79,54,1,

271,15,1,79,54,1,

270,15,1,79,53,1,

269,15,1,79,53,0,

268,14,1,78,53,1,

267,14,0,78,53,1,

265,14,1,77,52,1,

263,14,1,77,55,1,

262,14,1,77,58,1,

261,14,1,76,57,1,

259,14,1,76,57,0,

259,14,1,76,57,0,

257,14,1,75,57,1,

255,13,1,75,56,1,

255,13,1,85,56,1,

253,14,1,85,56,1,

252,13,1,85,56,1,

251,13,1,84,55,1,

249,13,1,84,55,1,

265,13,1,83,55,1,

263,13,1,83,54,1,

262,13,1,83,54,1,

260,13,1,82,54,1,

259,13,1,82,53,1,

258,13,1,81,54,1,

256,12,1,81,53,1,

255,13,0,81,53,0,

253,12,1,80,52,1,

252,13,1,79,52,1,

251,12,1,79,52,0,

250,12,1,79,71,1,

249,12,1,97,122,1,

247,12,1,96,126,1,

246,12,1,96,125,1,

245,29,1,95,124,1,

243,28,1,95,124,1,

242,27,0,95,123,1,

241,28,1,94,122,2,

240,28,1,93,121,1,

239,27,1,93,120,0,

238,28,1,93,120,1,

237,28,1,92,119,0,

236,28,1,92,119,1,

234,28,1,91,118,1,

233,27,1,91,117,1,

231,27,1,90,117,1,

231,27,1,90,116,1,

229,27,1,89,115,1,

228,27,1,89,115,1,

227,26,1,89,115,0,

226,26,1,88,114,1,

225,25,1,88,113,1,

224,25,0,87,113,1,

223,25,1,87,112,1,

222,26,1,86,112,1,

220,27,1,86,111,1,

220,27,1,86,111,1,

219,27,0,85,110,1,

217,27,1,85,109,1,

217,26,1,84,109,1,

216,26,1,83,109,1,

215,26,1,83,108,1,

214,26,1,83,108,1,

212,26,1,83,107,1,

211,25,1,82,106,1,

211,25,1,82,106,1,

263,25,1,82,105,1,

312,25,1,81,105,1,

310,25,1,81,104,1,

308,25,1,80,103,1,

306,25,1,79,103,1,

304,24,1,79,103,1,

303,25,1,79,103,1,

301,24,1,79,102,1,

300,24,1,78,101,1,

297,24,1,78,101,1,

295,24,1,78,100,1,

295,24,1,77,99,1,

310,24,1,77,99,1,

307,24,1,77,99,1,

306,23,1,77,99,1,

304,23,1,76,98,1,

302,23,1,76,98,1,

301,23,1,76,97,1,

300,23,1,75,97,1,

298,22,1,75,96,1,

295,23,1,74,96,1,

295,23,1,74,96,1,

293,24,1,74,96,1,

291,24,1,158,95,1,

290,24,1,156,94,1,

289,24,1,154,94,1,

287,24,1,153,93,1,

285,23,1,153,93,1,

284,24,1,152,93,1,

283,23,1,151,92,1,

281,23,1,150,92,1,

280,23,1,149,91,0,

278,22,1,148,91,1,

277,22,1,147,90,1,

275,23,1,147,90,1,

274,22,1,146,90,1,

273,23,1,146,135,1,

291,22,1,145,150,1,

290,22,1,144,148,1,

287,22,1,143,147,1,

286,22,0,143,146,1,

284,21,1,142,145,1,

283,22,1,141,144,1,

281,21,1,141,143,1,

280,21,1,140,143,1,

278,23,1,139,142,1,

277,35,1,139,141,1,

275,35,1,138,141,1,

273,34,1,137,140,1,

272,34,1,136,140,1,

271,34,1,135,138,1,

269,33,1,135,138,1,

268,33,1,134,137,1,

267,33,1,134,135,1,

265,32,1,133,135,1,

263,33,2,132,135,1,

262,32,1,131,135,1,

261,32,1,131,134,1,

259,32,1,131,133,1,

258,31,1,130,132,1,

257,31,1,130,131,0,

255,31,1,129,131,1,

254,31,1,128,133,1,

253,31,1,127,221,1,

252,31,1,127,219,1,

250,31,1,126,217,1,

249,84,1,126,216,1,

248,83,1,125,214,1,

246,82,1,125,213,1,

245,82,1,124,211,1,

243,81,1,124,210,1,

243,81,1,123,209,1,

241,80,1,123,207,1,

240,79,1,121,207,1,

239,79,1,121,206,1,

238,79,1,121,205,1,

236,79,1,120,204,1,

236,78,1,120,203,1,

234,78,1,119,201,1,

233,77,1,118,199,1,

231,77,1,118,199,1,

358,76,1,117,199,1,

409,76,1,117,217,1,

406,76,1,116,231,2,

403,75,1,115,228,1,

400,75,1,115,227,1,

398,74,1,115,226,1,

395,74,1,114,224,1,

393,79,1,114,224,1,

390,79,1,113,222,1,

387,79,1,112,221,1,

385,78,1,112,220,1,

384,78,1,112,218,1,

381,78,1,111,217,2,

379,77,1,111,216,1,

376,77,1,110,246,1,

374,77,1,110,285,1,

371,78,2,109,282,1,

369,79,1,108,281,1,

367,79,1,108,279,1,

365,79,1,108,277,1,

363,79,1,107,275,1,

361,78,1,107,273,1,

359,78,1,107,272,1,

357,77,1,106,271,2,

355,77,2,105,269,2,

353,76,1,103,268,1,

351,76,1,103,266,1,

349,75,1,103,265,2,

347,75,2,103,263,1,

345,75,1,103,262,2,

344,74,2,102,260,2,

341,76,2,102,259,2,

339,75,1,101,258,2,

337,75,2,101,255,1,

335,74,2,100,255,2,

334,73,2,99,253,2,

332,73,2,99,252,1,

330,73,1,99,251,1,

327,73,2,99,250,2,

327,71,2,98,248,2,

325,71,1,98,247,2,

323,71,2,98,246,1,

322,71,2,97,245,2,

319,71,2,96,243,2,

319,70,2,96,243,2,

317,70,2,97,363,2,

322,71,2,199,463,2,

319,70,2,221,604,2,

318,69,2,219,595,2,

316,69,2,217,591,2,

315,68,2,216,585,2,

313,68,2,214,581,2,

311,68,2,214,575,2,

309,67,2,212,572,2,

307,67,2,211,568,2,

306,67,2,210,562,2,

305,67,2,208,559,2,

303,66,2,207,554,3,

301,66,2,206,551,2,

300,65,3,206,546,3,

299,65,2,205,542,2,

297,65,2,204,539,3,

295,65,3,203,534,2,

294,64,2,201,531,2,

292,63,2,199,527,2,

291,63,3,199,523,2,

289,63,3,198,519,2,

287,63,2,197,516,2,

287,62,3,196,513,3,

285,62,2,195,509,2,

284,62,2,194,506,3,

282,61,2,193,502,2,

281,61,2,193,498,3,

280,61,3,192,496,2,

278,60,3,191,492,2,

277,60,2,190,489,3,

275,60,3,189,486,3,

274,60,3,188,483,2,

272,59,2,187,480,2,

271,59,3,186,476,2,

270,59,3,185,474,2,

269,59,2,186,471,2,

267,58,2,188,467,2,

265,57,3,187,465,3,

265,57,2,186,462,2,

263,57,3,185,460,2,

262,57,2,184,455,2,

261,56,2,184,454,3,

259,56,2,182,451,2,

259,56,3,182,448,3,

294,56,3,180,446,2,

316,55,2,179,443,3,

313,56,2,179,441,3,

312,55,3,178,438,2,

310,54,2,177,435,3,

307,54,2,176,432,2,

305,54,3,176,430,2,

304,53,2,175,428,2,

302,53,2,174,425,2,

300,53,2,173,422,2,

299,53,2,172,420,2,

297,53,2,171,418,3,

295,53,2,171,415,2,

294,52,2,170,413,3,

292,52,2,169,411,2,

291,51,3,167,409,2,

289,51,2,167,406,2,

287,51,2,167,404,2,

286,51,2,167,402,3,

285,51,3,166,399,2,

283,53,2,165,398,2,

281,53,3,164,395,3,

280,52,2,163,393,2,

287,52,2,162,391,3,

286,51,3,162,390,2,

284,52,3,161,387,2,

283,51,3,160,385,3,

281,51,3,159,383,2,

280,51,3,159,380,2,

278,50,3,158,379,3,

277,50,3,157,376,3,

275,51,3,156,375,3,

274,50,2,156,372,3,

273,50,3,156,371,3,

340,50,3,155,368,3,

337,49,3,154,366,3,

335,49,3,153,365,3,

333,49,3,153,363,3,

331,49,3,152,360,3,

329,48,3,151,359,3,

327,48,3,150,357,3,

325,48,3,150,355,3,

323,48,3,149,353,3,

321,47,3,149,352,3,

319,47,3,147,350,3,

317,47,3,147,348,3,

316,47,3,146,346,3,

314,46,3,146,344,3,

312,46,3,145,343,3,

310,46,3,145,341,2,

308,46,3,143,339,3,

307,45,2,143,337,3,

305,45,3,143,335,3,

304,45,3,142,33,3,

302,46,3,142,332,3,

300,47,3,141,331,3,

315,47,3,140,329,3,

316,47,3,140,327,3,

313,46,3,139,326,3,

312,46,3,139,324,2,

310,46,3,153,323,3,

308,46,3,275,321,3,

306,45,3,339,319,2,

304,45,2,335,318,2,

303,45,3,333,316,2,

301,44,3,331,315,3,

299,44,3,327,313,2,

297,44,3,327,312,2,

295,44,2,325,311,3,

295,44,2,323,309,3,

293,43,2,321,307,3,

291,43,3,319,306,3,

290,43,2,317,304,2,

287,43,3,315,303,3,

287,43,3,313,302,3,

285,42,3,312,300,3,

284,42,2,311,298,2,

282,41,2,308,297,3,

280,42,2,307,295,2,

280,41,2,305,295,3,

278,43,2,304,293,2,

276,42,2,302,291,2,

275,42,3,300,290,2,

273,42,2,299,289,3,

271,41,2,297,287,2,

271,41,2,295,286,2,

270,41,2,295,285,2,

268,41,2,292,284,2,

267,41,2,291,282,2,

265,41,2,290,281,2,

292,39,2,287,280,3,

291,39,2,287,279,2,

288,39,2,285,277,2,

287,39,2,284,275,2,

285,39,2,282,275,2,

284,39,2,281,273,2,

282,39,2,280,271,2,

280,39,2,278,271,2,

279,39,2,277,270,2,

277,38,2,275,268,2,

275,38,2,274,267,2,

348,38,2,273,266,2,

371,46,2,271,265,2,

368,46,2,270,263,2,

365,46,2,269,263,2,

363,45,2,268,261,2,

359,45,2,266,260,2,

358,45,2,265,259,2,

355,45,2,263,258,2,

353,44,2,262,257,2,

352,44,2,261,255,2,

350,44,2,259,254,2,

348,44,2,258,253,2,

345,44,2,258,252,2,

344,54,2,255,251,2,

342,54,2,255,250,2,

339,53,2,254,249,2,

337,53,2,252,248,2,

335,52,2,251,246,2,

334,52,2,250,246,2,

332,52,2,249,244,1,

330,51,2,248,243,2,

327,51,1,247,243,2,

327,51,2,346,241,2,

324,51,2,346,241,2,

323,76,2,434,239,2,

321,75,2,472,238,2,

319,74,2,467,237,1,

317,74,2,463,236,2,

316,73,2,460,235,2,

313,73,2,457,234,2,

312,71,2,454,233,2,

311,71,2,451,231,2,

309,71,2,448,231,2,

307,71,2,445,230,2,

306,71,2,443,229,2,

304,70,2,440,228,2,

303,70,2,524,227,2,

301,70,2,633,226,2,

299,69,2,628,225,2,

297,69,2,621,224,2,

295,68,2,615,223,2,

295,68,2,611,222,2,

293,67,2,605,221,2,

291,67,2,601,220,2,

290,67,2,596,220,2,

288,66,2,591,219,2,

287,66,2,588,217,2,

286,66,2,583,217,2,

284,66,2,579,216,2,

283,65,2,574,215,2,

281,65,2,569,214,2,

280,64,2,567,213,2,

278,63,2,562,212,2,

277,64,2,559,211,2,

275,63,2,554,210,3,

274,63,2,551,209,2,

303,63,2,547,207,2,

309,63,2,543,207,2,

307,63,2,540,207,2,

305,62,2,536,206,2,

304,62,2,533,205,2,

302,61,2,528,204,2,

300,61,2,524,204,2,

298,61,2,521,202,2,

297,60,2,518,201,2,

295,60,2,515,199,2,

293,66,2,511,199,2,

331,109,3,508,199,2,

329,109,2,504,198,2,

327,108,2,501,197,2,

325,107,2,497,196,2,

323,107,2,494,195,2,

321,105,2,492,195,2,

319,105,2,487,194,2,

317,104,2,485,193,2,

315,103,2,481,192,2,

313,103,2,479,192,2,

312,103,2,476,190,2,

332,102,2,473,190,2,

330,135,2,469,189,2,

327,133,2,466,188,2,

326,131,2,463,187,2,

323,131,2,461,187,2,

321,130,2,458,185,2,

319,129,2,455,185,3,

318,128,2,453,184,2,

316,127,2,450,184,2,

314,127,2,475,183,2,

312,126,2,499,181,2,

311,126,2,496,267,2,

309,125,2,492,263,2,

307,125,2,487,263,2,

305,124,2,484,261,2,

303,123,2,481,259,2,

302,122,2,478,257,2,

300,121,2,474,255,2,

298,121,2,471,255,2,

295,120,2,468,253,2,

295,120,2,465,252,2,

293,120,2,462,250,2,

313,118,2,458,248,2,

311,118,2,455,248,2,

309,117,2,452,246,2,

307,117,2,449,245,2,

305,116,2,447,243,2,

303,115,2,444,242,2,

301,114,2,441,240,2,

300,114,2,439,239,2,

298,114,2,435,238,2,

295,113,2,455,237,2,

295,113,2,503,235,2,

295,113,2,499,234,2,

293,112,2,495,233,2,

291,112,2,490,231,2,

289,111,2,487,231,2,

287,110,2,483,229,2,

286,110,2,480,228,2,

284,109,2,477,227,2,

283,109,2,474,225,2,

281,108,2,471,224,2,

280,108,2,467,223,2,

278,107,2,463,222,2,

277,107,2,462,221,2,

275,106,2,458,220,2,

273,105,2,455,219,2,

271,105,2,451,217,2,

271,103,2,449,216,2,

269,103,2,446,215,2,

268,103,2,444,214,2,

267,103,2,440,213,2,

265,102,2,439,274,2,

263,102,2,435,332,2,

262,101,1,433,329,2,

261,101,2,430,327,2,

259,100,2,427,324,2,

259,99,2,425,322,2,

257,99,2,423,319,2,

255,99,2,420,318,2,

254,98,2,418,317,2,

253,98,2,415,315,2,

252,97,2,413,313,2,

251,96,2,411,312,2,

249,96,2,409,310,2,

248,139,2,407,307,2,

247,137,2,404,305,2,

246,135,2,403,304,2,

244,135,2,399,302,2,

243,135,2,398,301,2,

242,134,2,395,299,2,

241,133,2,393,297,2,

239,132,2,391,295,2,

238,131,1,389,294,2,

237,131,2,387,292,2,

252,169,1,384,290,2,

259,167,2,383,288,2,

258,167,2,380,287,2,

255,166,2,378,285,2,

255,164,2,376,284,2,

253,163,2,375,282,2,

252,163,2,371,280,2,

250,162,1,370,280,2,

249,161,2,368,278,2,

247,159,1,367,276,2,

246,159,2,364,274,2,

245,158,2,362,273,2,

243,157,2,359,271,2,

242,156,2,359,270,2,

240,155,2,357,268,2,

239,154,2,355,267,2,

238,153,2,353,266,2,

236,153,2,352,263,1,

236,152,1,349,263,2,

234,152,1,347,262,2,

231,151,1,345,260,2,

231,150,2,344,259,1,

231,149,1,342,257,2,

229,148,2,340,255,1,

228,147,2,339,255,1,

227,146,2,337,254,2,

226,145,2,335,252,1,

225,145,1,334,251,1,

224,143,2,332,249,1,

223,143,1,329,248,2,

222,143,2,327,247,2,

220,142,2,327,245,2,

219,142,2,325,244,2,

218,141,1,323,243,1,

217,140,2,322,242,1,

217,139,1,319,241,2,

216,138,1,319,239,1,

214,137,2,317,238,2,

213,137,1,316,237,1,

212,135,1,315,236,2,

211,135,1,313,235,1,

210,135,1,311,233,1,

209,135,2,310,231,1,

217,133,2,308,231,1,

216,133,1,307,230,1,

214,132,1,305,229,1,

213,131,1,304,228,1,

211,131,1,302,227,1,

211,130,1,301,226,2,

209,129,2,299,224,1,

209,129,2,298,224,2,

207,128,1,297,222,1,

207,127,1,295,221,1,

206,127,1,294,220,1,

204,126,1,292,219,2,

203,125,2,291,218,1,

202,125,1,290,216,1,

201,124,1,287,216,1,

201,124,2,286,215,1,

199,123,1,286,214,1,

199,123,2,284,212,1,

197,122,1,283,211,1,

197,121,1,282,211,1,

195,121,1,280,209,1,

195,120,1,279,208,1,

228,120,1,278,207,1,

227,119,1,276,207,1,

225,118,1,275,205,1,

224,118,1,274,204,1,

222,117,1,272,204,1,

221,117,2,271,203,1,

220,115,1,270,201,1,

218,115,1,269,200,1,

217,115,1,268,199,1,

216,114,1,267,199,1,

216,113,1,265,198,1,

214,113,1,263,197,1,

213,112,1,263,196,1,

211,112,1,261,195,1,

210,112,1,260,194,2,

209,111,1,259,193,1,

207,110,1,258,192,1,

207,110,1,257,192,1,

206,109,1,255,190,1,

205,109,1,254,190,1,

203,108,1,253,189,1,

203,108,1,252,188,1,

201,107,1,251,187,1,

199,107,1,250,186,1,

199,106,1,248,185,1,

198,105,1,248,184,1,

197,105,1,247,184,1,

196,104,1,246,183,1,

195,103,1,244,182,1,

194,103,1,243,181,1,

193,103,1,242,180,1,

192,103,1,241,179,1,

204,102,1,240,179,1,

203,102,1,239,178,1,

201,101,1,238,177,1,

199,100,1,237,176,1,

199,100,1,236,176,1,

198,99,1,235,175,1,

197,99,1,234,174,1,

195,98,1,233,174,1,

195,98,1,231,173,1,

194,97,1,231,172,1,

193,97,1,230,172,1,

195,97,1,229,170,1,

194,96,1,227,170,1,

193,96,1,227,169,1,

192,96,2,226,167,2,

191,95,1,225,167,1,

190,94,1,224,167,1,

189,94,1,224,166,1,

188,93,1,222,166,1,

187,93,1,222,165,1,

186,93,1,220,164,1,

185,92,1,220,163,2,

243,92,1,219,163,1,

242,92,1,218,162,1,

241,91,1,217,162,1,

239,90,1,216,161,1,

238,90,1,216,159,1,

236,89,1,214,159,1,

235,89,2,214,159,1,

233,89,1,213,159,1,

231,88,1,211,158,1,

231,88,1,211,157,1,

230,88,1,210,157,1,

228,88,1,209,156,1,

227,87,1,208,155,1,

226,86,1,207,155,1,

224,86,1,206,154,1,

224,86,1,206,153,1,

222,85,1,205,153,1,

221,85,1,204,152,1,

220,85,1,203,152,1,

219,83,1,203,151,1,

218,83,1,201,150,1,

216,83,1,201,150,1,

220,83,1,199,149,1,

219,82,1,199,149,1,

218,82,1,199,148,1,

217,81,1,198,147,1,

216,81,1,197,146,1,

214,81,1,195,146,1,

213,81,1,195,145,1,

211,80,1,194,145,1,

211,79,1,193,144,1,

210,79,1,193,143,1,

208,79,1,192,143,1,

209,78,1,191,142,1,

219,78,1,190,142,1,

217,78,1,190,141,1,

216,78,1,189,141,1,

215,77,1,188,140,1,

214,77,1,188,140,1,

213,77,1,187,139,1,

211,76,1,186,139,1,

210,76,1,185,138,1,

209,75,1,184,137,1,

207,75,1,184,137,1,

207,75,1,183,135,1,

209,74,1,183,135,1,

207,74,1,182,135,1,

206,74,1,180,135,1,

206,73,1,180,135,2,

205,73,1,179,134,1,

204,72,1,178,133,1,

202,72,1,178,133,1,

201,71,1,177,132,1,

199,71,1,176,131,1,

199,71,1,176,131,1,

198,71,1,175,131,1,

254,71,1,175,130,1,

252,70,1,174,129,1,

250,70,1,173,129,1,

249,70,1,173,128,1,

248,70,1,172,127,1,

246,69,1,171,127,1,

244,69,1,170,127,1,

243,68,1,169,126,1,

242,68,1,169,126,1,

241,67,1,167,126,1,

239,67,1,167,125,1,

243,67,1,167,124,1,

242,67,1,167,124,1,

240,67,1,166,124,1,

240,66,1,165,123,0,

238,66,1,164,122,1,

236,66,1,164,122,0,

235,65,1,163,121,1,

234,65,1,163,121,1,

233,65,1,162,120,1,

231,64,1,161,120,1,

230,64,1,161,120,1,

230,63,1,159,120,1,

228,63,1,159,119,1,

227,63,1,159,118,1,

226,62,1,158,118,1,

225,63,1,158,117,1,

223,62,1,157,117,1,

222,62,1,156,116,1,

221,62,1,156,115,1,

220,61,1,155,115,1,

219,61,1,155,115,1,

217,61,1,153,114,0,

221,61,1,153,114,0,

220,60,1,152,113,1,

219,60,1,152,113,1,

217,60,1,152,113,1,

216,60,1,151,112,1,

215,59,0,150,112,1,

214,59,1,150,111,1,

213,59,1,149,111,1,

212,58,1,148,110,1,

211,58,1,148,110,0,

210,57,0,147,110,1,

210,57,1,147,109,1,

224,57,1,146,108,1,

223,57,1,146,108,1,

222,57,0,145,108,1,

220,57,1,144,108,1,

219,56,1,143,107,1,

218,56,1,143,106,1,

217,56,1,143,106,1,

216,56,1,142,106,0,

215,56,0,142,105,1,

213,55,1,141,105,1,

212,55,1,141,103,1,

214,54,1,140,103,1,

213,55,1,140,103,1,

211,54,1,139,103,1,

211,54,1,139,103,1,

209,53,1,138,102,0,

209,53,1,137,102,1,

207,53,0,137,101,1,

206,52,1,135,101,1,

205,52,1,135,100,1,

204,52,1,135,100,1,

203,51,1,135,100,1,

246,52,0,134,99,1,

244,51,1,134,99,1,

243,51,1,133,99,1,

241,51,1,133,98,1,

240,51,1,132,98,1,

239,50,1,132,97,1,

237,50,1,131,97,1,

236,50,1,131,97,0,

235,50,1,130,96,1,

233,50,1,130,96,1,

231,49,1,129,96,1,

231,49,1,129,96,1,

235,49,1,128,95,1,

233,48,1,128,95,1,

231,48,0,127,94,1,

231,48,1,127,94,1,

230,48,0,127,94,1,

229,48,1,126,93,1,

227,48,1,126,93,1,

227,47,1,125,92,1,

225,47,1,125,92,1,

224,47,1,124,92,1,

223,47,1,124,91,1,

227,47,1,123,91,1,

236,48,1,123,91,1,

235,47,1,123,91,1,

233,47,1,122,89,0,

231,46,1,121,89,1,

231,46,1,121,89,0,

230,46,1,121,89,1,

228,46,1,120,89,1,

227,46,1,120,88,1,

226,46,1,120,88,1,

225,45,1,119,88,1,

224,45,1,119,88,1,

252,45,0,118,87,1,

251,45,0,118,87,1,

249,45,1,117,87,1,

248,45,1,117,86,1,

246,44,1,117,86,1,

245,44,1,116,86,1,

243,44,1,115,85,1,

242,44,1,115,85,1,

241,44,1,115,84,1,

240,44,1,114,84,1,

239,43,1,114,83,1,

237,43,1,113,84,1,

236,43,1,113,83,1,

235,42,1,113,83,1,

233,42,1,112,82,1,

231,42,1,112,82,1,

231,42,1,111,82,1,

230,42,1,111,82,1,

229,42,1,111,81,1,

227,41,0,110,81,1,

226,41,1,110,80,1,

225,41,1,109,80,1,

224,41,1,109,80,1,

223,39,1,108,79,1,

246,40,1,109,79,1,

243,39,0,108,79,1,

243,39,1,108,79,1,

241,39,1,108,78,1,

240,39,1,107,78,1,

239,39,1,106,78,1,

238,39,0,106,78,1,

236,39,1,105,78,1,

235,39,1,105,77,1,

234,39,1,104,77,1,

231,39,1,104,76,1,

237,39,1,103,76,1,

268,38,1,103,76,0,

266,38,1,103,76,1,

264,38,1,103,76,1,

263,38,1,102,75,1,

262,38,1,102,75,1,

260,37,1,102,75,1,

259,37,1,102,74,1,

257,37,1,101,74,1,

255,37,1,101,73,1,

255,36,1,100,73,1,

253,37,1,100,73,1,

252,36,1,99,73,1,

251,36,0,99,71,1,

249,35,1,99,72,0,

248,36,1,98,71,1,

247,35,1,98,71,1,

246,35,1,98,71,1,

244,35,1,97,71,1,

243,35,1,97,71,1,

242,35,1,97,71,1,

241,35,1,96,71,1,

240,34,1,96,70,1,

239,35,1,96,70,1,

238,34,1,96,70,1,

240,35,1,95,70,1,

239,34,1,95,70,1,

238,34,0,94,70,1,

237,34,1,94,69,1,

235,33,1,94,69,1,

234,33,0,94,69,1,

233,33,1,93,68,1,

231,33,1,93,68,1,

231,33,1,93,67,1,

230,33,1,92,67,1,

229,33,0,92,67,1,

227,32,1,92,67,1,

313,33,1,91,67,1,

310,32,1,91,66,1,

307,32,1,91,66,1,

306,32,1,90,66,1,

304,32,1,90,66,0,

303,31,1,89,65,1,

301,32,1,89,66,1,

299,31,1,89,65,1,

298,31,1,89,65,1,

295,31,1,88,64,1,

295,31,0,88,64,1,

293,31,1,88,65,1,

291,31,1,88,64,1,

291,31,1,88,63,1,

289,30,1,87,63,1,

287,31,1,87,63,1,

287,30,1,86,63,1,

284,30,1,86,63,1,

283,30,0,86,63,0,

282,30,1,86,62,1,

280,30,0,85,62,1,

280,29,1,85,62,1,

278,29,1,85,61,1,

276,29,1,84,61,1,

275,29,1,83,61,1,

273,29,0,83,61,0,

271,29,1,83,61,1,

271,29,1,83,61,1,

269,29,1,83,61,1,

268,29,1,83,60,1,

267,29,1,82,60,1,

265,28,1,82,60,1,

263,28,1,81,60,1,

263,28,1,81,59,1,

262,28,1,81,59,1,

261,28,1,81,59,1,

259,28,1,80,59,1,

258,28,1,79,58,1,

257,28,1,80,58,1,

255,27,1,79,58,0,

254,27,1,79,58,1,

253,27,1,79,57,1,

252,27,1,79,57,1,

251,27,1,79,57,0,

249,27,1,78,57,1,

249,26,1,78,56,1,

248,26,1,78,56,0,

247,26,1,77,56,1,

245,26,1,77,56,1,

244,26,1,77,56,1,

243,26,1,76,56,1,

242,25,0,77,56,1,

241,25,0,76,55,1,

240,25,0,76,55,1,

238,25,1,76,55,1,

237,25,1,76,54,1,

236,25,1,75,54,1,

235,25,1,75,54,1,

234,25,1,74,54,1,

233,24,1,74,54,1,

231,25,1,74,54,1,

231,25,1,74,53,1,

230,24,1,73,53,1,

229,24,1,73,53,1,

227,24,1,73,53,0,

227,24,0,73,53,1,

226,24,1,73,51,0,

225,24,1,71,52,0,

224,24,1,71,52,1,

223,24,1,71,51,1,

222,24,1,71,51,1,

221,24,1,71,51,1,

220,24,1,71,51,1,

219,24,1,71,51,1,

218,24,1,70,51,1,

217,23,1,70,51,1,

216,23,1,70,51,1,

215,23,1,69,50,1,

215,23,0,69,50,1,

213,23,1,69,50,1,

213,22,1,69,50,1,

211,22,1,69,49,1,

211,22,1,69,49,1,

209,22,1,68,49,1,

209,22,1,68,49,1,

207,22,1,68,48,1,

207,22,1,67,48,1,

206,22,1,67,48,1,

205,21,1,67,48,1,

204,21,1,66,48,1,

203,21,1,66,48,1,

203,21,1,66,48,1,

201,21,1,66,47,0,

201,21,1,66,47,1,

199,21,1,66,47,1,

199,21,1,65,47,0,

198,21,1,65,46,1,

197,20,1,65,46,1,

197,20,1,65,46,1,

266,20,1,64,46,1,

263,20,1,64,46,1,

262,20,1,63,45,1,

261,19,1,63,46,1,

259,19,1,63,46,1,

258,20,1,63,45,1,

257,19,1,63,45,1,

255,19,1,63,45,0,

254,19,1,63,45,1,

252,19,1,62,44,0,

251,19,1,63,44,1,

250,19,1,62,44,1,

249,19,1,62,44,0,

248,19,1,62,44,1,

246,19,1,62,44,1,

245,19,1,61,44,1,

243,18,1,61,43,1,

242,18,1,61,44,1,

241,19,1,60,43,1,

240,19,1,60,43,1,

239,18,1,60,43,0,

238,18,1,60,42,1,

237,18,1,59,43,1,

235,18,1,59,42,1,

235,18,0,59,42,1,

233,18,1,59,42,1,

231,18,1,59,41,1,

231,17,1,74,41,1,

230,18,1,85,42,1,

229,17,0,85,41,1,

227,17,1,84,41,1,

227,17,0,83,41,1,

226,17,1,83,39,1,

224,17,1,83,41,1,

224,17,1,82,40,1,

223,17,1,82,39,0,

222,17,1,82,39,1,

221,17,1,81,39,0,

220,17,1,81,39,1,

219,16,1,81,39,1,

217,17,1,79,39,1,

217,16,1,79,39,1,

216,16,1,79,39,1,

214,16,1,79,39,1,

214,16,1,79,39,0,

213,16,1,78,39,1,

211,16,1,78,39,0,

211,16,1,78,39,1,

209,16,1,77,38,1,

224,16,1,77,38,1,

279,16,0,77,38,1,

277,16,1,77,38,1,

275,16,1,76,38,1,

273,15,1,76,37,1,

271,16,1,75,37,1,

271,16,1,75,37,1,

269,15,0,75,37,1,

268,15,1,74,37,1,

266,15,1,74,37,1,

265,15,1,73,36,1,

263,15,1,73,36,1,

262,15,1,73,37,1,

261,15,1,73,36,1,

260,15,1,71,37,1,

258,15,1,71,37,1,

257,15,1,71,37,1,

255,15,1,71,37,1,

254,15,1,71,36,1,

253,14,1,70,36,1,

252,15,0,70,35,1,

251,15,1,70,36,0,

249,14,0,70,35,1,

248,14,1,70,35,1,

247,14,1,69,35,0,

246,14,1,69,35,1,

249,14,1,69,35,1,

248,14,1,68,35,1,

247,14,1,67,35,1,

245,14,1,67,35,1,

243,14,1,67,35,0,

243,13,1,67,34,1,

241,14,0,67,34,1,

240,13,1,66,34,1,

239,13,1,66,34,0,

238,13,1,66,34,1,

237,13,1,66,34,1,

236,13,1,65,33,1,

235,14,0,65,33,1,

233,13,1,65,34,0,

233,13,1,64,34,1,

231,13,1,64,34,1,

231,13,1,63,34,1,

229,13,1,63,33,1,

228,13,0,63,33,1,

227,13,1,63,33,1,

226,13,1,63,33,1,

225,12,1,63,33,1,

224,12,1,62,33,1,

223,12,1,62,32,1,

332,13,1,62,32,1,

342,20,1,61,32,1,

339,19,1,61,32,0,

337,20,1,61,32,1,

335,19,1,61,31,1,

334,19,1,60,31,1,

332,19,1,60,31,1,

330,19,1,60,31,1,

327,19,1,59,31,1,

327,19,1,59,31,1,

324,19,1,59,31,0,

323,18,0,59,31,1,

321,19,1,59,31,1,

319,19,1,59,31,1,

318,19,1,59,30,1,

316,19,1,58,31,1,

315,19,1,58,31,1,

313,19,1,57,31,1,

312,19,1,57,31,1,

310,19,1,57,30,1,

308,19,1,56,30,1,

307,18,1,57,30,1,

305,18,1,56,30,0,

303,18,1,56,30,1,

302,18,1,56,29,0,

301,18,1,56,29,0,

299,18,1,56,30,1,

298,18,1,56,30,1,

295,18,1,56,29,1,

295,18,1,55,29,1,

294,18,1,55,29,1,

292,18,1,55,29,1,

291,18,1,55,29,1,

289,17,1,54,29,0,

287,17,1,54,28,1,

287,17,1,54,28,1,

285,17,1,54,28,1,

284,17,1,53,28,1,

283,17,0,53,31,1,

281,17,1,53,33,1,

280,17,0,53,33,1,

279,17,1,53,33,1,

277,17,1,52,32,1,

275,17,1,52,31,0,

275,17,1,52,31,0,

273,17,1,51,31,0,

272,16,0,51,31,1,

271,16,1,51,31,1,

269,16,1,51,31,1,

268,16,1,51,31,1,

267,16,1,51,31,1,

265,16,1,51,31,1,

263,15,1,50,31,1,

263,15,0,50,30,1,

262,15,1,50,30,1,

261,15,1,50,30,1,

259,15,1,50,30,2,

259,15,1,50,30,1,

257,15,1,49,30,1,

255,15,0,49,30,1,

255,19,1,49,30,1,

254,18,1,49,29,1,

253,18,1,49,29,1,

252,18,1,48,29,1,

250,18,1,48,29,1,

249,18,1,48,29,1,

248,18,1,48,29,1,

247,18,1,48,29,1,

246,18,1,48,29,1,

245,17,1,47,28,0,

243,18,1,47,28,1,

243,17,1,47,28,0,

241,17,1,47,28,1,

240,17,1,47,28,1,

283,30,1,47,28,1,

300,40,1,46,27,1,

298,39,0,46,28,1,

297,39,0,46,27,1,

295,39,1,46,27,1,

293,39,1,46,27,1,

291,39,1,45,27,1,

290,39,1,46,27,1,

289,38,0,45,27,1,

287,38,1,45,27,1,

286,38,1,45,27,1,

284,38,0,45,26,1,

283,38,1,45,27,1,

281,37,1,44,27,0,

280,37,1,44,26,1,

279,37,0,44,26,1,

277,37,1,44,26,1,

275,37,1,44,26,1,

275,37,1,43,25,1,

273,36,1,43,25,1,

271,36,1,43,25,1,

271,36,0,43,25,1,

269,36,1,43,25,1,

268,35,1,42,25,1,

267,35,1,42,25,1,

265,39,1,43,24,1,

263,51,0,42,25,1,

263,56,1,42,25,1,

261,55,1,42,25,1,

259,55,1,41,24,0,

259,54,1,41,24,1,

257,54,1,41,24,1,

255,54,0,41,24,1,

255,53,1,41,24,1,

253,53,1,41,24,1,

253,53,1,41,24,1,

251,53,1,39,24,0,

251,52,1,39,24,1,

262,52,1,41,24,1,

260,52,1,39,23,0,

259,51,1,39,23,1,

257,51,1,39,24,1,

255,51,1,39,24,1,

255,51,1,39,23,1,

253,50,1,39,24,0,

252,50,1,39,23,1,

251,50,1,39,22,1,

249,50,1,39,23,1,

248,49,1,39,22,1,

248,49,1,39,22,1,

252,49,1,39,22,1,

251,49,1,38,22,0,

249,48,1,38,22,1,

249,48,1,38,22,1,

247,48,1,38,22,1,

246,48,1,38,22,1,

245,48,0,38,22,1,

243,48,1,38,21,1,

243,47,1,37,22,1,

241,47,1,37,21,1,

241,46,1,37,21,1,

239,46,1,37,21,1,

238,46,1,37,21,1,

237,46,1,37,21,1,

236,46,1,36,21,1,

235,45,1,36,21,1,

234,45,0,36,20,1,

233,45,1,36,20,1,

231,45,1,36,21,1,

231,44,1,36,20,1,

230,45,1,36,20,1,

229,44,1,35,20,1,

227,44,1,35,20,0,

226,43,1,35,19,0,

226,43,1,35,20,1,

241,44,1,35,20,1,

239,43,1,35,19,1,

237,43,1,35,20,0,

236,43,1,35,20,1,

236,43,1,34,19,1,

234,42,1,35,19,1,

233,42,0,34,19,1,

231,42,1,34,19,1,

231,41,1,34,19,0,

230,41,1,34,19,1,

228,41,1,33,19,1,

227,41,1,34,19,0,

229,41,1,33,19,1,

228,41,1,33,18,1,

227,41,1,33,19,1,

225,41,1,33,18,1,

225,39,1,33,19,1,

224,40,1,33,18,1,

222,39,0,33,18,1,

222,39,1,32,18,1,

220,39,1,33,18,1,

220,39,1,31,19,0,

219,39,1,31,18,1,

217,39,1,31,18,0,

217,39,1,31,18,1,

216,39,1,31,17,0,

215,39,1,31,18,1,

214,38,1,31,17,1,

213,38,1,31,18,1,

212,38,1,31,17,0,

211,37,1,31,17,1,

210,38,1,31,17,1,

209,37,1,31,17,1,

208,37,1,31,17,1,

207,37,1,31,17,0,

207,37,1,30,17,1,

206,36,1,30,17,1,

217,37,1,30,17,1,

216,37,1,30,16,1,

214,36,1,30,17,1,

213,37,1,30,17,1,

212,37,0,30,17,1,

211,36,0,30,16,0,

210,35,1,30,16,1,

209,36,1,29,16,0,

208,35,1,29,16,1,

207,35,0,29,15,1,

206,35,1,29,15,1,

205,35,1,29,16,1,

260,35,1,29,16,1,

278,35,0,29,16,1,

275,34,1,28,15,0,

274,34,0,29,15,0,

273,34,1,28,15,1,

271,34,1,28,15,1,

270,33,1,28,15,0,

268,34,1,28,15,0,

267,34,1,28,15,0,

265,33,1,28,15,1,

263,33,1,28,15,1,

263,33,1,28,15,1,

261,33,0,27,15,1,

259,32,0,27,15,1,

259,33,1,27,16,1,

258,32,1,27,16,1,

255,32,1,27,15,1,

255,31,1,27,16,1,

254,31,1,27,16,1,

253,31,1,27,15,1,

251,31,1,27,15,1,

250,31,1,26,15,1,

249,31,0,27,15,1,

248,31,0,26,15,0,

246,30,1,26,15,1,

246,30,1,26,15,1,

245,30,1,26,15,1,

243,30,1,25,15,1,

243,30,1,25,15,1,

241,30,1,25,15,1,

240,30,1,25,15,1,

239,30,1,25,15,1,

238,30,1,25,15,1,

237,29,1,25,15,1,

236,29,0,25,14,1,

234,29,1,25,14,1,

233,29,0,25,14,1,

231,29,1,25,14,1,

231,29,1,24,14,1,

231,28,1,24,14,1,

230,29,0,25,14,1,

229,28,1,24,14,1,

227,28,1,24,14,1,

226,28,1,24,14,0,

225,28,0,24,14,1,

224,28,1,24,14,1,

223,28,1,24,13,1,

222,27,1,24,13,1,

222,27,1,24,14,1,

220,27,1,24,13,1,

219,27,1,24,13,0,

218,27,1,23,13,1,

217,27,1,23,13,1,

216,26,1,24,13,1,

216,26,1,24,13,1,

214,26,1,23,13,1,

213,26,1,23,13,1,

212,26,0,23,13,1,

211,25,0,22,13,1,

210,25,1,22,12,0,

209,25,0,22,13,1,

208,25,1,22,13,1,

231,25,1,23,13,1,

230,25,1,22,12,1,

229,25,1,22,13,0,

227,25,0,22,12,1,

227,25,1,22,13,1,

226,25,1,21,12,1,

224,25,1,22,12,1,

223,25,1,22,12,1,

223,24,1,21,12,1,

221,24,1,21,12,1,

220,24,1,21,12,1,

219,24,1,21,12,1,

218,24,1,21,12,1,

220,24,1,21,12,1,

219,25,1,21,12,0,

217,25,1,21,12,1,

216,25,1,21,12,1,

216,25,1,20,12,1,

215,25,1,21,11,1,

213,25,1,21,12,1,

212,24,1,20,11,1,

211,24,1,20,12,1,

211,24,1,20,11,0,

209,24,1,20,11,1,

208,24,1,20,11,1,

245,24,1,20,12,1,

243,24,0,20,12,1,

242,24,1,20,11,1,

240,24,1,20,11,1,

239,24,1,19,11,1,

238,24,1,19,12,1,

237,23,1,19,11,1,

236,23,1,19,11,1,

235,23,1,19,11,0,

233,23,1,19,11,1,

231,23,1,19,11,1,

231,23,1,19,11,1,

231,24,1,19,12,1,

230,26,1,19,18,1,

228,32,1,19,19,1,

227,31,1,18,19,1,

226,31,1,18,19,1,

225,31,1,18,19,1,

224,31,0,19,18,1,

223,31,1,18,18,0,

222,31,1,18,18,1,

220,30,0,18,18,1,

220,31,1,18,18,1,

219,30,0,18,18,1,

217,30,1,18,18,1,

231,30,1,18,18,1,

230,30,0,18,18,1,

229,30,1,17,18,1,

227,30,1,17,17,0,

227,29,0,17,17,1,

225,29,1,17,17,1,

224,29,1,17,17,1,

223,29,1,18,17,1,

222,29,1,17,17,0,

221,28,1,17,17,1,

220,28,1,17,17,1,

219,28,0,17,16,1,

221,28,1,17,17,1,

220,28,1,17,17,1,

218,28,1,17,17,0,

217,28,1,16,17,1,

216,27,1,17,16,1,

216,27,1,16,17,1,

214,27,1,17,16,1,

213,27,1,16,16,1,

212,27,1,16,16,1,

211,27,1,16,16,1,

210,27,1,16,15,1,

209,26,1,16,15,1,

209,26,1,16,16,1,

212,26,1,15,19,1,

211,26,1,15,18,1,

210,26,1,15,18,1,

209,26,1,15,18,1,

207,25,1,15,18,1,

207,25,0,15,18,1,

206,25,1,15,18,1,

205,25,1,15,17,1,

204,25,1,15,17,1,

204,25,0,15,17,1,

203,25,1,15,17,1,

201,25,1,15,17,1,

227,25,1,15,21,1,

226,25,1,15,30,0,

225,24,1,15,30,1,

224,25,1,15,29,1,

222,24,1,15,29,0,

221,24,1,15,29,1,

220,24,0,15,29,1,

219,24,1,14,28,1,

217,24,1,14,29,0,

216,24,1,14,28,1,

216,24,1,14,28,1,

215,23,1,14,28,1,

219,23,1,14,28,1,

231,25,1,14,28,1,

229,25,0,14,28,0,

227,25,1,14,28,1,

226,25,1,14,28,1,

225,25,1,14,27,1,

224,25,1,14,27,0,

224,25,1,14,27,1,

222,25,1,14,27,1,

221,24,1,14,26,1,

220,24,1,13,27,0,

219,24,1,13,26,1,

217,24,0,13,26,1,

236,24,1,13,26,1,

235,24,1,13,26,0,

233,24,1,13,25,1,

231,24,0,13,25,1,

231,24,1,13,26,0,

230,23,0,13,25,1,

229,23,1,13,25,1,

228,23,1,13,25,1,

227,23,1,13,25,1,

226,22,1,13,25,1,

225,22,1,13,25,1,

223,22,1,13,25,1,

227,22,1,12,24,1,

226,22,1,12,25,1,

225,22,1,12,25,1,

223,21,1,13,25,1,

222,22,0,12,25,1,

221,22,1,12,25,1,

220,22,1,12,25,1,

219,21,1,12,25,0,

218,21,1,12,25,0,

217,21,1,12,25,1,

216,21,1,12,24,1,

215,21,0,12,24,1,

222,21,1,12,24,1,

240,21,1,12,24,1,

239,21,1,12,24,1,

238,21,1,12,24,1,

236,21,1,12,24,1,

235,21,1,12,24,1,

234,21,1,12,24,1,

233,20,0,11,24,1,

231,20,1,11,24,1,

231,20,1,12,24,1,

230,20,1,11,24,1,

228,19,1,11,24,1,

227,20,1,11,23,1,

227,20,1,11,23,1,

226,20,1,11,23,1,

225,20,1,11,23,1,

224,19,0,11,23,1,

222,20,1,11,23,1,

221,19,1,11,22,1,

220,19,1,11,22,1,

219,19,1,10,22,1,

219,19,1,11,22,1,

217,19,0,11,22,1,

216,19,1,11,22,1,

215,19,1,10,22,1,

216,19,0,11,21,1,

214,19,1,10,21,0,

214,19,1,10,21,0,

212,18,1,11,21,1,

211,18,0,10,21,1,

210,18,1,10,21,1,

209,18,1,10,20,1,

208,18,1,10,20,1,

207,18,1,10,21,1,

207,18,1,10,20,1,

206,18,0,10,20,1,

205,18,1,10,20,1,

204,17,1,9,19,1,

203,17,1,9,21,0,

202,17,1,10,32,1,

201,17,1,10,31,1,

199,17,0,10,32,1,

199,17,0,9,31,1,

199,17,0,9,31,1,

198,17,1,10,31,1,

197,17,1,9,31,0,

196,16,1,9,31,1,

195,17,1,9,31,0,

194,16,1,9,31,1,

194,16,0,9,31,0,

202,16,1,9,30,1,

217,17,1,9,53,1,

216,26,1,9,53,1,

215,25,1,9,51,1,

214,25,1,9,51,1,

212,25,1,9,51,1,

211,25,1,9,51,1,

210,25,1,9,50,1,

209,25,1,9,50,1,

207,24,1,9,51,1,

207,25,1,9,50,1,

206,24,1,9,50,0,

205,24,1,9,50,1,

205,24,1,9,49,1,

218,24,1,7,49,1,

217,24,1,9,49,1,

216,24,1,8,48,1,

214,24,1,8,48,1,

214,24,1,8,48,1,

213,23,1,7,48,1,

211,23,1,8,47,1,

210,24,1,7,47,1,

209,23,1,7,47,1,

207,24,1,8,46,1,

207,23,1,7,46,1,

206,23,0,7,46,1,

205,22,1,7,46,1,

221,22,1,7,46,1,

220,22,0,7,46,1,

219,23,0,7,45,1,

217,23,1,7,45,0,

216,22,1,7,45,1,

216,22,1,7,45,1,

214,22,1,7,45,1,

213,22,1,7,44,1,

212,21,1,7,44,0,

211,21,1,7,44,0,

210,22,1,7,44,1,

209,21,1,7,44,1,

223,25,1,7,43,1,

231,28,1,7,44,1,

231,28,1,7,43,0,

229,28,1,7,43,0,

