
82,26,0,50,28,0,

82,26,0,50,28,0,

82,26,0,50,28,0,

81,26,0,49,28,0,

81,25,0,49,28,0,

80,25,0,49,27,1,

80,25,0,49,27,0,

79,25,0,49,27,0,

79,25,0,78,27,0,

79,25,0,78,27,0,

79,25,0,77,27,0,

78,25,0,77,26,0,

78,25,0,77,27,0,

78,25,0,76,26,0,

77,24,0,76,26,0,

77,24,0,75,26,0,

76,24,0,75,25,0,

76,24,0,75,25,0,

76,24,0,74,25,0,

75,24,0,74,25,0,

75,23,0,73,25,0,

75,24,0,73,25,0,

75,24,0,99,25,0,

74,24,0,110,25,0,

74,24,0,109,25,0,

73,23,0,108,25,0,

73,23,0,108,24,0,

73,23,0,107,24,0,

71,23,0,107,24,0,

71,22,0,106,24,0,

71,22,0,105,24,0,

71,22,0,105,24,0,

71,22,0,103,24,0,

71,22,0,103,24,0,

70,22,0,103,24,0,

70,22,0,103,24,0,

70,21,0,103,23,0,

69,22,0,102,23,0,

69,21,0,102,23,0,

68,21,0,101,22,0,

68,21,0,101,22,0,

68,21,0,100,22,0,

67,21,0,99,22,0,

67,21,0,99,22,0,

67,20,0,99,22,0,

67,20,0,98,22,0,

67,20,0,107,22,0,

66,20,0,112,22,0,

66,19,0,111,22,0,

66,20,0,110,21,0,

65,19,0,110,21,0,

65,19,0,109,21,0,

65,19,0,109,21,0,

64,19,0,108,21,0,

64,19,0,108,21,0,

63,19,0,107,20,0,

63,19,0,107,21,0,

63,19,0,106,20,0,

65,19,0,106,20,0,

66,19,0,105,20,0,

65,18,0,105,19,0,

65,19,0,103,20,0,

65,18,0,103,19,0,

64,18,0,103,19,0,

63,18,0,103,19,0,

63,18,0,102,19,0,

63,18,0,102,19,0,

63,18,0,101,19,0,

63,18,0,101,19,0,

62,18,0,100,19,0,

63,17,0,100,19,0,

71,18,0,99,19,0,

70,39,0,99,18,0,

70,41,0,99,18,0,

70,41,0,98,18,0,

70,41,0,98,18,0,

69,41,0,97,19,0,

69,39,0,97,18,0,

68,39,0,96,18,0,

68,39,0,96,18,0,

68,39,0,96,18,1,

67,39,0,96,18,0,

67,39,0,95,18,0,

66,39,0,95,17,0,

67,39,0,94,17,0,

85,70,0,94,17,0,

84,69,0,94,17,0,

83,68,0,93,18,0,

83,67,0,93,17,0,

83,67,0,92,17,0,

83,67,0,92,17,0,

82,67,0,92,16,1,

82,67,0,91,16,0,

81,66,0,91,16,0,

81,66,0,90,16,0,

80,66,0,90,17,0,

80,65,0,89,16,0,

79,65,0,89,16,0,

79,64,0,89,16,0,

79,64,0,88,16,0,

79,63,0,88,16,0,

78,63,0,88,16,0,

78,63,0,87,16,0,

78,63,0,87,16,0,

77,63,0,87,16,0,

77,62,0,86,15,0,

77,62,0,86,16,0,

76,62,0,85,15,0,

76,61,0,85,15,0,

76,61,0,85,15,0,

75,61,0,85,15,0,

75,60,0,83,15,0,

74,60,0,83,15,0,

74,60,0,83,15,0,

74,60,0,83,15,0,

73,60,0,82,15,0,

73,59,0,82,15,0,

73,58,0,82,15,0,

71,59,0,81,15,0,

71,58,0,81,14,0,

71,57,0,81,14,0,

71,57,0,80,15,0,

71,57,0,79,14,0,

71,57,0,80,14,0,

71,57,0,79,14,0,

70,57,0,79,14,0,

70,56,0,79,14,0,

70,56,0,78,14,0,

69,56,0,78,14,0,

69,56,0,78,13,0,

69,56,0,78,14,0,

68,55,0,77,13,0,

68,55,1,77,13,0,

67,54,0,76,13,0,

67,54,0,76,13,0,

67,54,0,76,13,0,

67,54,0,76,13,0,

66,54,0,75,13,0,

66,53,0,75,13,0,

66,53,0,75,13,0,

66,52,0,74,13,0,

65,52,0,74,12,0,

65,51,0,74,13,0,

65,52,0,73,13,0,

64,51,0,73,13,0,

64,51,0,73,12,0,

63,51,0,71,13,0,

63,51,0,71,12,0,

63,51,0,71,12,0,

63,50,0,71,12,0,

63,50,0,71,12,0,

62,50,0,71,12,0,

62,50,0,71,12,0,

62,49,0,70,12,0,

62,49,0,70,12,0,

61,49,0,70,12,0,

61,49,0,70,12,0,

61,49,0,69,12,0,

60,48,0,69,12,0,

60,48,0,69,12,0,

60,48,0,68,12,0,

60,47,0,68,11,0,

60,48,0,68,11,0,

70,48,0,68,11,0,

75,47,0,67,11,0,

75,47,0,67,11,0,

74,46,0,66,11,0,

73,46,0,66,11,0,

73,46,0,66,11,0,

73,46,0,66,11,0,

73,46,0,66,11,0,

71,45,0,65,11,0,

71,45,0,65,11,0,

71,45,0,65,11,0,

71,45,0,65,11,0,

71,45,0,63,11,0,

70,44,0,76,11,0,

70,44,0,91,22,0,

70,44,0,91,61,0,

70,44,0,90,77,0,

69,44,0,90,81,0,

69,43,0,89,80,0,

68,43,0,89,79,0,

68,43,0,88,79,0,

67,42,0,88,78,0,

67,43,0,88,78,0,

67,42,0,87,78,0,

67,42,0,87,77,0,

67,41,0,86,77,0,

66,41,0,86,77,0,

66,41,0,86,76,0,

66,41,0,85,76,0,

65,41,0,85,75,0,

65,41,0,84,75,0,

65,39,0,84,74,0,

64,39,0,83,74,0,

64,39,0,83,74,0,

63,39,0,83,74,0,

63,39,0,83,73,0,

63,39,0,82,73,0,

63,39,0,96,73,0,

63,39,0,162,71,0,

69,39,0,161,101,0,

83,39,0,159,151,0,

82,39,0,158,181,0,

82,39,0,158,180,0,

81,39,0,156,179,0,

81,38,0,156,177,0,

81,38,0,155,177,0,

79,38,0,154,176,0,

79,38,0,153,175,0,

79,38,0,152,174,0,

78,37,0,152,173,0,

79,64,0,151,172,0,

122,92,0,151,171,0,

121,92,0,150,170,0,

120,91,0,149,169,0,

120,90,0,147,167,0,

120,89,0,147,167,0,

119,89,0,146,166,0,

118,89,0,145,165,0,

117,88,0,145,176,0,

116,88,0,144,174,0,

115,87,0,143,174,0,

147,87,0,143,173,0,

156,86,0,142,172,0,

154,86,0,142,170,0,

153,85,0,141,169,0,

152,85,0,140,169,0,

152,84,0,139,167,0,

151,83,0,139,167,0,

150,83,0,138,166,0,

149,83,0,137,165,0,

148,82,0,135,164,0,

147,82,0,135,163,0,

146,81,0,135,163,0,

146,81,0,135,161,0,

145,81,0,134,161,0,

144,80,0,133,159,0,

143,79,0,133,159,0,

143,79,0,132,158,0,

142,79,0,131,158,0,

141,78,0,131,157,0,

140,78,0,130,156,0,

140,77,0,130,155,0,

139,77,0,129,155,0,

138,77,0,128,154,0,

137,76,0,127,153,1,

137,76,0,127,152,0,

135,75,0,126,152,0,

135,75,0,126,151,0,

135,75,0,125,154,0,

134,74,0,124,154,0,

134,74,0,124,153,0,

133,73,0,123,152,0,

132,73,0,123,152,0,

131,73,0,122,150,0,

131,71,0,121,150,0,

130,71,0,121,149,0,

129,71,0,120,148,0,

128,71,0,120,147,0,

128,71,0,120,147,0,

127,71,0,119,185,0,

127,70,0,118,294,0,

126,70,0,118,300,0,

126,69,0,117,297,0,

125,69,0,117,295,0,

124,68,0,115,293,0,

124,68,0,115,291,0,

123,67,0,115,290,0,

122,68,0,115,287,0,

122,67,0,114,286,0,

121,67,0,113,284,0,

121,67,0,113,283,0,

120,66,0,112,281,0,

120,66,0,112,280,0,

119,66,0,111,278,0,

119,65,0,111,276,0,

118,65,0,110,275,0,

117,64,0,110,273,0,

117,64,0,109,271,0,

120,63,0,109,271,0,

120,63,0,108,312,0,

119,63,0,108,310,0,

118,63,0,107,307,0,

118,62,0,107,305,0,

117,62,0,106,304,0,

116,62,0,106,302,0,

115,62,0,105,300,0,

115,61,0,103,298,0,

115,61,0,103,295,0,

114,61,0,103,295,0,

114,65,0,124,293,0,

113,92,0,132,291,0,

112,95,0,131,290,0,

112,94,0,131,287,0,

111,94,0,130,287,0,

111,93,0,129,285,0,

110,93,0,128,284,0,

110,92,0,127,281,0,

109,91,0,127,281,0,

109,91,0,127,279,0,

108,91,0,126,282,0,

108,90,0,125,281,0,

107,90,0,124,280,0,

107,89,0,124,278,0,

106,88,0,124,276,1,

105,88,0,123,274,1,

105,88,0,122,273,0,

103,87,0,121,271,0,

103,87,0,121,271,0,

103,86,0,120,268,0,

103,86,1,120,267,0,

103,85,0,119,266,0,

103,100,0,119,263,0,

102,113,0,118,263,0,

102,112,0,117,262,0,

101,111,0,117,260,1,

101,110,0,116,259,0,

100,110,0,115,257,0,

99,109,0,115,255,1,

99,109,0,114,255,0,

98,108,0,114,253,0,

98,107,0,113,252,0,

98,107,0,113,251,0,

97,106,0,129,250,0,

97,105,1,178,248,0,

96,105,0,176,248,1,

96,103,1,176,246,0,

96,103,0,174,244,1,

95,103,0,173,243,1,

95,103,0,172,242,0,

94,103,1,171,241,0,

94,102,1,170,240,1,

93,101,0,169,239,0,

93,101,0,169,371,1,

92,100,1,169,458,1,

92,99,1,167,454,0,

92,99,0,167,451,1,

92,99,1,166,447,0,

92,98,1,166,445,1,

91,98,1,165,441,1,

91,97,1,163,439,1,

90,97,1,163,435,0,

90,96,1,163,432,0,

89,96,0,161,431,1,

89,96,1,161,428,1,

88,95,1,159,425,1,

88,94,1,159,422,1,

88,94,0,158,419,1,

88,93,0,157,417,1,

87,93,1,157,415,1,

86,93,1,156,503,1,

86,92,1,156,517,1,

86,92,1,155,513,0,

86,91,1,154,508,1,

85,91,1,153,504,1,

85,90,1,153,502,1,

83,90,1,152,498,1,

83,89,1,151,495,1,

83,89,1,151,491,1,

83,88,1,150,487,0,

82,88,1,149,485,1,

82,88,1,148,481,1,

82,88,0,147,479,1,

81,87,1,147,475,1,

81,86,1,146,473,1,

81,86,1,146,469,0,

79,86,1,145,466,0,

79,85,1,144,463,1,

79,85,0,143,461,1,

79,84,1,143,458,1,

79,83,1,143,455,1,

79,83,1,142,452,0,

79,83,1,141,450,1,

79,83,1,141,447,1,

78,82,1,140,445,1,

78,82,1,139,441,1,

77,81,1,139,440,1,

77,81,1,138,436,1,

76,81,1,137,434,1,

76,80,1,137,432,0,

76,79,1,135,429,1,

82,79,1,135,427,1,

81,79,1,135,423,1,

81,79,1,134,422,1,

81,78,1,134,420,1,

79,78,1,133,417,1,

79,78,1,133,415,1,

79,77,0,131,412,1,

79,77,1,131,410,1,

79,77,1,131,408,1,

78,76,1,130,406,1,

78,76,1,129,403,1,

77,75,1,129,401,1,

77,79,1,247,399,1,

76,79,1,286,397,1,

76,78,1,283,395,1,

76,78,1,281,393,1,

76,78,1,280,390,1,

75,77,1,278,389,1,

75,76,1,276,386,1,

75,77,1,275,384,0,

74,76,1,273,382,1,

73,76,1,271,380,1,

73,75,1,270,379,1,

90,75,1,269,376,1,

99,74,1,268,374,1,

100,74,1,267,371,1,

99,73,1,263,370,1,

99,73,1,263,368,1,

99,73,1,262,422,1,

99,72,1,261,572,1,

97,71,1,259,568,1,

97,71,1,258,564,1,

97,71,1,257,559,1,

96,71,1,255,556,1,

96,71,1,254,551,1,

95,70,1,253,547,1,

95,70,1,252,543,1,

94,69,1,251,539,1,

94,69,1,263,536,1,

93,69,1,263,531,1,

93,69,1,261,527,1,

92,68,1,259,524,1,

92,68,1,259,521,1,

91,68,1,257,518,1,

91,67,1,255,514,1,

91,67,0,254,511,1,

90,67,1,297,507,1,

89,67,1,425,504,1,

89,66,1,421,501,1,

89,66,1,417,497,1,

88,66,1,415,495,1,

88,65,1,412,491,1,

88,65,1,409,487,1,

88,65,1,407,485,1,

86,64,1,404,482,1,

86,63,1,402,480,1,

86,63,1,399,476,1,

85,63,1,397,473,1,

85,63,1,395,471,1,

84,88,1,391,467,1,

100,88,1,391,464,1,

99,87,1,388,462,1,

99,86,1,386,536,1,

99,86,1,384,711,1,

98,85,1,381,799,1,

98,85,1,380,789,1,

97,84,1,377,782,1,

97,83,1,376,773,2,

96,83,1,373,766,2,

96,83,1,371,760,1,

96,83,1,369,752,1,

95,82,1,367,746,1,

94,82,1,365,738,1,

93,82,1,363,732,1,

94,81,2,361,727,2,

93,81,1,359,719,2,

92,80,2,357,714,2,

92,79,1,355,707,1,

91,79,2,354,702,2,

91,79,2,352,696,2,

91,79,2,350,690,2,

90,79,2,349,686,2,

166,152,2,347,679,2,

178,150,2,344,672,2,

177,149,2,343,667,2,

176,147,2,340,662,2,

174,146,2,338,655,2,

174,146,2,337,650,2,

172,144,2,335,644,2,

171,143,2,333,639,2,

170,143,2,331,635,2,

169,142,2,329,629,2,

167,141,2,327,624,2,

167,141,2,326,620,2,

167,140,2,324,615,2,

166,139,2,322,609,2,

165,138,2,321,604,2,

163,137,2,319,600,2,

163,137,2,317,596,2,

161,135,2,316,591,2,

161,135,2,314,586,2,

159,135,2,312,582,2,

159,134,2,311,578,2,

159,133,2,309,574,2,

157,132,2,307,569,2,

157,132,2,306,565,2,

156,131,2,304,561,2,

155,130,2,303,558,2,

154,129,2,301,553,2,

153,129,2,300,549,2,

153,128,2,298,546,2,

152,127,2,295,542,2,

151,126,2,295,537,2,

152,126,2,294,534,2,

205,126,2,292,531,2,

213,125,2,291,527,2,

216,124,2,289,524,2,

214,123,2,287,519,2,

212,123,2,286,517,2,

211,122,2,285,513,2,

210,121,2,284,509,2,

209,121,2,282,505,2,

207,121,2,281,503,2,

206,120,2,280,499,2,

205,119,2,278,496,2,

204,118,2,277,492,2,

203,118,2,275,489,2,

202,117,2,274,487,2,

199,116,2,272,483,2,

199,116,2,271,480,2,

199,115,2,270,477,2,

197,115,2,268,474,3,

196,114,2,267,472,2,

195,113,2,266,468,2,

194,113,2,265,465,2,

193,112,3,263,463,2,

192,112,3,262,460,3,

192,112,3,261,457,2,

190,111,3,259,454,3,

189,110,3,258,451,2,

188,109,2,257,448,2,

187,109,3,255,446,3,

186,109,2,255,443,3,

185,108,2,253,441,2,

184,108,2,252,438,3,

184,107,2,251,435,2,

183,107,2,250,432,2,

201,106,3,248,430,2,

199,105,3,248,428,2,

199,105,2,247,425,3,

197,105,3,245,423,3,

196,103,2,243,420,3,

195,103,3,243,418,3,

194,103,2,241,415,3,

193,102,2,241,413,3,

192,102,3,240,411,3,

191,101,3,238,408,3,

190,101,3,237,406,3,

189,100,3,236,403,3,

188,100,3,235,401,3,

187,99,3,233,399,3,

185,99,3,231,397,3,

185,99,3,231,395,3,

184,98,3,231,391,3,

183,98,3,230,391,3,

182,97,3,229,389,3,

181,97,3,227,387,3,

179,96,3,291,385,3,

179,150,3,345,383,3,

178,152,3,344,380,3,

178,150,3,341,378,3,

176,149,3,338,376,3,

176,148,3,335,374,3,

175,147,3,334,372,3,

174,147,3,332,370,3,

173,146,3,330,368,3,

172,145,3,327,366,3,

172,143,3,327,364,3,

171,143,3,324,362,3,

169,142,3,322,359,3,

167,142,3,319,359,3,

167,141,3,319,357,3,

167,140,3,317,354,3,

166,140,3,315,353,3,

166,139,3,313,351,3,

164,138,3,312,349,3,

163,137,3,310,347,3,

163,135,3,307,345,3,

162,135,3,306,344,3,

161,145,2,305,342,3,

161,145,3,303,339,3,

159,143,2,301,338,3,

159,143,3,299,335,3,

158,142,3,298,335,3,

157,141,3,295,333,3,

156,141,3,295,331,3,

156,140,2,293,329,3,

155,139,3,291,327,2,

154,138,3,290,326,3,

153,137,2,288,325,3,

153,195,3,287,323,3,

152,224,2,285,321,3,

151,222,3,284,319,3,

150,221,2,282,318,3,

149,220,2,280,317,3,

149,218,2,279,315,3,

148,217,2,278,313,3,

147,216,2,276,312,2,

147,215,2,340,311,2,

227,213,2,353,309,2,

225,211,2,352,307,2,

223,211,2,349,305,3,

221,210,2,346,304,2,

220,207,2,344,302,2,

219,207,2,343,301,2,

217,206,2,340,300,2,

216,205,2,338,298,2,

215,204,2,335,297,2,

214,203,2,334,295,2,

212,201,2,332,294,2,

211,199,2,329,292,2,

210,199,2,327,291,2,

209,198,2,326,290,2,

207,197,2,324,287,2,

206,196,2,322,287,2,

206,195,2,319,286,2,

204,194,2,319,284,2,

203,193,2,317,283,2,

202,192,2,315,281,2,

201,191,2,313,280,2,

199,190,2,312,279,2,

199,189,2,310,277,2,

198,188,2,308,276,2,

269,273,2,307,275,2,

333,354,2,304,274,2,

330,351,2,304,271,2,

327,348,2,301,271,2,

325,345,2,300,270,2,

323,344,1,298,268,2,

321,341,1,295,267,2,

319,339,1,377,265,1,

317,337,2,374,265,1,

315,335,1,371,263,2,

313,333,2,369,263,2,

312,331,1,367,261,1,

310,329,1,364,260,2,

307,327,2,362,259,1,

306,324,2,359,257,1,

304,323,2,357,255,1,

302,321,1,355,255,2,

301,319,1,353,254,1,

299,317,1,351,253,2,

297,315,2,349,252,1,

297,314,1,347,250,2,

304,312,1,345,249,2,

302,310,1,343,248,1,

300,307,1,341,247,1,

298,307,2,339,246,1,

295,305,1,336,245,2,

295,303,1,335,243,1,

293,301,1,333,243,1,

291,300,1,331,241,1,

289,298,1,329,241,2,

287,295,2,327,239,2,

287,295,1,326,238,2,

285,293,1,323,237,1,

283,291,2,322,236,1,

282,290,2,319,235,1,

280,287,1,318,233,1,

279,287,1,317,233,2,

277,285,2,315,231,1,

275,284,1,313,231,1,

274,282,1,312,230,2,

273,281,2,310,228,2,

271,280,1,311,228,2,

271,278,1,308,227,1,

275,276,2,307,226,2,

274,275,2,305,224,2,

272,273,1,304,224,1,

271,271,2,302,223,1,

269,270,2,300,221,2,

268,269,2,299,221,2,

266,268,1,297,220,2,

265,266,2,295,219,2,

263,265,1,294,217,2,

263,263,2,293,217,2,

261,263,2,291,216,2,

259,261,1,289,215,2,

258,259,2,287,214,1,

255,258,2,286,213,1,

255,257,2,285,212,2,

254,255,2,284,211,2,

252,254,2,282,210,2,

251,253,2,281,209,2,

250,251,2,280,207,2,

249,250,2,278,207,2,

248,249,1,276,207,2,

246,248,2,275,206,2,

245,246,2,273,205,1,

243,245,2,272,204,1,

242,243,1,271,203,1,

241,243,1,270,202,1,

240,241,2,268,201,1,

239,240,1,267,199,2,

238,239,2,265,199,2,

236,238,1,263,199,1,

235,236,1,263,198,2,

233,236,1,262,197,2,

233,234,1,260,196,1,

231,233,2,259,195,2,

230,231,1,257,194,1,

229,231,1,255,193,2,

227,230,2,255,193,1,

227,228,1,253,192,1,

226,227,1,252,191,2,

225,226,2,251,190,2,

224,225,1,249,189,2,

222,224,1,248,188,1,

222,223,1,248,188,1,

220,222,1,246,187,1,

219,221,1,245,186,1,

218,220,1,243,185,1,

217,218,1,243,185,1,

216,217,1,241,184,1,

215,217,1,240,183,1,

214,216,1,239,183,1,

213,214,1,238,181,1,

211,213,1,237,180,1,

211,212,1,236,179,1,

210,211,1,235,179,1,

209,210,1,233,178,1,

207,209,1,231,177,1,

207,207,1,231,177,1,

206,207,1,230,176,1,

205,206,1,229,175,1,

204,205,1,227,174,1,

203,205,1,227,174,1,

201,203,1,226,173,1,

201,202,1,225,172,1,

199,201,1,224,172,1,

199,199,1,223,171,1,

198,199,1,222,171,1,

197,199,1,220,169,1,

196,198,1,220,169,1,

195,197,1,219,167,1,

194,196,1,217,167,1,

193,195,1,217,166,1,

193,193,1,216,166,1,

192,193,1,215,165,1,

190,192,1,214,164,1,

190,191,1,213,163,1,

189,190,1,211,163,1,

188,189,1,211,162,1,

187,189,1,210,162,1,

185,188,1,209,161,1,

185,187,1,207,160,1,

184,185,1,207,159,1,

183,185,1,206,159,1,

183,184,1,205,158,1,

181,183,1,205,158,1,

181,182,1,204,157,1,

180,182,1,202,156,1,

179,181,1,201,156,1,

178,180,1,201,155,1,

177,179,1,199,154,1,

176,178,1,199,154,1,

176,177,1,198,153,1,

175,176,1,197,152,1,

174,176,1,196,152,1,

173,175,1,195,151,1,

173,174,1,195,150,1,

172,173,1,193,150,1,

171,172,1,193,149,1,

170,172,1,192,148,1,

169,171,1,191,147,1,

168,169,1,190,147,1,

167,169,1,189,147,0,

167,167,1,188,146,1,

166,167,0,188,145,1,

166,167,1,187,145,1,

164,166,1,186,144,0,

164,165,1,185,143,1,

163,165,1,184,143,1,

163,163,1,184,142,1,

162,163,1,183,142,1,

161,162,1,182,141,1,

159,161,1,181,141,1,

159,160,1,180,140,1,

159,159,0,179,140,1,

158,159,1,179,139,1,

157,159,0,178,138,1,

156,158,1,177,138,1,

156,157,1,176,137,0,

155,156,1,176,135,0,

154,155,0,175,135,0,

154,155,0,174,135,1,

153,154,1,173,135,1,

152,153,1,172,134,1,

152,153,1,172,134,0,

151,152,0,171,133,0,

150,151,1,170,133,1,

150,151,1,169,132,1,

149,150,1,169,131,1,

147,149,0,167,131,1,

147,148,1,167,130,0,

147,147,1,167,129,0,

146,147,1,166,129,1,

145,146,1,165,129,0,

145,145,1,164,127,1,

143,145,1,163,127,0,

143,144,0,163,127,0,

143,143,0,162,127,0,

142,143,1,162,126,0,

142,143,0,161,125,0,

141,142,1,159,125,1,

140,141,1,159,124,1,

140,140,0,159,124,0,

139,140,0,158,124,1,

138,139,0,157,123,0,

137,139,0,157,122,1,

137,138,0,156,122,0,

137,137,0,155,121,1,

135,135,1,155,121,0,

135,135,0,154,120,0,

159,135,0,153,120,0,

158,135,0,153,120,0,

157,134,0,152,119,0,

156,134,0,152,118,0,

156,133,0,151,117,0,

155,132,0,150,117,0,

154,131,1,150,117,0,

153,131,0,149,116,0,

152,131,0,148,115,0,

152,130,0,147,115,0,

151,129,0,147,115,0,

150,129,0,146,115,1,

149,128,0,145,114,0,

148,127,0,145,113,0,

147,127,1,144,113,0,

146,126,0,143,112,0,

145,126,0,143,112,0,

145,125,0,143,112,0,

143,125,0,142,111,0,

143,124,0,141,110,0,

143,124,0,140,110,0,

142,123,0,140,110,0,

141,122,0,140,109,0,

140,122,0,139,109,0,

140,121,0,138,109,0,

139,121,0,138,108,0,

138,120,0,137,107,0,

137,120,0,137,107,0,

137,120,0,135,106,0,

135,119,0,135,106,0,

135,118,0,135,106,0,

135,118,1,135,105,0,

134,117,0,134,105,0,

134,117,0,133,103,0,

133,116,0,133,103,0,

132,115,0,132,103,0,

131,115,0,131,103,0,

131,114,0,131,103,0,

130,114,0,130,102,0,

130,113,0,130,102,0,

129,113,0,129,101,1,

128,113,1,129,101,0,

127,112,0,128,100,0,

127,112,0,127,100,0,

127,111,0,127,99,0,

126,110,0,127,99,0,

126,110,0,126,99,0,

125,110,0,126,98,0,

125,109,0,125,98,0,

125,109,1,125,98,0,

124,108,0,124,97,0,

123,107,0,123,97,0,

122,107,0,123,96,0,

122,107,0,122,96,0,

121,106,0,122,96,0,

121,106,0,121,95,0,

120,105,0,121,95,0,

120,105,0,121,95,0,

120,103,0,120,94,0,

119,103,0,120,94,0,

119,103,0,119,94,0,

118,103,0,119,93,0,

117,103,0,118,92,0,

117,102,0,118,93,0,

116,102,0,117,92,0,

116,102,0,117,92,0,

115,101,0,117,91,0,

115,101,0,115,91,0,

114,100,0,115,91,0,

114,99,0,115,90,0,

113,99,0,114,89,0,

113,99,0,114,89,1,

112,98,0,114,89,0,

112,98,0,113,89,0,

112,97,0,113,89,0,

111,97,0,112,88,0,

110,97,0,112,88,0,

110,96,0,111,88,0,

110,96,0,111,88,0,

109,96,0,111,87,0,

109,95,0,110,86,0,

108,95,0,110,86,0,

108,94,0,109,86,0,

108,94,0,109,85,0,

107,93,0,108,85,0,

107,93,0,108,85,0,

106,93,0,108,84,0,

105,92,0,107,83,0,

105,92,0,107,83,0,

105,92,0,107,83,0,

103,91,0,105,83,0,

103,91,0,105,83,0,

103,90,0,105,83,0,

103,90,0,103,82,0,

103,89,0,103,82,0,

102,89,1,103,81,0,

102,89,0,103,81,0,

101,88,0,103,81,0,

101,89,0,103,81,0,

101,88,0,102,80,0,

100,88,0,102,80,0,

99,87,0,102,79,0,

99,87,0,101,79,0,

99,86,0,101,79,0,

99,86,0,100,79,0,

98,86,0,100,79,0,

98,85,1,99,78,0,

97,85,0,99,78,0,

97,85,0,99,77,0,

97,85,0,99,77,0,

96,84,0,98,77,0,

96,83,0,98,77,0,

96,83,0,97,77,0,

96,83,0,97,76,0,

95,83,0,97,76,0,

95,83,0,96,76,0,

94,83,0,96,76,1,

94,82,0,96,75,0,

94,82,0,96,75,0,

93,81,0,95,75,0,

93,81,0,95,75,0,

93,81,0,95,74,0,

92,80,0,94,74,0,

92,80,0,94,74,0,

92,79,0,94,73,0,

91,79,0,93,73,0,

91,79,0,93,73,0,

91,79,0,93,73,1,

90,79,0,92,71,0,

89,78,0,92,71,0,

89,78,0,92,71,0,

89,78,0,91,71,0,

89,78,0,91,71,0,

89,77,0,91,71,0,

88,77,0,91,71,0,

88,77,0,90,71,0,

88,76,0,89,71,0,

87,76,1,89,70,0,

87,76,0,89,70,0,

87,76,0,89,70,0,

87,76,0,88,70,0,

86,75,0,88,69,0,

86,75,0,88,69,0,

85,75,0,88,69,0,

85,74,0,88,69,0,

85,74,0,88,68,0,

84,73,0,87,68,0,

84,73,0,86,67,0,

84,73,0,86,67,0,

83,73,0,86,67,0,

83,73,0,85,67,0,

83,71,0,85,67,0,

83,71,0,85,67,0,

82,71,0,85,67,0,

82,71,0,84,66,0,

81,71,0,84,66,0,

81,71,0,83,66,0,

81,70,0,83,65,0,

81,70,0,83,65,0,

80,70,0,83,65,0,

79,70,0,83,65,0,

79,70,0,82,64,0,

79,69,0,82,64,0,

79,69,0,82,63,0,

79,69,0,81,63,0,

78,69,0,81,63,0,

78,68,0,81,63,0,

78,67,0,81,63,0,

78,67,0,80,63,0,

77,67,0,79,63,0,

77,67,0,79,62,0,

77,67,0,79,62,0,

77,67,0,79,62,0,

76,67,0,79,62,0,

76,66,0,78,62,0,

76,66,0,79,62,0,

75,66,0,78,61,0,

75,65,0,78,61,0,

75,65,0,77,61,0,

75,65,0,77,61,0,

75,65,0,77,60,0,

74,65,0,76,60,0,

73,64,0,76,60,0,

73,63,0,76,60,0,

73,63,0,76,59,0,

73,63,0,75,59,0,

73,63,0,75,59,0,

72,63,0,75,59,0,

71,63,0,75,59,0,

71,62,0,75,58,0,

71,62,0,74,58,0,

71,62,0,74,58,0,

71,63,0,74,57,0,

71,63,0,73,57,0,

71,62,0,73,58,0,

70,62,0,73,57,0,

70,62,0,73,57,0,

70,61,0,71,57,0,

69,62,0,71,56,0,

69,62,0,71,56,0,

69,61,0,71,56,0,

68,61,0,71,56,0,

68,61,0,71,56,0,

68,60,0,71,56,0,

67,60,0,71,56,0,

67,60,0,70,56,0,

67,59,0,70,56,0,

67,60,0,70,55,0,

67,59,0,70,55,0,

67,59,0,69,55,0,

66,59,0,69,54,0,

66,59,0,69,54,0,

66,58,0,69,54,0,

66,58,0,68,53,0,

65,58,0,68,53,0,

65,57,0,68,53,0,

65,57,0,68,53,0,

64,57,0,67,53,0,

64,59,0,67,53,0,

63,67,0,67,52,0,

63,66,0,67,52,0,

63,66,0,66,51,0,

63,66,0,66,51,0,

63,65,0,66,51,0,

63,65,0,66,51,0,

63,64,0,65,51,0,

62,64,0,65,51,0,

62,64,0,65,51,0,

62,63,0,65,51,0,

61,63,0,64,50,0,

61,63,0,65,50,0,

61,63,0,64,50,0,

61,63,0,64,50,0,

62,62,0,63,50,0,

61,62,0,63,50,0,

61,62,0,63,49,0,

61,62,0,63,49,0,

61,61,0,63,49,0,

61,61,0,62,48,0,

60,60,0,62,49,0,

60,61,0,62,49,0,

60,60,0,62,48,0,

60,60,0,62,48,0,

60,60,0,61,48,0,

73,59,0,61,48,0,

73,59,0,61,48,0,

73,59,0,61,48,0,

71,58,0,60,48,0,

71,58,0,60,47,0,

71,58,0,60,47,0,

71,57,0,60,47,0,

71,57,0,60,47,0,

70,57,0,60,46,0,

70,57,0,59,46,0,

70,57,0,59,46,0,

69,57,0,59,46,0,

69,56,0,58,46,0,

69,56,0,58,46,0,

68,56,0,58,46,0,

68,56,0,57,45,0,

67,56,0,57,45,0,

67,55,0,57,45,0,

67,55,0,57,45,0,

67,55,0,57,44,0,

67,54,0,57,45,0,

66,54,0,56,44,0,

66,54,0,57,44,0,

65,54,0,56,44,0,

65,53,0,56,44,0,

65,53,0,56,44,0,

65,53,0,56,44,0,

147,53,0,56,43,0,

146,52,0,56,43,0,

145,52,0,55,43,0,

143,52,0,55,43,0,

143,52,0,55,43,0,

142,51,0,54,43,0,

142,51,0,54,42,0,

141,51,0,54,42,0,

140,51,0,53,42,0,

140,51,0,54,42,0,

139,51,0,53,41,0,

138,51,0,53,41,0,

137,50,0,53,41,0,

137,50,0,53,41,0,

135,50,0,52,41,0,

135,49,0,52,41,0,

135,49,0,52,39,0,

134,49,0,51,40,0,

134,49,0,52,39,0,

133,49,0,51,39,0,

132,48,0,51,39,0,

131,48,0,51,39,0,

131,48,0,51,39,0,

130,48,0,50,39,0,

130,48,0,51,39,0,

129,48,0,50,39,0,

128,48,0,50,39,0,

127,47,0,50,39,0,

127,47,0,49,39,0,

127,47,0,50,39,0,

126,47,0,49,38,0,

126,46,0,49,38,0,

125,46,0,49,38,0,

124,46,0,49,38,0,

124,46,0,48,38,0,

123,46,0,48,38,0,

142,45,0,120,37,0,

141,45,0,172,37,0,

140,45,0,170,37,0,

139,45,0,169,37,0,

138,45,0,167,36,0,

137,44,0,167,37,0,

137,44,0,166,36,0,

135,44,0,165,36,0,

135,44,0,164,36,0,

135,44,0,163,36,0,

134,43,0,162,35,0,

133,43,0,161,35,0,

133,43,0,161,35,0,

131,43,0,159,35,0,

131,43,0,159,35,0,

131,43,0,158,35,0,

130,42,0,158,34,0,

130,42,0,157,35,0,

129,42,0,156,34,0,

127,41,0,155,34,0,

127,41,0,154,34,0,

127,41,0,154,34,0,

126,41,0,153,34,0,

126,41,0,152,34,0,

125,41,0,152,34,0,

125,41,0,151,33,0,

124,39,0,150,34,0,

124,39,0,149,33,0,

123,39,0,149,33,0,

122,39,0,148,33,0,

121,39,0,147,33,0,

121,39,0,146,32,0,

121,39,0,146,33,0,

120,39,0,145,32,0,

120,39,0,144,32,0,

119,39,0,143,31,0,

118,39,0,143,31,0,

123,43,0,143,31,0,

123,43,0,142,31,0,

122,43,0,141,31,0,

121,43,0,141,31,0,

121,42,0,140,31,0,

120,41,0,140,31,0,

120,41,0,139,31,0,

119,41,0,138,31,0,

118,41,0,137,30,0,

118,41,0,137,30,0,

117,41,0,135,30,0,

117,39,0,135,30,0,

116,39,0,135,30,0,

115,39,0,135,30,0,

115,39,0,134,30,0,

115,39,0,133,30,0,

114,39,0,132,30,0,

114,39,0,132,30,0,

113,39,0,131,29,1,

113,39,0,131,29,0,

112,39,0,130,29,0,

111,38,0,130,29,0,

111,38,0,129,29,0,

111,38,0,128,29,0,

110,38,0,127,28,0,

109,38,0,127,28,0,

109,38,0,127,28,0,

109,37,0,126,28,0,

108,37,0,125,28,0,

107,37,0,125,28,0,

107,37,0,124,28,0,

106,36,0,124,28,0,

105,36,0,124,27,0,

105,36,0,123,28,0,

105,36,0,122,27,0,

103,35,0,121,27,0,

103,35,0,121,27,0,

103,35,0,120,27,0,

103,35,0,120,29,0,

103,35,0,120,29,0,

102,35,0,119,29,0,

102,35,0,119,29,0,

101,35,0,118,28,0,

100,34,0,117,28,0,

100,34,0,117,28,0,

99,34,0,117,28,0,

99,34,0,115,28,0,

99,34,0,115,28,0,

98,34,0,115,27,0,

98,34,0,114,27,0,

97,34,0,114,27,0,

97,33,0,113,27,0,

97,33,0,113,27,0,

96,33,0,112,27,0,

96,33,0,112,27,0,

96,33,0,112,26,0,

95,32,0,111,26,0,

94,33,0,111,26,0,

94,32,0,110,26,0,

94,32,0,110,26,0,

93,31,0,110,26,0,

93,31,0,109,26,0,

92,31,0,108,26,0,

92,31,0,108,26,0,

92,31,0,107,25,0,

92,31,0,107,25,0,

91,31,0,107,25,0,

91,31,0,106,25,0,

90,31,0,106,25,0,

89,30,0,105,25,0,

89,31,0,105,25,0,

89,30,0,105,25,0,

89,30,0,103,24,0,

88,30,0,103,24,0,

88,30,0,103,24,0,

88,30,0,103,24,0,

87,30,0,103,24,0,

87,30,0,102,24,0,

86,30,0,102,24,0,

86,30,0,101,24,0,

86,29,0,101,24,0,

85,29,0,100,24,0,

85,29,0,100,24,0,

85,29,0,99,23,0,

84,29,0,99,23,0,

83,28,0,99,23,0,

83,28,0,98,23,0,

83,28,0,98,23,0,

83,28,0,97,23,0,

82,28,0,97,23,0,

82,28,0,97,23,0,

82,28,0,96,23,0,

81,28,0,96,22,0,

81,28,0,96,22,0,

81,28,0,96,22,0,

80,27,0,95,22,0,

79,27,0,94,22,0,

81,27,0,94,22,0,

81,27,0,94,22,0,

80,27,0,94,22,0,

79,27,0,93,21,0,

79,27,0,93,21,0,

79,26,0,92,22,0,

79,26,0,92,21,0,

78,26,0,91,21,0,

78,26,0,91,21,0,

78,26,0,91,21,0,

78,26,0,90,21,0,

77,26,0,90,21,0,

77,25,0,90,21,0,

77,25,0,89,21,0,

76,25,0,89,21,0,

76,25,0,89,21,0,

76,25,0,88,20,0,

75,25,0,88,20,0,

75,25,0,88,20,0,

75,25,0,88,19,0,

74,25,0,88,20,0,

74,25,0,87,20,0,

73,25,0,86,19,0,

73,25,0,86,19,0,

73,24,0,86,19,0,

73,24,0,85,19,0,

73,24,0,85,19,0,

71,24,0,85,19,0,

71,24,0,84,19,0,

71,24,0,84,19,0,

71,24,0,83,19,0,

71,24,0,83,19,0,

71,24,0,83,19,0,

70,24,0,83,19,0,

70,23,0,83,19,0,

70,23,0,82,19,0,

69,23,0,81,19,0,

69,23,0,82,18,0,

69,24,0,81,18,0,

69,23,0,81,18,0,

68,24,0,80,18,0,

68,23,0,80,18,0,

68,23,0,79,18,0,

67,23,0,79,18,0,

67,23,0,79,18,0,

67,22,0,79,18,0,

67,22,0,79,18,0,

67,22,0,78,18,0,

66,22,0,78,17,0,

66,22,0,78,17,0,

66,22,0,77,17,0,

66,21,0,77,17,0,

65,24,0,77,17,0,

65,28,0,77,17,0,

65,27,0,77,17,0,

64,27,0,76,17,0,

64,27,0,76,17,0,

63,27,0,76,17,0,

63,27,0,75,17,0,

63,27,0,75,16,0,

63,26,0,74,16,0,

63,26,0,74,17,0,

62,26,0,74,16,0,

62,26,0,73,16,0,

62,26,0,73,16,0,

62,25,0,73,16,0,

61,25,0,73,16,0,

61,25,0,72,16,0,

61,25,0,71,15,0,

61,25,0,71,16,0,

60,25,0,71,15,0,

60,25,0,71,15,0,

60,24,0,71,15,0,

60,24,0,71,15,0,

59,24,0,71,15,0,

60,24,0,70,15,0,

59,24,0,70,15,0,

71,59,0,70,15,0,

71,63,0,69,15,0,

71,62,0,69,15,0,

71,62,0,69,15,0,

71,61,0,69,15,0,

70,61,0,68,15,0,

70,60,1,68,15,0,

70,60,0,68,15,0,

69,60,0,67,14,0,

69,60,0,67,14,0,

69,59,0,67,14,0,

68,59,0,67,14,0,

68,59,0,67,15,0,

67,59,0,66,14,0,

67,58,0,66,14,0,

67,57,0,66,14,0,

67,57,0,65,14,0,

66,57,0,65,14,0,

66,57,0,65,14,0,

66,57,0,64,14,0,

65,56,0,65,14,0,

65,56,0,64,14,0,

65,56,0,64,14,0,

65,56,0,63,14,0,

64,56,0,63,13,0,

64,55,0,63,13,0,

63,55,0,63,13,0,

63,54,0,62,13,1,

63,54,0,62,13,0,

63,54,0,62,13,0,

62,53,0,62,13,0,

62,54,0,62,13,0,

62,53,0,61,13,0,

62,53,0,61,13,0,

61,53,0,61,13,0,

61,52,0,61,13,0,

61,52,0,61,13,0,

61,52,0,60,13,0,

60,51,0,60,12,0,

60,51,0,60,13,0,

60,51,0,60,13,0,

60,51,0,59,12,0,

59,51,0,59,12,0,

59,50,0,59,12,0,

59,50,0,59,12,0,

59,50,0,59,13,0,

58,50,0,58,12,0,

58,49,0,58,12,0,

58,49,0,58,12,0,

57,49,0,57,12,0,

57,48,0,57,12,0,

57,49,0,57,12,0,

57,48,0,57,12,0,

57,52,0,57,12,0,

57,53,0,56,12,0,

57,52,0,56,12,0,

56,53,0,56,12,0,

56,52,0,56,12,0,

56,51,0,56,11,0,

56,51,0,56,11,0,

56,51,0,55,11,0,

56,51,0,55,11,0,

55,51,0,55,11,0,

55,51,0,54,11,0,

54,50,0,54,11,0,

59,63,0,54,11,0,

59,67,0,54,11,0,

58,67,0,54,11,0,

58,67,0,53,11,0,

58,66,0,53,11,0,

57,66,0,53,11,0,

57,66,0,53,10,0,

57,65,0,53,11,0,

57,65,0,52,10,0,

56,64,0,52,11,0,

56,64,0,52,11,0,

56,63,0,51,10,0,

56,63,0,51,10,0,

56,63,0,51,10,0,

56,74,0,51,10,0,

56,73,0,51,10,0,

56,74,0,51,10,0,

56,73,0,50,10,1,

55,73,0,50,10,0,

55,73,0,50,9,0,

55,71,0,50,9,0,

55,71,0,49,9,0,

54,71,0,49,10,0,

54,71,0,49,9,0,

54,71,0,49,9,0,

54,71,0,49,9,0,

53,70,0,48,9,0,

53,73,0,48,10,0,

53,73,0,48,9,0,

53,73,0,48,9,0,

52,73,0,48,9,0,

52,73,0,48,9,0,

51,71,0,48,9,0,

52,71,0,48,9,0,

51,71,0,47,9,0,

51,71,0,47,9,0,

51,71,0,47,9,0,

51,71,0,47,9,0,

51,71,0,46,9,0,

51,70,0,47,9,0,

50,70,0,46,9,0,

52,70,0,46,9,0,

52,70,0,46,9,0,

52,70,0,46,9,0,

51,70,0,45,8,0,

51,69,0,45,9,0,

51,69,0,45,9,0,

51,69,0,45,9,0,

51,68,0,45,9,0,

51,68,0,45,7,0,

51,67,0,45,7,0,

50,67,0,45,7,0,

50,67,0,44,7,1,

50,67,0,44,7,0,

51,66,0,44,7,0,

54,78,0,44,7,0,

54,81,0,43,7,0,

53,81,0,44,7,0,

53,80,0,44,7,0,

53,79,0,43,7,0,

52,79,0,43,7,0,

52,79,0,43,7,0,

51,79,0,43,7,0,

51,78,0,42,7,0,

51,78,0,42,7,0,

51,78,0,42,7,0,

51,77,0,42,7,0,

51,77,0,42,7,0,

50,77,0,42,7,0,

51,76,0,41,7,0,

51,76,0,41,7,0,

51,76,0,41,7,0,

51,76,0,41,7,0,

50,75,0,41,7,0,

50,75,0,41,7,0,

50,75,0,41,7,0,

50,73,0,39,7,0,

50,73,0,39,7,0,

49,73,0,39,7,0,

49,73,0,39,7,0,

49,73,0,39,7,0,

49,71,0,39,7,0,

54,73,0,39,7,0,

54,73,0,39,7,0,

54,73,0,39,7,0,

54,71,0,39,7,0,

53,71,0,39,7,0,

53,71,0,39,7,0,

53,71,0,39,7,0,

53,71,0,39,7,0,

52,71,0,38,7,0,

52,71,0,39,7,0,

51,70,0,38,7,0,

52,70,0,39,6,0,

51,70,0,38,6,0,

51,69,0,38,6,0,

51,69,0,38,7,0,

51,68,0,38,6,0,

51,68,0,38,6,0,

50,68,0,38,6,0,

50,68,0,38,6,0,

49,67,0,37,6,0,

49,67,0,37,6,0,

49,67,0,37,6,0,

49,67,0,37,6,0,

49,66,0,37,6,0,

48,66,0,36,6,0,

48,66,0,36,6,0,

48,65,0,36,6,0,

48,65,0,36,6,0,

74,83,0,36,6,0,

85,88,0,36,6,0,

84,88,0,36,6,0,

83,88,0,36,6,0,

83,88,0,35,6,0,

83,87,0,35,6,0,

83,86,0,35,6,0,

82,86,0,35,6,0,

82,85,0,35,6,0,

81,84,0,35,6,0,

81,84,0,35,5,0,

80,84,0,35,6,0,

80,84,0,34,6,0,

79,83,0,34,5,0,

79,83,0,34,5,0,

79,83,0,34,5,0,

79,82,0,34,6,0,

78,82,0,34,5,0,

78,81,0,34,5,0,

78,81,0,34,5,0,

77,81,0,33,6,0,

77,80,0,33,5,0,

77,79,0,33,5,0,

76,79,0,33,5,0,

76,79,0,32,5,0,

76,79,0,32,5,0,

75,79,0,33,5,0,

76,92,0,33,5,0,

75,93,0,32,5,0,

75,93,0,32,5,0,

74,93,0,32,5,0,

74,92,0,31,5,0,

73,92,0,31,5,0,

73,91,0,31,5,0,

73,91,0,31,5,0,

71,90,0,31,4,0,

71,90,0,31,5,0,

71,89,0,31,5,0,

71,89,0,31,4,0,

71,88,0,31,5,0,

71,88,0,31,5,0,

71,88,0,30,5,0,

71,88,0,34,5,0,

70,87,0,34,4,0,

70,87,0,33,5,0,

70,87,0,33,5,0,

69,86,0,33,4,0,

69,86,0,33,4,0,

69,85,0,33,4,0,

69,85,0,33,5,0,

68,84,0,32,4,0,

67,84,0,33,4,0,

67,83,0,32,4,0,

67,83,0,31,4,0,

67,83,0,31,4,0,

67,83,0,31,5,0,

67,82,0,31,4,0,

66,82,0,31,4,0,

66,81,0,31,4,0,

65,81,0,31,4,0,

65,81,0,31,4,0,

65,80,0,31,4,0,

65,80,0,31,4,0,

64,79,0,31,4,0,

64,79,0,31,4,0,

63,79,0,30,3,0,

63,79,0,30,3,0,

63,78,0,30,3,0,

63,78,0,30,4,0,

63,78,0,30,4,0,

62,77,0,30,4,0,

62,77,0,30,3,0,

62,77,0,30,3,0,

62,77,0,30,3,0,

61,76,0,29,3,0,

61,76,0,30,4,0,

61,76,0,29,4,0,

61,75,0,29,3,0,

61,75,0,29,3,0,

60,75,0,29,3,0,

60,74,0,29,3,0,

60,74,0,29,3,0,

60,73,0,29,3,0,

70,73,0,28,3,0,

69,73,0,29,4,0,

69,73,0,28,3,0,

69,71,0,28,3,0,

68,71,0,28,3,0,

68,71,0,28,3,0,

68,71,0,28,3,0,

67,71,0,28,4,0,

67,71,0,28,3,0,

67,71,0,27,3,0,

67,70,0,27,3,0,

66,70,0,27,3,0,

66,70,0,27,3,0,

66,69,0,27,3,0,

71,73,0,27,3,0,

76,76,0,27,3,0,

76,76,0,27,3,0,

75,76,0,27,3,0,

75,75,0,27,3,0,

75,75,0,27,4,0,

74,74,0,27,3,0,

73,74,0,26,3,0,

73,73,0,26,3,0,

73,73,0,26,3,0,

73,73,0,26,3,0,

71,73,0,26,3,0,

71,72,0,26,3,0,

71,71,0,26,3,0,

71,71,0,27,3,0,

71,71,0,34,3,0,

71,71,0,34,3,0,

71,71,0,34,3,0,

70,71,0,34,3,0,

70,71,0,33,3,0,

70,70,0,33,3,0,

69,70,0,33,3,0,

69,69,0,33,3,0,

68,69,0,33,3,0,

68,69,0,32,3,0,

68,69,0,33,3,0,

67,68,0,32,3,0,

67,68,0,32,3,0,

67,67,0,32,3,0,

67,67,0,31,3,0,

67,67,0,31,3,0,

66,67,0,31,3,0,

66,67,0,31,3,0,

66,66,0,31,2,0,

66,66,0,31,3,0,

65,66,0,31,3,0,

65,65,0,31,3,0,

65,65,0,31,3,0,

64,65,0,30,2,0,

64,64,0,30,3,0,

63,64,0,30,3,0,

63,64,0,31,3,0,

63,64,0,48,2,0,

63,64,0,48,3,0,

63,63,0,48,3,1,

62,63,0,48,2,0,

62,63,0,48,2,0,

62,63,0,47,2,0,

62,62,0,47,3,0,

61,62,0,47,2,0,

61,62,0,46,2,0,

61,62,0,46,2,0,

61,62,0,46,2,0,

61,61,0,46,2,0,

60,61,0,46,2,0,

60,61,0,52,2,0,

60,60,0,52,2,0,

60,60,0,51,2,0,

60,60,0,51,3,0,

59,60,0,51,2,0,

59,59,0,51,2,0,

58,59,0,50,2,0,

58,59,0,50,2,0,

58,58,0,50,2,0,

58,58,0,50,2,0,

57,58,0,49,2,0,

57,58,0,49,2,0,

57,57,0,49,2,0,

56,57,0,49,2,0,

57,57,0,48,2,0,

57,57,0,48,2,0,

57,57,0,48,2,0,

56,57,0,48,2,0,

56,56,0,48,2,0,

56,56,0,47,2,0,

56,56,0,47,3,0,

56,56,0,47,2,0,

56,56,0,46,2,0,

55,55,0,46,2,0,

55,55,0,46,2,0,

55,55,0,46,2,0,

54,54,0,46,2,0,

54,54,0,46,2,0,

54,54,0,46,2,0,

54,54,0,45,2,0,

53,54,0,45,2,0,

53,54,0,45,2,0,

53,53,0,45,2,0,

52,53,0,44,2,0,

53,52,0,44,2,0,

52,53,0,44,2,0,

52,52,0,44,2,0,

52,52,0,44,3,0,

51,51,0,44,3,0,

52,51,0,43,3,0,

51,51,0,43,3,0,

51,51,0,43,2,0,

51,51,0,43,3,0,

50,51,0,42,3,0,

50,51,0,43,2,0,

50,50,0,42,2,0,

50,50,0,42,3,0,

49,50,0,42,3,0,

49,50,0,42,3,0,

50,49,0,41,3,0,

49,49,0,41,2,0,

49,49,0,41,2,0,

49,49,0,41,3,0,

48,49,0,41,2,0,

48,48,0,41,3,0,

51,48,0,39,3,0,

50,48,0,40,2,0,

50,48,0,39,2,0,

50,48,0,39,2,0,

49,48,0,39,2,0,

49,47,0,39,2,0,

49,47,0,39,2,0,

49,46,0,39,2,0,

49,46,0,39,2,0,

48,46,0,39,2,0,

48,46,0,39,2,0,

48,46,0,39,2,0,

48,46,0,38,3,0,

48,46,0,38,2,0,

50,48,0,38,2,0,

50,57,0,38,2,0,

50,57,0,38,2,0,

50,57,0,38,2,0,

49,56,0,38,2,0,

49,56,0,37,2,0,

49,56,0,37,2,0,

49,56,0,37,2,0,

48,55,0,37,2,0,

48,55,0,36,2,0,

48,55,0,36,2,0,

48,54,0,36,2,0,

48,54,0,35,2,0,

47,54,0,36,2,0,

47,53,0,35,2,0,

47,53,0,38,2,0,

47,53,0,38,2,0,

46,53,0,38,2,0,

46,53,0,38,2,0,

46,52,0,38,2,0,

46,52,0,38,2,0,

46,52,0,37,2,0,

45,51,0,37,2,0,

45,51,0,37,2,0,

45,51,0,37,2,0,

45,51,0,36,2,0,

45,51,0,37,2,0,

45,50,0,36,2,0,

51,51,0,36,2,0,

73,51,0,36,2,0,

71,51,0,35,2,0,

71,50,0,35,2,0,

71,50,0,35,2,0,

71,50,0,35,3,0,

71,49,0,35,2,0,

71,49,0,35,1,0,

70,49,0,35,2,0,

70,49,0,35,2,0,

70,49,0,34,2,0,

69,48,0,34,1,0,

69,48,0,34,2,0,

68,48,0,34,2,0,

73,49,0,36,2,0,

73,49,0,36,2,0,

71,49,0,35,2,0,

71,48,0,35,1,0,

71,48,0,35,2,0,

71,48,0,35,2,0,

71,48,0,35,2,0,

71,48,0,35,2,1,

70,48,0,35,1,0,

70,48,0,35,2,0,

70,47,0,34,1,0,

69,47,0,34,1,0,

69,47,0,34,2,0,

69,46,0,56,1,0,

69,46,0,100,1,0,

69,46,0,100,1,0,

68,46,0,99,1,0,

68,46,0,98,1,0,

67,46,0,98,2,0,

67,45,0,98,2,0,

67,45,0,97,1,0,

67,45,0,97,1,0,

66,44,0,96,1,0,

66,44,0,96,2,0,

66,44,0,96,1,0,

66,44,0,95,1,0,

65,44,0,94,2,0,

65,44,0,94,1,0,

65,44,0,93,1,0,

64,44,0,93,1,0,

65,43,0,93,1,0,

64,43,0,92,2,0,

63,43,0,92,1,0,

63,43,0,92,1,0,

63,42,0,91,1,0,

63,42,0,91,1,0,

62,42,0,90,1,0,

62,42,0,90,1,0,

62,41,0,90,1,0,

62,41,0,89,1,0,

62,41,0,89,1,0,

61,41,0,89,1,0,

61,41,0,88,1,0,

61,41,0,88,1,0,

61,41,0,88,1,0,

60,41,0,87,1,0,

60,41,0,87,1,0,

60,41,0,86,1,0,

59,39,0,86,1,0,

59,39,0,86,1,0,

59,39,0,85,1,0,

59,39,0,85,1,0,

58,39,0,85,1,0,

58,39,0,84,1,0,

58,39,0,84,1,0,

58,39,0,83,1,0,

59,41,0,83,1,0,

58,41,0,83,1,0,

58,41,0,83,1,0,

58,41,0,82,1,0,

57,41,0,82,1,0,

57,41,0,82,2,0,

57,39,0,81,1,0,

57,39,0,80,1,0,

57,39,0,80,1,0,

56,39,0,79,1,0,

56,39,0,79,1,0,

56,39,0,79,1,0,

56,39,0,79,1,0,

56,39,0,79,1,0,

56,39,0,79,1,0,

55,39,0,78,1,0,

55,39,0,78,1,0,

54,39,0,77,2,0,

54,38,0,77,1,0,

54,38,0,77,1,0,

