
49,19,3,49,24,4,

50,18,3,50,24,4,

49,18,4,49,23,4,

49,18,3,49,23,4,

49,19,3,48,23,4,

49,18,4,48,23,3,

49,18,3,48,23,4,

48,18,3,49,22,4,

48,18,3,48,23,3,

48,18,3,48,23,3,

48,17,4,47,24,3,

47,18,3,47,23,4,

47,17,3,48,22,3,

47,17,3,46,22,4,

47,17,3,46,21,4,

46,17,3,46,22,3,

46,17,3,46,21,3,

46,18,4,46,22,3,

46,18,3,46,23,3,

46,17,3,45,21,4,

46,17,3,45,21,3,

45,17,3,45,22,3,

46,17,4,45,21,4,

45,17,3,45,21,3,

45,16,5,44,21,4,

45,16,4,44,21,4,

45,16,4,44,21,3,

45,16,4,44,20,4,

45,16,4,44,63,4,

44,16,3,45,66,4,

57,16,4,45,65,3,

60,16,4,45,64,3,

60,16,4,43,63,3,

59,16,3,44,63,3,

59,16,3,43,63,4,

59,16,3,43,63,4,

59,16,3,43,63,3,

58,15,3,43,62,3,

58,15,4,43,61,3,

57,15,4,43,61,3,

57,15,3,42,61,3,

57,15,3,42,60,4,

56,15,4,42,60,4,

56,15,3,42,60,3,

56,15,4,42,60,4,

56,15,4,41,60,3,

56,15,3,41,59,3,

56,15,3,41,59,4,

55,15,4,41,59,4,

55,15,3,41,59,3,

55,15,3,41,58,4,

55,15,3,39,58,3,

53,15,4,39,57,3,

54,15,3,39,58,3,

53,15,3,39,58,4,

53,14,3,39,57,3,

54,15,3,39,57,4,

54,16,3,39,56,4,

52,15,3,39,57,4,

53,16,3,39,56,3,

52,16,4,39,56,3,

52,15,3,38,56,3,

52,15,3,38,56,4,

51,15,4,39,55,3,

51,15,4,38,55,3,

51,15,3,39,55,4,

51,15,3,38,54,3,

50,15,4,37,54,3,

50,14,3,37,53,3,

50,15,4,37,54,3,

50,15,4,37,53,3,

49,14,3,37,53,3,

50,15,4,37,52,3,

49,15,3,36,52,3,

49,15,3,37,53,3,

49,14,3,36,51,3,

48,14,3,37,51,3,

48,15,3,37,51,4,

48,14,3,36,51,4,

48,15,3,36,51,3,

48,14,3,35,51,4,

47,14,4,35,50,4,

47,14,3,35,51,3,

46,14,3,35,51,3,

46,14,3,35,50,3,

47,14,3,34,50,4,

46,13,4,35,50,3,

46,14,4,35,49,5,

46,14,3,35,49,3,

46,13,3,34,48,3,

45,13,3,34,49,4,

46,14,3,33,48,3,

45,13,3,33,48,3,

45,13,3,35,48,4,

45,13,4,33,48,3,

45,14,4,34,48,4,

48,14,3,34,48,3,

47,14,4,34,47,3,

47,13,3,33,47,3,

47,14,4,32,48,3,

46,13,4,33,46,4,

47,14,3,33,46,3,

46,14,4,31,46,4,

46,13,3,31,46,5,

46,13,3,31,45,3,

45,13,4,31,45,3,

45,13,4,31,45,4,

45,13,4,31,45,4,

45,15,3,32,44,3,

46,15,3,31,45,3,

45,15,4,31,45,4,

46,15,3,31,44,4,

44,15,3,31,44,4,

44,15,4,30,44,3,

44,15,3,30,44,3,

44,15,4,31,44,4,

44,15,3,30,44,3,

44,15,3,30,44,4,

44,15,3,30,43,3,

44,15,3,30,42,3,

43,14,4,30,42,3,

43,15,4,29,43,3,

42,14,4,29,42,3,

42,15,4,30,41,4,

43,15,3,29,42,3,

42,14,3,29,42,5,

41,14,4,30,41,4,

42,14,3,29,41,3,

42,14,3,29,41,3,

42,14,3,29,41,3,

41,14,3,29,41,4,

41,14,3,28,39,3,

41,14,4,28,39,4,

41,14,4,33,39,4,

39,14,3,34,39,3,

46,18,3,33,39,3,

45,19,3,33,39,3,

45,18,3,33,39,4,

45,19,3,33,39,4,

44,19,4,32,39,4,

44,18,4,32,39,4,

44,18,3,32,39,4,

44,18,3,31,39,4,

43,19,3,32,38,3,

44,18,4,31,39,3,

44,18,4,33,38,3,

43,18,4,34,38,3,

43,18,3,34,37,3,

43,19,4,33,37,3,

42,19,4,33,37,3,

42,19,4,32,37,4,

42,19,3,32,37,4,

43,19,4,31,36,4,

41,18,3,32,36,4,

41,18,3,32,36,4,

41,18,3,31,36,4,

41,18,3,32,36,4,

41,18,3,31,36,4,

41,17,4,31,36,4,

41,17,3,31,36,4,

41,18,4,31,35,3,

41,17,4,31,35,4,

41,19,4,31,35,3,

41,20,3,30,35,3,

41,19,3,31,35,3,

42,19,3,30,34,4,

40,19,3,30,35,3,

40,19,4,30,35,3,

39,19,4,30,34,3,

40,19,3,29,33,4,

39,19,3,30,34,3,

39,19,4,29,34,3,

39,18,3,29,34,4,

39,18,3,29,34,3,

39,18,3,29,33,4,

40,19,3,29,33,3,

41,18,3,29,33,4,

39,18,3,29,33,4,

39,18,5,29,33,3,

39,18,3,29,33,3,

39,17,3,29,32,4,

39,18,3,28,32,4,

39,17,4,28,31,4,

39,17,3,29,31,3,

39,17,4,28,31,3,

39,17,3,44,35,4,

38,17,4,45,36,4,

38,18,4,44,36,3,

39,18,3,44,35,3,

38,18,3,44,36,4,

38,18,4,44,36,3,

38,18,3,43,35,3,

39,18,4,43,35,4,

38,18,3,43,35,5,

38,18,3,42,35,3,

38,17,4,45,35,4,

37,17,3,45,35,3,

36,17,3,45,34,3,

37,17,3,45,34,3,

36,17,3,45,34,4,

44,18,3,45,35,5,

43,19,3,44,34,4,

43,18,3,44,34,4,

43,18,4,44,34,3,

42,17,3,43,33,3,

42,18,4,43,33,3,

42,17,3,43,33,4,

42,18,3,43,33,3,

41,17,3,43,33,3,

42,18,4,42,33,4,

41,17,3,43,32,3,

41,18,3,43,33,3,

40,17,4,41,48,4,

44,39,4,105,50,5,

44,41,4,150,49,3,

45,40,3,148,48,4,

44,39,3,147,48,4,

43,39,4,147,51,3,

44,39,3,145,51,4,

43,39,3,144,51,3,

43,39,4,143,51,3,

43,39,4,143,50,3,

43,38,3,143,51,4,

42,39,3,142,50,5,

43,38,4,141,50,3,

43,39,3,141,50,4,

49,38,4,140,50,4,

48,39,4,140,49,3,

48,37,3,138,49,3,

47,38,4,138,49,4,

48,37,3,137,49,3,

47,38,3,137,49,4,

46,38,3,135,48,3,

47,37,3,135,48,3,

47,37,3,135,48,4,

46,37,3,135,48,4,

46,36,4,134,109,3,

46,37,4,134,197,5,

77,36,5,133,211,3,

76,44,3,132,209,3,

76,44,4,131,259,3,

75,54,4,130,255,3,

74,54,4,130,254,3,

74,54,4,129,253,4,

74,52,4,129,250,4,

73,52,4,127,249,3,

73,51,4,128,248,3,

72,51,4,127,247,3,

71,51,3,127,245,3,

71,51,3,125,244,3,

71,51,4,125,242,4,

71,50,3,125,241,3,

71,51,3,124,240,3,

70,50,3,124,239,3,

69,50,3,123,237,4,

69,50,4,122,236,3,

69,48,3,122,235,4,

69,49,4,122,234,3,

68,49,3,121,233,3,

68,49,4,120,231,4,

68,48,4,120,230,3,

67,49,3,120,230,4,

67,48,3,119,228,3,

67,47,3,118,227,3,

67,47,3,117,226,4,

66,48,3,118,224,3,

66,47,3,116,224,4,

65,46,4,116,223,3,

65,46,3,116,222,3,

64,46,4,115,220,4,

63,46,3,115,220,3,

63,45,4,114,219,4,

64,60,5,114,218,4,

124,145,3,113,216,4,

127,152,3,112,215,3,

127,150,4,112,291,3,

126,150,3,112,386,4,

125,147,3,110,382,3,

124,146,3,110,379,3,

124,145,4,110,376,5,

123,145,5,109,373,4,

122,145,3,109,371,5,

122,143,4,108,369,4,

137,143,4,109,367,4,

224,142,4,108,364,3,

222,141,5,107,362,4,

220,141,3,106,359,5,

219,139,3,106,358,5,

217,139,4,105,355,5,

216,137,4,105,353,3,

215,137,4,103,351,3,

214,135,4,103,349,4,

211,135,5,103,346,4,

211,135,4,103,345,4,

210,134,5,103,343,4,

208,134,4,102,340,5,

207,133,5,101,338,5,

206,132,5,101,336,5,

205,131,3,100,335,4,

204,130,4,99,332,5,

202,130,5,100,330,4,

202,129,4,99,334,4,

199,129,4,99,332,4,

199,127,4,98,330,5,

199,127,5,98,327,5,

198,127,5,97,327,5,

196,127,4,109,324,5,

195,125,5,109,322,4,

195,125,4,109,320,4,

193,124,5,107,319,5,

193,124,4,107,317,5,

192,122,5,106,316,4,

190,122,4,106,313,5,

189,121,5,105,312,4,

188,121,5,105,310,4,

188,121,5,103,308,5,

187,120,5,103,307,4,

185,119,4,103,305,5,

185,120,5,102,304,5,

184,119,5,102,302,5,

183,117,4,101,300,5,

182,117,5,101,299,4,

181,117,5,100,297,5,

179,115,5,120,295,4,

179,115,5,122,294,5,

178,115,5,121,292,5,

178,115,5,121,291,5,

177,170,5,120,289,4,

175,167,6,119,287,6,

175,167,5,118,286,5,

174,166,5,118,284,5,

173,165,5,118,283,5,

172,164,5,116,282,5,

171,163,5,115,281,6,

170,163,6,115,280,5,

170,161,5,115,279,5,

167,159,4,114,276,5,

167,159,5,114,275,5,

167,158,5,113,274,5,

166,158,6,113,272,5,

165,157,6,112,271,5,

164,156,5,112,270,5,

163,155,5,111,268,5,

163,155,6,111,268,6,

162,153,6,109,266,5,

161,153,6,109,263,5,

160,152,5,109,263,5,

159,152,6,109,262,6,

159,150,5,108,261,5,

158,178,6,107,259,5,

158,177,5,106,258,5,

157,176,5,106,257,6,

156,174,6,106,255,6,

155,174,5,105,254,5,

154,173,6,103,252,6,

153,172,5,103,251,7,

153,171,5,103,249,5,

152,169,5,103,249,5,

151,169,6,103,248,6,

151,167,5,102,247,6,

151,167,5,103,246,5,

150,166,5,102,244,5,

149,165,5,102,243,6,

148,164,5,101,241,6,

147,163,6,100,241,6,

146,163,6,100,239,5,

146,161,5,100,238,6,

145,161,5,99,237,5,

145,159,6,99,236,5,

143,159,5,98,235,5,

143,158,5,97,233,5,

142,158,5,98,233,5,

142,156,6,97,231,5,

141,156,6,96,231,6,

140,155,6,96,230,5,

140,154,5,96,228,5,

139,153,5,95,227,5,

138,153,5,94,226,5,

138,152,6,95,225,5,

137,152,5,94,224,5,

135,151,6,93,223,5,

135,149,5,93,222,5,

135,150,5,93,221,5,

135,148,5,92,220,5,

134,147,6,92,219,5,

134,147,6,92,218,5,

133,146,6,91,217,6,

132,145,5,90,216,6,

132,145,5,90,215,5,

131,143,5,89,217,5,

131,143,5,89,355,5,

130,143,5,88,396,5,

130,157,6,88,393,5,

129,156,5,88,389,5,

128,156,5,88,387,5,

127,154,6,87,384,5,

127,154,5,88,383,5,

126,153,5,103,380,5,

126,152,5,102,377,5,

126,151,5,102,374,5,

124,151,5,102,371,4,

124,150,5,101,370,5,

124,175,5,100,368,5,

124,208,5,99,365,5,

123,207,5,99,363,5,

122,206,5,98,361,5,

121,205,4,98,359,5,

121,203,5,97,357,5,

120,202,5,97,354,4,

120,201,5,96,353,5,

119,199,5,96,351,5,

119,199,5,95,349,5,

118,198,5,95,347,5,

118,197,5,130,345,6,

118,196,5,135,343,5,

116,195,5,135,341,5,

116,194,5,135,339,5,

115,193,5,134,337,5,

115,192,4,133,335,5,

114,191,5,132,334,5,

114,190,4,132,332,4,

114,189,5,131,329,4,

113,188,5,130,327,5,

112,187,5,129,326,5,

112,186,5,129,324,5,

111,184,4,127,322,4,

110,184,5,127,397,5,

110,183,4,127,422,5,

110,182,5,126,418,4,

109,181,4,126,414,5,

109,180,5,124,412,4,

108,179,5,125,408,5,

108,178,5,124,406,4,

107,177,5,123,403,4,

107,177,4,123,400,5,

106,176,4,122,398,5,

106,175,5,122,396,5,

105,174,4,121,391,5,

105,174,5,120,391,4,

105,172,4,120,387,5,

103,171,5,121,385,5,

103,171,6,206,384,6,

103,169,5,322,381,4,

102,169,5,349,379,4,

102,167,5,345,376,5,

102,167,5,382,374,5,

101,187,4,415,371,5,

101,185,4,412,370,5,

100,185,5,408,367,5,

99,184,5,406,364,5,

99,183,5,403,363,5,

99,182,5,401,361,5,

99,180,5,399,359,5,

98,179,5,405,357,5,

98,178,5,403,355,5,

98,177,5,399,353,5,

97,177,5,398,352,5,

97,176,5,395,348,5,

96,175,5,391,347,5,

96,174,5,390,345,5,

96,174,5,387,344,5,

94,172,4,385,341,5,

94,172,5,384,340,5,

94,171,5,381,338,5,

94,169,5,379,441,5,

94,169,6,376,503,4,

93,167,5,375,497,5,

92,167,5,371,495,5,

93,166,6,371,491,5,

92,194,5,368,486,5,

114,193,5,366,483,6,

231,192,5,364,481,5,

343,192,5,361,477,5,

419,190,5,359,473,5,

415,189,5,358,470,6,

412,188,6,355,467,6,

408,186,5,353,463,5,

405,185,6,352,460,5,

402,185,5,350,457,5,

399,184,5,348,454,6,

397,183,6,345,451,6,

395,182,6,344,448,5,

391,180,6,342,445,5,

389,179,6,339,442,5,

386,179,5,339,440,5,

384,178,5,335,436,5,

382,177,6,335,434,6,

380,176,6,332,432,6,

377,175,6,331,429,5,

375,174,6,329,425,6,

372,174,6,327,423,6,

370,172,7,325,420,5,

368,171,5,323,417,6,

366,170,5,322,415,6,

364,169,5,320,412,5,

361,167,5,319,409,6,

359,167,6,316,408,5,

357,167,6,315,404,5,

355,166,5,313,402,6,

352,165,6,312,400,6,

351,164,6,311,398,6,

349,255,6,309,396,6,

347,297,6,307,393,6,

344,295,5,305,391,6,

343,291,6,304,388,6,

341,291,6,302,387,5,

339,287,6,301,384,6,

337,287,6,299,382,6,

335,285,6,297,380,6,

333,283,6,295,377,6,

331,281,6,295,375,6,

329,280,6,293,374,6,

327,278,6,291,370,6,

326,277,6,290,368,6,

324,275,6,289,367,6,

323,273,6,287,365,6,

321,273,6,286,363,7,

319,271,7,284,359,6,

317,270,6,284,359,6,

316,268,6,282,356,7,

314,266,7,281,355,6,

312,265,6,279,353,6,

312,263,7,278,351,7,

309,263,6,276,349,6,

307,261,7,275,348,6,

306,259,6,274,345,6,

304,258,6,272,344,7,

302,256,7,271,341,6,

301,255,7,270,339,7,

300,254,7,268,338,7,

297,252,7,268,335,7,

295,250,6,266,334,7,

295,249,7,265,332,7,

293,248,7,263,331,6,

291,247,7,262,329,7,

290,246,7,262,327,7,

288,244,7,260,325,7,

287,243,7,258,323,6,

286,241,7,257,322,7,

284,240,7,255,319,7,

283,239,7,255,319,7,

281,238,6,253,317,7,

280,236,7,252,316,7,

278,236,7,251,313,6,

277,235,7,250,312,7,

275,233,7,249,311,7,

274,231,7,267,309,7,

273,231,7,333,307,7,

271,230,7,331,305,7,

270,228,7,329,305,7,

269,227,7,327,302,7,

268,227,7,325,302,7,

267,225,7,323,300,7,

265,224,7,320,298,7,

263,223,7,319,295,7,

262,222,7,318,295,7,

261,221,7,316,294,7,

259,219,7,314,293,7,

258,219,7,312,291,7,

257,217,7,310,289,7,

255,216,7,308,287,7,

255,216,7,306,287,7,

253,214,7,304,285,7,

252,213,7,304,284,7,

251,211,7,301,283,7,

249,211,7,300,281,7,

248,210,7,297,280,7,

247,209,7,297,278,7,

246,208,7,295,277,7,

245,207,7,293,275,7,

243,206,7,291,274,7,

242,204,7,290,273,7,

241,203,7,288,271,7,

240,203,7,287,270,7,

239,201,7,286,269,7,

237,201,7,284,268,7,

237,199,7,283,381,7,

235,199,7,281,379,7,

235,198,7,280,377,7,

233,197,7,278,373,7,

231,196,7,276,371,7,

231,195,7,275,368,7,

295,194,7,273,366,7,

364,194,7,271,364,7,

359,192,7,271,361,7,

359,191,7,269,359,7,

355,191,7,268,417,7,

353,190,7,266,472,7,

351,188,7,265,468,7,

349,187,7,263,463,7,

347,187,7,263,462,7,

345,185,7,261,458,7,

343,185,7,260,455,7,

340,184,7,259,451,7,

338,184,7,257,448,7,

335,182,7,255,446,7,

334,181,7,255,443,7,

332,181,7,253,440,7,

331,180,7,252,437,7,

329,179,7,251,434,7,

327,179,7,250,431,7,

325,178,7,294,517,7,

323,178,7,356,598,7,

321,176,7,353,590,7,

319,176,7,352,585,7,

318,175,7,371,579,7,

316,173,7,445,575,7,

314,173,7,440,571,7,

312,172,7,436,566,7,

310,171,7,434,561,7,

309,170,7,431,556,7,

307,169,7,428,553,7,

305,167,7,423,548,7,

304,167,7,423,543,7,

302,167,7,441,540,7,

300,166,7,439,536,7,

298,165,7,435,532,7,

297,164,6,432,529,7,

295,164,7,430,524,7,

297,163,7,426,521,7,

295,163,7,465,517,7,

294,161,6,462,517,7,

291,161,7,459,558,7,

290,159,7,455,554,7,

289,159,6,451,549,7,

287,159,7,449,544,7,

408,158,7,446,541,7,

551,158,6,509,537,7,

545,157,6,585,533,7,

540,156,7,581,527,6,

536,155,6,575,524,6,

531,155,6,570,521,7,

527,153,6,565,516,6,

523,152,6,560,512,7,

519,185,7,557,508,6,

515,184,7,553,505,6,

511,183,6,548,504,7,

507,181,6,543,573,7,

504,180,6,541,568,7,

500,179,6,537,562,7,

497,241,7,533,559,7,

493,300,7,528,554,6,

490,298,7,526,550,7,

547,295,6,579,545,7,

542,294,7,688,542,7,

537,291,6,679,537,7,

533,289,7,675,533,7,

529,288,6,668,528,6,

525,286,6,662,526,6,

521,284,6,655,521,6,

518,283,7,651,517,6,

514,281,6,645,513,6,

510,281,6,639,511,6,

505,278,6,633,506,6,

502,277,6,630,503,7,

502,275,6,624,499,7,

499,274,6,619,496,7,

495,271,6,614,492,6,

491,270,6,609,489,7,

487,268,7,605,486,7,

484,268,6,599,483,6,

481,266,6,594,479,6,

478,263,6,590,476,6,

475,263,7,587,473,6,

473,262,6,582,471,7,

470,261,6,577,468,6,

467,259,6,573,464,7,

463,258,6,569,461,7,

460,257,7,565,459,7,

457,255,6,561,455,7,

455,254,6,556,453,7,

451,253,7,553,450,7,

448,251,7,550,448,6,

446,249,6,545,445,7,

443,249,7,542,441,7,

440,247,6,538,439,6,

437,246,6,534,437,7,

435,245,6,531,435,7,

432,243,7,527,431,7,

430,242,7,524,428,7,

427,241,7,519,426,7,

423,240,7,516,423,7,

423,238,7,513,555,7,

419,237,7,509,556,7,

415,236,7,506,551,7,

414,235,7,502,547,7,

411,233,7,499,543,7,

410,243,7,496,539,7,

467,246,7,493,534,7,

512,244,7,591,530,8,

508,243,7,739,527,7,

504,241,7,731,523,8,

500,239,7,724,518,7,

496,238,7,717,514,7,

492,237,7,710,511,7,

489,236,7,703,507,7,

486,234,7,697,504,7,

483,233,7,691,499,7,

478,231,8,684,497,7,

476,231,7,678,493,7,

472,229,7,673,490,7,

470,229,7,668,486,7,

465,227,7,661,483,7,

463,226,7,655,480,9,

460,224,7,651,476,7,

457,223,7,645,473,7,

454,222,7,639,471,7,

450,221,7,634,467,7,

448,221,7,630,463,7,

445,219,7,624,461,7,

442,218,7,619,459,7,

439,217,7,614,455,7,

435,216,7,611,452,7,

434,215,7,606,449,7,

431,214,7,600,446,7,

428,212,7,596,444,7,

425,212,7,591,441,7,

423,210,7,588,438,7,

420,209,7,583,435,7,

417,209,7,579,432,7,

415,207,7,574,430,7,

413,206,7,571,427,7,

409,206,7,567,423,7,

408,205,7,562,423,7,

405,204,7,557,420,7,

403,203,7,555,417,7,

401,202,7,550,414,7,

398,201,7,546,412,7,

395,199,7,542,410,7,

393,199,7,539,407,7,

391,197,7,536,405,7,

388,197,7,531,403,7,

387,195,7,527,399,7,

384,195,7,525,398,7,

383,194,7,521,396,7,

380,193,7,517,393,7,

378,192,7,514,391,7,

376,192,7,511,389,7,

374,190,7,507,387,7,

371,189,7,504,385,7,

370,188,7,500,382,7,

367,188,7,497,380,7,

366,187,7,494,379,7,

363,186,7,491,376,7,

361,184,7,487,374,7,

359,184,7,485,372,7,

358,184,7,483,369,7,

355,182,7,479,367,7,

353,181,7,476,366,7,

352,181,7,473,364,7,

350,179,7,471,362,7,

348,179,7,467,359,7,

345,178,7,463,358,7,

344,177,7,461,355,7,

343,176,7,459,354,7,

340,176,7,455,352,7,

339,175,7,453,350,7,

337,174,7,450,348,7,

335,173,7,448,347,7,

333,172,7,446,344,7,

332,172,7,442,344,7,

329,171,7,440,341,7,

327,170,7,438,339,7,

326,169,7,435,337,7,

324,167,7,432,335,7,

323,167,6,430,334,7,

321,167,6,428,332,6,

319,166,7,425,330,7,

318,165,7,422,327,7,

316,164,7,419,327,6,

315,163,6,418,325,6,

313,162,7,415,323,6,

312,162,6,413,323,7,

309,161,6,411,319,6,

308,159,6,408,319,7,

306,159,6,406,317,7,

305,159,6,403,315,7,

304,158,7,401,315,6,

302,158,7,399,312,7,

300,157,6,398,311,7,

300,156,6,395,309,6,

297,156,7,392,307,6,

295,155,6,391,306,6,

295,153,7,389,304,6,

293,153,5,387,302,7,

291,152,6,385,301,6,

290,152,6,382,300,6,

288,151,5,381,299,6,

287,150,6,379,297,7,

286,150,5,376,295,5,

284,149,5,374,294,7,

283,148,6,372,292,6,

281,147,6,371,291,6,

280,147,6,368,290,6,

279,146,6,367,289,6,

277,145,5,365,287,6,

275,144,6,363,286,6,

275,144,6,359,284,6,

274,143,6,359,283,6,

271,143,6,358,281,6,

270,142,5,355,280,6,

270,141,5,353,279,5,

268,141,5,352,278,5,

267,140,6,350,275,6,

265,140,6,348,275,6,

263,139,5,346,273,5,

263,139,6,344,271,5,

261,138,6,343,271,5,

261,137,6,341,270,6,

259,135,6,339,268,5,

258,135,6,337,267,6,

257,135,5,335,266,5,

255,135,6,334,264,5,

255,134,6,332,263,6,

253,134,5,331,263,6,

252,134,6,329,261,6,

251,133,6,327,260,5,

249,131,5,326,258,6,

248,131,6,324,257,5,

247,131,6,323,255,6,

246,130,5,321,254,6,

245,129,6,319,254,6,

243,128,5,318,252,5,

243,128,5,316,251,5,

242,127,6,316,249,6,

241,127,5,313,248,5,

239,126,5,312,248,6,

239,126,5,310,247,6,

237,125,6,310,246,5,

235,125,6,307,243,6,

235,124,5,307,243,6,

234,124,5,305,242,5,

231,123,5,303,241,5,

231,123,5,302,240,6,

231,122,6,300,239,5,

229,122,6,300,238,5,

228,121,6,297,237,5,

227,120,5,295,235,5,

226,120,6,295,234,5,

225,120,5,294,233,6,

224,118,5,293,231,5,

224,118,6,291,231,5,

222,118,5,289,231,5,

221,116,6,288,230,5,

220,117,5,287,228,5,

219,115,5,285,227,5,

218,115,5,284,226,5,

218,115,5,283,225,5,

217,114,5,281,224,6,

216,114,5,280,223,5,

214,113,5,279,222,5,

214,113,6,278,221,5,

213,112,6,277,220,6,

211,112,5,275,219,5,

211,112,5,274,218,6,

209,111,5,272,217,5,

209,111,5,271,216,6,

207,110,5,271,216,5,

207,110,5,269,214,5,

206,109,6,268,213,5,

205,108,6,267,213,5,

204,108,5,265,211,5,

203,107,5,263,210,5,

202,107,5,263,209,6,

202,107,5,262,209,5,

199,106,5,261,207,5,

199,106,5,259,207,5,

199,105,5,258,206,5,

198,103,5,257,206,5,

197,103,5,255,204,6,

197,103,5,254,203,5,

195,103,5,254,202,6,

195,103,4,252,201,5,

193,103,5,251,201,5,

192,102,5,250,199,5,

192,101,5,249,199,6,

191,102,4,263,198,5,

190,101,5,261,198,5,

189,101,5,259,196,5,

189,99,5,258,195,4,

187,99,5,257,194,4,

188,99,5,255,194,5,

185,98,4,254,193,5,

185,97,4,253,192,4,

184,98,4,252,192,5,

184,96,5,250,190,4,

183,96,4,249,189,5,

182,96,5,248,189,4,

181,96,5,247,188,5,

181,95,4,246,188,4,

180,96,4,246,187,5,

179,95,5,243,185,5,

178,94,5,243,185,5,

177,94,4,241,185,5,

177,93,5,240,184,5,

176,93,5,240,183,4,

176,92,5,238,183,5,

174,93,5,238,181,4,

175,92,4,237,181,5,

174,92,5,236,179,4,

172,91,5,235,179,4,

172,90,5,234,179,5,

172,90,5,231,178,4,

171,91,4,231,177,5,

170,90,4,231,176,4,

169,89,5,230,176,5,

167,89,4,229,175,5,

167,88,4,228,174,5,

167,88,5,227,174,5,

166,88,5,226,173,5,

165,88,4,225,172,5,

165,88,5,224,172,4,

164,87,4,223,171,4,

163,86,4,222,170,5,

163,86,4,221,169,4,

162,85,4,220,169,5,

162,85,5,220,167,5,

161,85,5,219,167,4,

159,84,5,217,167,5,

159,84,5,217,166,4,

159,83,4,216,166,4,

158,83,4,215,165,5,

158,83,5,215,164,4,

157,83,5,213,163,4,

156,83,4,212,162,5,

156,82,5,212,163,4,

155,81,5,211,161,5,

154,82,4,210,159,5,

154,81,5,209,159,4,

153,80,5,208,159,4,

153,79,5,207,159,5,

153,79,4,206,158,4,

151,79,5,206,157,4,

151,79,5,205,157,4,

150,79,4,204,156,4,

149,79,4,204,156,5,

150,78,5,202,155,5,

149,78,4,202,155,4,

148,77,5,201,153,4,

147,77,4,199,153,5,

146,77,4,199,152,4,

146,76,4,199,152,5,

145,76,4,197,152,4,

145,76,4,197,151,4,

144,76,5,196,151,5,

143,75,5,195,150,4,

143,75,4,195,148,5,

142,75,5,195,149,5,

142,74,5,193,147,5,

142,74,4,192,147,5,

141,73,4,192,147,5,

140,73,4,191,146,4,

140,73,5,190,146,4,

139,73,5,190,144,4,

138,72,3,188,144,5,

138,71,5,188,143,4,

137,71,4,187,143,4,

137,71,4,187,142,5,

135,71,5,186,142,5,

135,71,5,185,142,4,

135,70,5,184,141,4,

135,70,4,184,141,5,

134,70,4,183,140,4,

133,69,4,182,139,4,

132,69,3,180,138,5,

132,69,4,180,137,4,

131,68,3,179,137,4,

131,68,4,179,137,4,

131,68,3,179,135,5,

129,68,4,177,135,3,

129,67,5,176,135,4,

129,67,4,176,135,3,

129,66,4,175,134,4,

127,67,4,175,134,5,

127,67,4,174,133,4,

127,66,4,173,132,4,

126,66,4,173,132,4,

125,66,4,172,131,3,

125,66,4,171,131,4,

124,65,4,171,130,5,

124,64,4,169,129,3,

124,64,3,169,129,4,

123,64,5,169,128,4,

123,63,3,167,128,4,

122,63,4,167,127,4,

121,63,4,167,127,3,

121,63,3,166,127,4,

121,62,4,165,126,5,

120,62,4,165,126,4,

120,62,4,164,125,4,

120,62,4,164,125,4,

119,62,4,162,124,3,

119,61,3,162,124,4,

118,61,4,162,124,4,

117,60,4,161,123,3,

117,60,4,161,123,3,

116,60,5,159,121,3,

115,60,3,159,121,4,

115,60,4,159,121,4,

115,60,4,158,121,3,

115,59,3,157,120,4,

114,59,4,157,120,4,

113,59,4,157,120,4,

113,58,4,156,118,4,

113,58,4,155,118,4,

112,58,3,154,117,4,

112,57,4,153,117,4,

112,57,3,153,117,4,

111,56,5,152,117,4,

111,57,3,152,116,3,

110,57,4,152,115,4,

110,56,3,151,115,4,

109,56,3,150,115,4,

110,56,4,149,114,4,

108,55,4,149,113,3,

108,56,4,148,114,5,

108,56,5,147,113,4,

107,55,3,147,112,3,

107,55,3,146,112,4,

106,55,4,146,111,4,

105,54,4,145,111,4,

105,54,4,145,111,5,

105,54,3,144,110,3,

105,53,4,144,110,4,

103,53,3,143,109,4,

103,53,3,143,109,4,

103,53,3,142,109,4,

103,52,3,141,108,4,

102,53,3,142,108,4,

102,52,3,140,107,3,

102,51,3,141,107,4,

102,51,3,140,106,4,

102,51,5,140,106,3,

100,51,4,139,106,4,

100,51,4,139,105,4,

99,50,3,137,105,4,

99,51,4,137,103,4,

99,51,4,136,103,4,

98,50,4,135,103,3,

98,50,4,135,103,4,

97,49,3,135,103,3,

97,49,3,134,103,4,

97,50,4,134,102,3,

97,49,4,133,102,3,

96,49,4,133,101,5,

96,49,4,132,100,4,

96,49,3,132,100,4,

96,48,3,131,100,4,

94,48,3,131,99,4,

94,48,4,131,99,3,

95,48,3,131,99,4,

94,47,3,130,99,3,

94,48,4,130,99,4,

94,48,5,129,98,4,

93,47,4,128,98,4,

93,47,4,127,97,3,

92,46,4,127,97,4,

92,46,4,127,96,4,

92,46,4,127,96,4,

91,45,4,126,96,3,

91,46,4,126,96,3,

91,45,4,125,95,5,

91,46,4,125,95,3,

89,46,3,124,95,4,

89,45,4,124,94,3,

89,45,3,124,93,4,

89,44,3,124,93,4,

89,45,4,123,94,5,

89,44,4,122,93,4,

89,44,4,122,93,4,

88,44,3,121,92,4,

87,44,4,121,92,3,

88,44,4,121,92,4,

86,44,3,120,92,4,

86,44,4,120,91,3,

85,43,4,120,91,3,

86,43,3,119,91,5,

85,43,4,118,89,4,

85,42,4,118,90,4,

85,42,4,118,89,4,

84,41,3,118,88,4,

84,42,4,117,89,4,

84,41,3,117,88,3,

83,42,4,117,88,4,

83,42,5,115,88,3,

83,41,3,115,87,4,

82,41,4,115,87,4,

82,41,3,115,87,3,

81,41,4,115,87,3,

82,41,4,113,86,4,

81,40,3,113,86,3,

81,39,3,113,86,4,

81,39,3,112,85,4,

81,39,3,112,85,3,

79,39,3,112,85,3,

79,39,3,112,84,3,

79,39,3,111,83,3,

79,39,3,111,84,3,

79,39,3,110,83,4,

79,39,3,110,83,4,

78,39,4,110,83,3,

78,38,3,109,83,4,

78,38,3,109,83,4,

78,38,4,108,82,3,

78,38,3,108,81,4,

77,38,3,108,81,3,

77,38,4,108,81,3,

77,37,3,107,81,4,

77,38,4,107,80,3,

76,38,4,107,79,4,

75,38,4,106,80,3,

75,37,3,105,79,4,

75,37,3,105,79,4,

75,37,3,105,79,3,

74,36,3,103,79,3,

73,37,4,103,79,4,

74,36,3,103,78,4,

73,36,3,103,78,3,

73,36,3,103,77,4,

73,35,3,103,78,4,

73,36,3,103,76,3,

71,35,4,102,77,4,

72,35,3,102,76,4,

71,35,4,102,76,3,

71,35,3,101,76,3,

71,35,4,101,76,3,

71,34,4,100,76,3,

71,34,3,100,76,4,

71,34,4,99,75,3,

71,34,3,99,75,4,

71,35,4,99,74,4,

70,34,3,98,74,4,

70,34,4,99,73,3,

70,33,4,98,73,4,

69,34,4,98,74,4,

69,34,3,98,73,3,

69,34,3,98,73,3,

68,33,3,97,73,4,

68,33,4,96,71,3,

68,33,4,96,71,3,

68,32,3,96,72,3,

67,33,4,96,71,4,

67,33,4,95,71,4,

67,32,4,96,71,3,

67,33,3,94,71,4,

67,31,4,94,71,3,

66,31,3,94,70,4,

67,32,3,94,70,4,

66,31,3,93,70,3,

66,31,3,93,70,3,

65,32,3,93,70,4,

66,31,3,92,70,4,

65,31,4,93,70,4,

65,31,4,92,69,3,

64,31,4,92,69,3,

64,31,4,92,68,4,

64,31,3,91,68,3,

63,30,3,91,68,4,

63,30,3,91,68,4,

63,31,4,91,68,3,

63,31,4,90,67,3,

63,30,4,89,67,3,

63,30,3,89,67,3,

62,30,4,89,66,4,

62,30,4,89,66,4,

62,30,4,89,66,3,

62,30,3,88,66,3,

62,29,3,88,66,4,

61,30,3,88,66,4,

61,29,3,88,65,3,

61,30,4,87,65,3,

61,29,4,87,65,3,

61,30,4,87,64,4,

60,29,4,86,64,4,

61,29,3,86,63,4,

60,29,4,86,65,3,

60,30,3,85,63,4,

60,29,3,85,63,3,

59,29,3,86,63,4,

59,28,3,84,63,4,

59,29,4,84,63,3,

59,28,3,83,62,4,

59,28,3,83,62,3,

58,28,3,83,62,3,

59,28,4,83,62,3,

58,29,4,83,62,3,

57,28,3,83,61,3,

57,28,3,83,61,3,

57,28,3,82,61,4,

57,27,3,81,61,4,

57,28,4,82,60,4,

57,28,3,81,60,4,

57,27,3,81,60,3,

56,27,4,81,60,4,

56,27,3,80,60,3,

56,27,4,80,60,3,

56,27,3,80,60,3,

56,27,3,80,60,3,

56,26,4,79,59,3,

55,27,4,79,58,3,

55,26,3,78,59,3,

55,26,4,78,58,4,

55,26,4,78,58,3,

54,26,4,79,58,3,

54,26,4,77,58,4,

54,25,3,77,58,4,

54,25,3,77,58,3,

54,25,3,78,58,3,

54,26,4,77,56,4,

53,25,3,77,57,3,

54,25,3,77,56,3,

52,25,3,77,57,4,

53,25,3,76,56,4,

53,25,3,76,56,4,

52,25,3,76,56,4,

52,25,4,75,55,4,

52,25,4,75,56,4,

51,25,3,75,55,4,

51,25,4,75,55,4,

51,25,4,75,55,5,

51,25,5,74,54,4,

51,24,5,73,54,3,

51,42,4,74,54,3,

50,42,4,73,54,3,

50,41,3,73,54,3,

50,41,3,73,55,4,

51,41,4,71,53,3,

49,40,3,73,54,3,

50,39,3,71,53,3,

49,39,4,71,53,3,

49,39,4,71,53,3,

49,39,3,71,52,3,

49,39,4,71,53,3,

49,39,3,71,52,3,

49,39,4,71,52,5,

48,46,3,70,53,4,

48,46,3,70,51,3,

48,46,4,70,52,3,

48,46,3,70,51,3,

48,46,3,69,51,3,

48,44,3,70,51,4,

48,45,4,69,51,5,

48,45,3,69,50,3,

47,44,3,69,51,3,

47,44,3,68,50,4,

46,44,3,68,51,3,

46,44,3,68,50,3,

46,43,3,69,51,4,

46,44,4,67,50,3,

46,45,3,67,50,4,

46,45,3,67,49,3,

46,44,4,67,50,4,

45,44,3,67,49,3,

45,44,4,67,48,4,

45,43,4,67,48,3,

45,43,4,66,49,3,

45,44,4,65,48,3,

45,43,4,65,48,3,

45,43,4,66,48,3,

45,43,3,65,48,3,

44,42,4,65,48,4,

44,65,4,65,47,3,

44,71,3,63,47,3,

44,71,4,64,48,4,

44,70,4,64,47,4,

44,70,4,64,47,3,

44,69,3,63,47,3,

43,69,3,63,47,3,

43,69,4,63,46,3,

43,69,4,63,46,5,

42,67,3,63,46,3,

43,67,3,63,46,3,

42,67,4,62,45,4,

42,67,4,63,46,3,

42,67,3,62,45,4,

43,70,4,61,45,4,

42,70,4,62,45,4,

41,70,4,62,44,3,

42,70,3,61,45,3,

41,69,3,61,45,3,

41,69,3,61,45,4,

41,68,3,61,44,3,

41,68,4,60,44,3,

41,67,3,61,44,5,

41,67,4,60,44,3,

41,67,4,60,44,3,

39,66,4,60,44,4,

39,66,4,59,44,4,

39,66,3,60,43,3,

39,66,3,59,43,4,

39,65,4,59,43,4,

39,64,3,58,42,3,

39,64,3,59,42,3,

39,64,4,58,42,3,

39,64,4,58,42,4,

39,64,4,58,42,3,

39,63,3,58,41,3,

39,63,4,58,43,3,

39,63,3,57,41,4,

39,62,4,57,41,3,

39,63,3,57,42,3,

38,62,4,57,41,3,

38,62,3,57,41,4,

38,61,3,56,41,3,

38,61,3,56,41,4,

38,61,3,56,40,3,

38,61,4,56,39,4,

38,60,3,56,39,4,

37,60,3,56,39,4,

37,60,4,56,39,4,

36,59,3,56,39,3,

37,60,4,55,39,3,

36,60,3,55,39,3,

37,59,3,54,39,3,

44,59,4,54,39,3,

43,59,3,55,39,3,

43,58,3,54,39,4,

43,58,3,55,39,3,

43,58,4,54,39,4,

42,58,3,54,39,3,

42,59,3,54,38,3,

42,57,4,53,39,4,

42,57,3,54,38,4,

42,57,3,53,39,3,

41,56,4,52,38,3,

41,57,4,52,38,3,

41,56,3,52,38,3,

41,56,3,52,37,4,

41,56,3,51,38,3,

40,56,4,51,37,4,

41,56,3,51,37,3,

39,55,4,51,37,3,

39,55,4,51,37,3,

39,55,3,51,37,4,

39,55,3,51,37,3,

39,54,4,51,37,4,

39,53,3,50,37,4,

39,54,3,51,36,3,

39,53,3,50,36,3,

39,53,3,50,35,4,

46,52,4,49,35,4,

45,52,3,49,36,3,

45,52,4,50,36,4,

45,51,4,49,36,4,

45,51,4,49,35,4,

45,51,4,50,35,3,

44,51,4,48,36,3,

44,51,3,48,35,3,

44,51,3,49,35,3,

44,51,3,48,35,4,

43,50,3,48,34,4,

44,50,3,48,34,3,

43,50,4,48,35,4,

44,49,3,48,34,3,

43,49,4,48,34,3,

43,49,3,48,34,3,

43,49,3,48,34,3,

43,48,4,47,33,3,

43,48,3,47,33,3,

42,48,4,47,34,3,

41,48,4,47,34,3,

42,48,4,47,33,4,

41,47,4,46,33,4,

41,48,4,46,33,3,

42,47,3,46,33,4,

41,47,3,46,32,4,

42,46,4,46,32,4,

46,46,3,46,33,4,

46,47,3,46,33,4,

46,46,4,45,32,3,

46,46,4,45,31,3,

45,45,3,45,31,5,

45,46,4,45,32,3,

45,45,4,44,31,4,

45,46,4,45,31,3,

44,45,3,44,31,3,

44,45,3,44,31,3,

44,45,4,44,31,4,

44,44,4,44,31,4,

49,45,3,44,31,4,

49,44,4,43,31,4,

50,44,3,43,31,3,

49,44,3,43,31,3,

49,43,3,43,31,4,

49,43,4,43,31,3,

49,43,4,43,30,3,

48,43,3,42,30,4,

48,43,4,42,30,4,

48,42,3,42,30,3,

48,42,4,41,30,3,

47,43,3,42,30,3,

47,42,4,42,30,4,

70,43,4,41,29,4,

71,42,3,42,29,3,

71,42,4,41,30,3,

71,41,3,41,29,4,

70,41,3,41,29,4,

70,40,4,42,29,3,

70,41,3,41,30,4,

69,40,4,41,28,4,

69,39,4,40,29,4,

68,39,4,40,29,3,

68,39,3,41,29,4,

67,39,3,41,29,3,

67,39,3,39,28,4,

67,39,4,39,29,3,

67,39,3,39,28,4,

70,39,3,39,29,5,

70,39,4,39,28,4,

69,39,4,39,28,5,

69,39,3,39,28,4,

68,39,3,39,28,3,

67,38,3,39,28,3,

68,38,3,39,28,3,

67,37,4,39,28,4,

67,37,4,39,27,4,

67,38,4,38,27,4,

66,37,4,38,36,3,

66,37,3,39,36,4,

66,38,4,38,35,4,

65,36,3,38,35,3,

65,37,3,38,35,3,

65,36,4,37,35,4,

65,37,3,38,34,3,

63,36,3,37,34,4,

63,36,4,37,34,3,

63,36,4,37,34,3,

63,35,3,38,34,3,

63,35,3,38,34,3,

63,35,4,37,33,4,

62,35,3,36,34,3,

62,35,3,35,33,3,

62,35,4,37,33,4,

62,35,3,35,33,4,

61,35,4,36,33,4,

61,34,3,36,33,3,

61,35,4,36,33,3,

61,35,4,35,33,4,

60,34,3,35,33,3,

60,34,3,35,31,3,

60,33,3,35,31,3,

60,34,4,35,31,4,

59,34,4,35,32,3,

59,34,3,35,31,3,

59,33,3,35,31,3,

59,33,4,34,31,3,

58,33,3,34,31,3,

58,32,3,34,31,3,

57,32,3,34,30,3,

58,31,3,34,31,4,

58,31,4,34,31,4,

57,31,3,34,30,4,

57,31,4,34,30,3,

57,32,4,34,30,3,

57,31,3,33,30,3,

56,31,3,33,30,3,

56,31,4,33,30,4,

56,31,4,34,30,4,

56,31,4,33,30,3,

55,31,3,33,30,4,

55,30,3,33,29,3,

54,30,4,33,30,4,

54,31,4,32,29,4,

54,30,3,33,29,4,

54,30,3,32,29,3,

54,30,3,33,29,4,

53,30,3,31,29,3,

53,30,4,32,28,4,

53,29,3,31,28,4,

52,30,4,31,28,4,

52,30,4,31,29,3,

52,29,3,31,28,3,

52,29,3,31,28,3,

52,29,4,31,28,3,

51,29,4,31,28,3,

52,29,3,31,28,3,

51,29,4,31,27,3,

51,29,3,31,28,3,

51,28,4,31,28,3,

50,29,4,30,28,4,

50,28,3,31,27,3,

49,28,3,30,27,3,

50,28,4,30,27,3,

49,28,4,30,26,3,

50,27,3,30,27,3,

49,28,3,30,27,4,

49,28,3,30,26,4,

49,27,3,30,27,3,

48,27,3,30,26,3,

48,28,4,30,26,3,

48,27,4,30,25,3,

49,27,3,29,26,3,

48,27,3,29,26,4,

47,27,3,29,26,4,

48,26,3,29,25,3,

47,26,3,29,25,3,

46,27,3,29,25,4,

53,26,4,29,26,4,

53,26,3,29,25,4,

53,26,4,29,25,3,

52,26,3,28,25,3,

51,25,4,28,25,3,

52,26,3,28,25,3,

51,25,3,28,25,4,

51,25,3,28,24,3,

51,25,4,28,25,3,

51,25,3,28,25,3,

50,25,3,27,24,3,

51,25,3,28,24,3,

50,25,4,28,24,3,

50,24,3,28,24,4,

50,25,3,27,24,4,

49,25,4,27,24,3,

49,24,3,27,24,3,

49,24,3,27,24,3,

49,24,3,27,24,4,

48,24,3,27,24,4,

48,24,3,26,24,3,

48,24,3,26,24,3,

48,23,3,27,23,4,

48,24,3,27,23,3,

48,24,3,27,24,4,

47,24,4,26,23,3,

47,24,4,26,22,3,

47,23,4,26,22,3,

46,24,3,27,23,3,

46,23,3,26,23,4,

47,23,4,25,22,4,

46,23,4,26,23,3,

46,23,4,25,22,4,

45,23,3,25,22,3,

46,22,3,25,22,3,

45,22,3,25,22,4,

45,22,3,25,22,4,

45,22,4,25,21,4,

45,22,3,25,22,3,

66,22,3,25,21,3,

70,22,4,25,22,3,

69,22,3,25,21,4,

69,22,3,25,21,3,

69,21,3,24,22,3,

68,21,3,25,21,3,

68,23,3,25,21,4,

67,21,4,25,21,3,

67,21,4,24,21,4,

68,21,3,24,21,3,

67,21,3,24,20,5,

67,21,4,24,21,4,

66,20,4,24,21,3,

66,21,4,24,20,4,

66,21,4,24,20,3,

65,20,3,24,20,3,

65,20,3,24,20,3,

65,20,4,24,20,3,

65,21,4,24,20,4,

65,19,3,24,19,4,

63,20,4,24,20,4,

63,19,3,23,20,4,

63,21,3,24,20,4,

63,19,3,23,19,3,

63,19,4,23,19,3,

63,20,4,23,19,3,

70,19,3,23,19,4,

71,19,4,22,19,3,

69,19,3,22,19,4,

69,19,3,22,19,4,

69,19,3,22,19,4,

68,19,4,22,19,4,

68,19,3,22,19,4,

68,19,3,22,19,3,

67,18,3,23,19,4,

67,18,3,22,19,4,

66,19,3,22,19,3,

66,19,4,22,18,4,

66,18,4,22,18,3,

69,18,3,22,19,3,

75,19,4,21,18,4,

74,18,4,21,19,3,

74,19,3,21,18,3,

74,18,3,21,18,3,

73,18,3,21,18,3,

73,18,3,21,18,3,

73,18,3,21,19,3,

71,18,3,21,18,3,

71,17,4,21,17,3,

71,17,4,21,18,3,

71,17,4,20,17,4,

71,18,4,21,17,3,

71,17,3,21,18,4,

76,18,3,20,18,4,

75,17,3,20,18,3,

76,17,3,20,17,4,

75,17,3,20,17,4,

75,17,3,20,18,3,

75,17,4,20,17,3,

74,16,4,20,17,3,

73,16,3,19,17,3,

73,17,3,20,16,4,

72,17,4,20,17,3,

71,16,4,19,17,4,

71,16,4,20,17,4,

78,16,3,20,16,3,

101,16,4,19,17,4,

100,16,4,19,17,3,

100,16,3,19,17,3,

99,16,3,19,16,3,

99,16,4,19,16,4,

99,15,3,19,16,4,

97,16,3,19,16,3,

97,15,4,19,16,4,

97,15,4,19,16,4,

97,16,3,19,16,3,

96,15,3,19,15,3,

96,16,4,18,16,3,

103,15,4,18,17,3,

184,15,4,18,15,4,

182,15,3,18,15,3,

182,15,3,18,16,3,

180,15,3,19,15,3,

179,15,3,18,15,3,

178,15,3,19,15,3,

177,15,4,18,15,3,

176,15,3,18,15,3,

175,15,4,18,15,4,

174,15,4,18,15,4,

173,15,3,17,15,4,

173,15,3,18,15,3,

172,14,3,18,15,4,

171,14,4,17,15,4,

170,15,3,18,15,4,

169,14,5,17,15,3,

169,14,3,17,14,3,

167,14,3,17,14,3,

167,14,3,17,15,3,

166,14,3,17,14,3,

166,13,3,17,15,4,

165,13,3,17,14,4,

164,14,4,16,14,3,

163,14,3,17,14,4,

163,14,3,17,14,4,

161,14,4,17,15,4,

161,13,4,16,14,3,

159,14,3,17,14,4,

159,13,4,16,14,3,

159,14,4,16,14,4,

158,13,3,16,14,3,

157,13,4,17,14,3,

157,13,4,16,14,3,

156,13,3,16,14,3,

156,13,3,16,13,3,

155,14,3,16,14,4,

154,13,3,16,13,3,

153,13,3,15,13,3,

152,13,3,16,13,4,

152,13,3,15,13,3,

152,13,3,15,13,3,

151,13,3,15,13,3,

150,13,3,15,13,4,

149,13,3,15,13,4,

148,12,3,15,13,3,

147,13,3,15,14,3,

147,12,4,15,13,3,

147,13,3,15,13,4,

146,13,3,15,13,4,

146,12,3,15,13,3,

145,12,3,15,13,3,

143,13,4,15,13,4,

143,12,4,15,12,4,

143,12,3,15,13,4,

142,12,3,15,12,3,

142,12,4,14,12,3,

141,12,3,15,12,4,

140,12,4,14,12,3,

140,12,3,15,13,3,

139,12,4,14,12,3,

138,12,3,14,12,3,

138,12,4,14,12,3,

139,12,3,15,12,4,

137,11,3,14,12,3,

137,11,4,14,12,4,

137,12,3,14,12,3,

135,11,4,14,12,3,

135,12,4,14,12,4,

135,12,3,14,12,3,

135,11,3,14,11,3,

134,11,3,14,12,3,

133,12,3,13,12,3,

132,11,3,14,12,3,

132,11,3,14,12,3,

131,11,4,14,12,4,

131,11,4,13,12,4,

131,11,3,13,12,3,

130,11,3,14,12,4,

130,11,4,13,11,3,

129,11,4,13,11,3,

129,11,4,14,11,4,

127,10,3,13,11,4,

127,10,4,14,11,4,

127,10,3,13,11,3,

127,11,4,13,11,4,

125,11,4,13,11,4,

125,10,4,13,11,4,

124,11,4,13,11,3,

124,10,4,13,11,3,

124,10,3,13,11,3,

123,10,3,12,11,3,

122,10,3,13,11,3,

122,10,4,13,11,4,

121,9,4,13,10,3,

121,10,3,13,11,4,

120,11,3,12,11,3,

120,10,3,13,11,3,

119,10,3,13,11,4,

120,10,3,12,11,3,

119,10,3,12,10,3,

118,10,3,13,10,3,

117,9,4,12,10,4,

117,9,4,12,10,3,

116,10,4,12,10,3,

116,9,3,12,10,4,

115,9,3,12,9,3,

115,9,3,12,10,3,

115,10,3,12,11,3,

114,9,3,12,10,4,

114,10,3,12,10,4,

113,9,3,12,10,4,

118,10,3,12,10,3,

131,9,3,12,9,4,

130,10,3,12,10,3,

130,9,4,11,10,3,

129,9,4,11,10,3,

129,9,3,12,9,3,

127,9,3,11,11,3,

127,9,3,11,9,4,

127,9,3,11,10,3,

127,8,4,11,9,4,

126,9,3,11,9,4,

125,9,3,11,9,3,

125,8,4,12,10,3,

124,9,3,11,9,3,

123,9,3,11,9,4,

123,9,3,11,9,3,

123,9,3,12,9,3,

122,7,3,11,9,3,

122,7,3,11,9,3,

121,8,3,11,9,3,

120,7,3,10,9,3,

121,7,3,10,9,3,

120,7,3,10,9,3,

119,7,3,11,10,3,

119,9,3,11,9,3,

118,7,3,11,9,3,

118,7,3,11,9,3,

117,7,3,10,9,3,

116,7,3,11,9,3,

116,8,3,11,8,3,

115,7,3,10,7,3,

115,7,3,11,8,3,

115,7,3,10,9,3,

114,7,3,10,9,3,

114,7,3,10,8,3,

113,7,3,11,9,3,

113,7,3,11,8,3,

112,7,3,9,8,3,

113,7,3,10,9,4,

112,7,3,9,9,3,

111,7,3,10,8,3,

111,7,4,9,8,3,

111,7,3,10,8,3,

110,7,3,10,9,3,

110,7,3,9,7,3,

110,7,3,10,7,3,

109,7,3,9,7,3,

108,7,3,10,7,3,

108,7,4,10,9,3,

108,7,3,10,7,3,

107,7,3,9,7,3,

106,7,3,9,7,3,

106,7,3,9,7,3,

106,7,3,9,7,3,

105,7,3,9,7,3,

105,7,3,9,7,3,

105,6,3,9,7,3,

103,7,3,9,7,3,

103,7,3,9,7,3,

103,7,2,9,8,3,

103,7,3,9,7,3,

103,7,3,9,7,3,

102,7,3,9,7,3,

103,7,3,9,7,3,