
55,16,0,71,29,0,

54,16,0,95,29,0,

54,16,0,94,29,0,

54,16,0,93,29,0,

53,16,0,93,34,0,

53,16,0,92,35,0,

53,16,0,92,35,0,

53,15,0,91,35,0,

53,15,0,91,35,0,

52,15,0,90,34,0,

52,15,0,90,34,0,

51,15,0,90,34,0,

51,15,0,89,34,0,

51,15,0,89,34,0,

51,15,0,88,34,0,

51,15,0,88,33,0,

51,15,0,88,33,0,

51,15,0,87,33,0,

50,15,0,87,33,0,

50,15,0,86,33,0,

50,15,0,86,33,0,

50,14,0,86,32,0,

49,14,0,85,32,0,

49,14,0,85,31,0,

49,15,0,84,31,0,

48,14,0,84,31,0,

48,14,0,83,31,0,

48,14,0,83,31,0,

48,14,0,83,31,0,

48,14,0,83,31,0,

47,14,0,82,31,0,

47,13,0,82,31,0,

47,13,0,82,30,0,

47,13,0,81,30,0,

46,13,0,80,30,0,

46,13,0,80,30,0,

46,13,0,79,30,0,

46,13,0,79,30,0,

46,13,0,79,29,0,

45,30,0,79,29,0,

49,35,0,79,29,0,

52,35,0,78,29,0,

52,35,0,78,29,0,

51,35,0,78,28,0,

51,35,0,77,29,0,

51,35,0,77,28,0,

51,34,0,76,28,0,

50,34,0,76,28,0,

51,34,0,76,28,0,

50,34,0,76,28,0,

50,34,0,75,28,0,

50,33,0,75,27,0,

49,33,0,75,27,0,

49,33,0,75,27,0,

50,32,0,77,27,0,

50,33,0,77,27,0,

50,33,0,76,27,0,

49,32,0,76,27,0,

50,32,0,76,26,0,

49,31,0,75,27,0,

49,31,0,75,26,0,

49,31,0,75,26,0,

48,31,0,75,26,0,

48,31,0,74,25,0,

48,31,0,74,25,0,

48,31,0,73,25,0,

48,31,0,73,25,0,

47,31,0,73,25,0,

47,30,0,71,25,0,

47,30,1,71,25,0,

47,30,0,71,25,0,

46,30,0,71,25,0,

46,30,0,71,24,0,

46,29,0,71,25,0,

46,29,0,71,24,0,

46,29,0,70,24,0,

45,29,0,70,24,0,

45,29,0,70,24,0,

45,29,0,70,24,0,

45,29,0,69,24,0,

44,29,0,69,24,0,

44,28,0,69,24,0,

44,28,0,68,24,0,

44,28,0,68,23,0,

44,28,0,67,23,0,

43,28,0,67,23,0,

43,28,0,67,23,0,

43,27,0,67,22,0,

43,27,0,66,22,0,

42,27,0,66,22,1,

43,27,0,66,22,0,

42,27,0,66,22,0,

42,27,0,65,22,0,

41,26,0,65,22,0,

41,27,0,65,22,0,

41,26,0,65,21,0,

41,25,0,64,21,0,

41,26,0,63,21,0,

41,26,0,63,21,0,

41,26,0,63,21,0,

39,25,0,63,21,0,

39,25,0,63,21,0,

39,25,0,62,21,0,

39,25,0,62,20,0,

39,25,0,62,21,0,

39,25,0,62,20,0,

39,24,0,61,19,0,

41,24,1,61,20,0,

39,24,0,61,19,0,

40,24,0,60,19,0,

39,24,0,60,19,0,

39,24,0,60,20,0,

39,24,0,60,19,0,

39,24,0,60,19,0,

39,24,0,60,19,0,

39,24,0,59,19,0,

39,24,0,59,19,0,

39,23,0,59,19,0,

39,23,0,58,19,0,

38,23,0,58,19,0,

38,23,0,58,18,0,

38,23,0,57,18,0,

38,23,0,57,18,0,

38,22,0,57,18,0,

37,22,0,57,18,0,

37,22,0,57,18,0,

37,22,0,56,18,0,

37,22,0,56,18,0,

37,22,0,56,18,0,

37,21,0,56,18,0,

36,21,0,56,18,0,

37,22,0,57,18,0,

44,30,0,57,17,0,

51,29,0,57,19,0,

51,29,0,57,19,0,

51,29,0,57,23,0,

51,29,0,56,24,0,

51,29,0,56,24,0,

50,29,0,56,24,0,

50,29,0,56,24,0,

50,28,0,56,24,0,

49,28,0,56,24,0,

49,28,0,56,24,0,

49,28,0,55,24,0,

49,28,0,55,23,0,

49,28,0,55,23,0,

48,27,0,54,23,0,

48,27,0,54,22,0,

48,27,0,54,22,0,

48,27,0,53,23,0,

48,26,0,53,22,0,

47,27,0,53,22,0,

47,26,0,53,22,0,

47,26,0,52,22,0,

46,26,0,51,22,0,

46,26,0,51,21,0,

46,26,0,51,21,0,

46,25,0,51,21,0,

45,25,0,97,22,0,

45,25,0,140,39,0,

45,25,0,139,52,0,

45,25,0,138,51,0,

45,25,0,137,51,0,

45,24,0,137,50,0,

44,25,0,135,50,0,

44,24,0,135,50,0,

44,25,0,134,50,0,

44,24,0,134,49,0,

43,24,0,133,49,0,

43,24,0,132,49,0,

43,24,0,132,49,0,

42,24,0,131,53,0,

42,23,0,131,53,0,

42,24,0,130,52,0,

42,23,0,129,52,0,

41,23,0,129,51,0,

41,23,0,128,51,0,

41,23,0,127,51,0,

41,22,0,127,51,0,

39,23,0,126,51,0,

41,22,0,126,51,0,

40,22,0,125,50,0,

41,22,0,127,99,0,

39,22,0,127,97,0,

39,22,0,127,97,0,

39,22,0,126,96,0,

39,21,0,126,96,0,

39,22,0,125,95,0,

39,22,0,124,98,0,

39,21,0,124,187,1,

39,21,0,124,238,0,

38,21,0,123,236,0,

38,21,0,122,235,0,

39,24,0,121,233,0,

39,24,0,121,231,0,

44,24,0,121,230,0,

44,24,0,120,229,0,

44,24,0,120,227,0,

43,24,0,119,226,0,

43,24,0,118,225,0,

43,24,0,118,224,0,

43,24,0,117,223,0,

42,24,0,117,221,0,

42,23,0,117,220,0,

41,23,0,115,219,0,

41,26,0,115,218,0,

44,31,0,115,217,0,

44,31,0,114,216,0,

44,31,0,113,215,0,

43,31,0,113,214,0,

43,31,0,112,212,0,

43,31,0,112,211,0,

42,30,0,112,210,0,

42,30,0,111,209,0,

42,30,0,110,207,0,

41,30,0,110,207,0,

41,29,0,110,206,0,

41,29,0,109,205,0,

56,30,0,187,204,0,

60,29,0,207,206,1,

59,29,0,206,206,0,

59,29,0,205,205,0,

59,29,0,204,204,1,

58,28,0,203,203,0,

58,29,0,201,202,0,

57,28,0,199,201,0,

57,28,0,199,199,0,

57,28,0,198,199,0,

57,28,0,198,198,0,

61,46,0,197,197,0,

152,50,0,195,196,0,

167,49,0,194,195,0,

167,48,0,193,194,0,

166,48,0,192,193,0,

165,48,0,192,192,0,

163,48,0,190,192,0,

163,47,0,190,190,0,

162,47,0,189,189,0,

161,46,0,188,189,0,

159,46,0,187,188,0,

159,46,0,185,187,0,

158,46,0,185,185,0,

158,45,0,184,185,0,

157,46,0,183,184,0,

156,45,0,182,183,0,

155,45,0,181,182,0,

154,45,0,180,181,1,

153,44,0,179,180,0,

152,44,0,178,179,0,

152,44,0,178,179,1,

151,43,0,176,178,0,

150,43,1,176,177,0,

150,43,0,175,176,0,

149,43,1,174,175,0,

148,43,0,174,175,1,

147,42,1,173,174,1,

147,86,0,172,173,1,

145,90,0,171,172,1,

145,89,0,170,171,0,

144,88,0,169,170,1,

143,88,0,167,170,1,

143,88,1,167,254,1,

142,88,1,167,347,1,

142,87,1,176,480,1,

141,86,1,175,493,1,

140,85,1,174,487,1,

139,85,1,173,483,1,

139,84,1,172,480,1,

138,83,1,171,476,1,

137,83,1,170,473,1,

135,83,1,169,470,1,

135,83,1,167,466,1,

135,82,1,167,463,1,

135,81,1,167,460,1,

134,81,1,166,457,1,

133,81,1,165,455,1,

133,80,1,164,451,1,

132,79,1,163,448,2,

131,79,2,163,445,2,

131,79,2,162,443,2,

130,79,1,161,440,1,

129,78,2,161,437,1,

128,78,1,159,434,1,

127,77,2,159,431,2,

127,77,1,158,428,2,

127,76,2,178,426,2,

126,76,2,294,423,1,

125,76,1,291,420,1,

125,75,2,288,418,2,

124,75,2,286,415,2,

124,75,1,285,413,2,

123,74,2,283,411,2,

123,73,1,281,408,1,

121,73,1,280,406,2,

121,73,1,278,403,2,

121,71,2,277,401,2,

120,71,1,275,399,2,

120,71,2,273,396,1,

119,71,1,271,395,2,

118,71,1,271,391,2,

118,70,1,269,389,2,

117,70,1,268,387,1,

116,70,2,267,385,1,

115,69,1,265,384,1,

115,69,1,263,381,1,

115,68,2,262,378,1,

114,68,1,260,376,1,

114,68,1,259,375,2,

114,67,1,258,372,1,

113,67,1,257,370,1,

112,67,1,255,368,1,

112,66,1,254,366,1,

111,66,1,253,364,1,

111,66,2,252,363,1,

110,65,1,251,359,1,

110,65,1,249,359,1,

109,65,1,248,357,1,

109,64,1,247,354,1,

108,64,1,245,353,1,

108,63,1,244,351,1,

107,63,1,243,349,1,

107,63,1,242,348,1,

106,63,1,240,345,1,

105,62,1,239,344,1,

105,62,1,238,342,1,

105,62,1,237,340,1,

103,61,1,236,338,1,

103,61,1,235,337,1,

103,61,1,233,335,1,

103,60,1,231,333,1,

102,60,1,231,332,1,

102,60,1,230,329,1,

101,60,1,229,327,1,

101,59,1,228,327,1,

100,59,1,227,324,1,

99,59,1,226,323,1,

99,59,1,225,322,1,

99,58,1,224,319,1,

99,58,1,222,318,1,

98,57,1,222,316,1,

97,57,1,221,315,1,

97,57,1,220,314,1,

96,57,1,219,312,1,

96,57,1,218,312,1,

96,56,1,217,309,1,

96,56,1,216,307,1,

95,56,1,216,306,1,

95,56,1,214,305,1,

94,55,1,213,304,1,

94,55,1,212,302,1,

93,54,1,211,301,1,

93,54,1,210,299,1,

93,54,1,209,298,1,

92,54,1,209,297,1,

93,54,1,207,295,1,

92,53,1,207,294,1,

92,53,1,206,292,1,

91,53,1,205,291,1,

91,53,1,204,289,1,

90,53,1,203,288,1,

90,52,1,202,287,1,

89,51,1,201,286,1,

89,51,1,199,285,1,

89,51,1,199,283,2,

88,51,1,199,282,1,

88,50,1,198,281,1,

89,50,1,197,280,1,

131,50,1,196,278,1,

131,49,1,195,277,1,

130,49,1,194,275,1,

129,49,1,193,274,1,

127,49,2,192,273,1,

127,48,1,192,345,2,

127,48,2,191,345,2,

126,48,1,190,343,1,

125,48,1,189,341,1,

125,96,1,188,339,2,

124,96,2,188,337,1,

123,95,1,187,334,1,

123,94,1,185,332,1,

122,94,1,185,330,1,

121,93,2,184,327,2,

121,93,2,184,327,1,

120,92,2,183,324,1,

120,92,2,182,323,2,

119,91,1,181,321,1,

118,90,2,180,319,2,

118,90,2,179,317,2,

117,123,2,179,316,2,

117,121,2,178,313,1,

115,121,2,177,312,1,

115,120,2,176,310,1,

115,119,1,175,308,1,

114,118,2,174,306,2,

113,117,2,174,304,2,

113,117,2,173,303,2,

112,116,2,172,301,2,

112,115,2,171,300,1,

111,115,2,171,297,1,

110,114,1,169,295,1,

110,114,2,169,294,2,

109,113,1,167,293,1,

109,112,1,167,291,2,

108,112,1,166,290,2,

107,111,2,166,287,1,

107,110,2,165,286,2,

106,109,2,164,285,1,

105,109,1,163,283,1,

105,108,2,163,281,1,

105,108,1,162,280,2,

103,126,1,161,279,1,

103,125,1,160,277,2,

103,124,1,159,275,2,

103,123,1,159,274,1,

102,123,1,158,273,1,

102,122,1,158,271,1,

101,121,1,156,270,1,

99,120,2,156,269,1,

100,120,1,155,268,1,

149,119,1,155,266,1,

246,119,1,154,265,1,

248,118,1,153,263,1,

246,117,1,153,262,1,

243,116,1,152,261,1,

242,115,1,151,259,1,

241,115,1,151,258,1,

239,114,1,150,257,1,

238,114,1,149,255,1,

236,113,1,149,255,1,

235,113,1,163,253,1,

233,112,1,291,252,1,

231,111,1,309,251,1,

231,111,1,306,249,1,

230,110,1,304,248,1,

228,109,1,302,248,1,

227,109,1,300,246,1,

226,108,1,299,245,1,

224,108,1,295,243,1,

223,107,1,295,243,1,

222,107,1,293,241,1,

221,105,1,291,240,1,

220,105,1,290,239,1,

219,105,1,289,238,1,

217,103,1,287,237,1,

216,103,1,285,236,1,

215,103,1,283,235,1,

214,103,1,282,233,1,

212,102,1,280,231,1,

211,102,1,279,231,1,

210,101,1,277,231,1,

209,100,1,275,229,1,

207,100,1,274,227,1,

207,99,1,273,227,0,

206,99,1,271,226,1,

205,99,1,270,225,1,

204,98,1,268,224,1,

203,97,1,267,223,1,

202,97,1,265,222,1,

201,97,1,265,221,1,

199,96,1,263,220,1,

199,96,1,263,219,1,

198,95,1,261,219,1,

197,95,1,259,217,1,

196,95,1,259,216,1,

195,94,1,257,216,1,

195,93,0,255,215,1,

194,93,1,254,214,1,

193,92,1,253,213,1,

192,92,1,252,211,1,

192,92,1,251,211,1,

191,91,1,249,210,1,

189,91,1,248,209,0,

189,90,1,247,207,1,

188,89,1,246,207,1,

187,89,1,243,206,1,

185,89,1,243,206,1,

185,88,1,242,205,1,

184,88,1,241,204,1,

184,88,0,240,203,1,

182,87,1,239,202,1,

181,87,1,238,201,1,

181,86,1,236,199,1,

180,86,1,236,199,1,

179,85,1,234,199,1,

178,85,1,232,198,1,

177,84,1,231,196,1,

176,83,1,231,195,1,

176,84,1,230,195,1,

175,83,1,228,194,1,

174,83,1,227,193,1,

173,82,1,227,192,1,

172,82,1,225,192,1,

172,81,1,224,191,1,

170,81,1,224,190,1,

170,81,1,222,189,1,

169,80,1,221,188,1,

167,79,1,220,188,1,

167,79,1,219,187,1,

167,79,1,218,186,1,

166,78,1,217,185,1,

165,78,1,216,184,1,

164,78,1,215,184,1,

163,78,1,214,183,1,

163,77,1,213,182,1,

162,77,1,212,181,1,

161,77,1,211,181,1,

161,76,1,211,179,1,

159,76,1,209,179,1,

191,96,1,207,179,1,

230,96,1,207,177,1,

228,95,1,206,177,1,

227,95,1,205,176,1,

225,94,1,204,175,1,

224,93,1,204,175,1,

223,93,1,203,174,1,

222,92,1,201,173,1,

220,92,1,201,172,1,

220,91,1,201,172,1,

218,91,1,305,171,1,

218,90,1,365,170,1,

217,89,1,380,169,1,

217,89,1,377,258,1,

216,89,1,374,255,1,

214,88,1,372,254,1,

213,88,1,369,252,1,

211,88,1,368,250,1,

211,87,1,365,249,1,

210,87,1,363,248,1,

208,86,1,361,246,1,

207,85,1,359,244,1,

216,85,1,357,243,1,

327,91,1,355,242,1,

408,92,1,352,241,1,

403,92,1,351,239,1,

399,91,1,348,238,1,

397,90,1,346,237,1,

395,90,1,345,236,1,

391,89,1,343,235,1,

389,89,1,341,233,1,

387,89,1,339,231,1,

384,88,1,337,231,1,

382,88,1,335,229,1,

380,87,1,333,228,1,

377,86,1,332,227,1,

375,86,1,329,226,1,

372,86,1,327,224,0,

370,85,1,326,224,1,

368,85,1,324,223,1,

366,84,1,323,221,1,

364,84,1,321,221,1,

362,83,1,319,219,1,

359,83,1,318,219,1,

358,82,1,316,217,1,

356,82,1,315,216,1,

354,91,1,313,216,1,

352,91,1,312,214,1,

350,90,1,310,213,1,

348,90,1,308,211,1,

346,89,1,307,211,1,

344,89,1,305,210,1,

342,88,1,304,208,1,

340,88,1,302,207,1,

338,87,1,300,206,1,

337,86,1,299,206,1,

335,87,1,297,205,1,

333,86,1,295,203,1,

331,86,1,295,203,1,

329,85,1,293,201,1,

327,85,1,291,201,1,

326,84,1,290,199,1,

324,83,1,289,199,1,

322,83,1,287,198,1,

321,83,1,286,196,1,

319,83,1,284,195,1,

317,82,1,283,195,1,

316,81,1,281,193,1,

314,86,1,280,193,1,

313,86,1,279,192,1,

311,86,1,278,191,1,

309,85,1,276,190,1,

307,85,1,275,190,1,

305,84,1,273,188,1,

304,83,1,272,187,1,

303,83,1,271,187,1,

301,83,1,270,185,1,

300,82,1,268,185,1,

298,82,1,267,184,1,

297,82,1,265,183,1,

295,81,1,263,182,1,

294,80,1,263,181,1,

292,80,1,262,180,1,

291,79,1,261,179,1,

289,79,1,259,179,1,

287,79,1,258,178,1,

286,79,1,257,177,1,

285,78,1,255,176,1,

284,78,1,255,176,1,

282,77,1,254,175,2,

281,77,1,252,174,1,

280,76,1,251,173,2,

278,76,1,249,172,1,

277,76,1,249,171,1,

275,76,1,248,171,1,

274,75,1,247,170,1,

273,75,1,245,169,1,

271,75,1,244,167,1,

270,74,1,243,167,1,

269,73,1,242,167,1,

268,73,1,241,166,1,

266,73,1,240,166,1,

265,72,1,238,165,1,

263,71,1,237,163,1,

262,71,1,236,163,1,

261,71,1,235,163,1,

259,71,1,235,162,1,

259,71,1,233,161,1,

257,70,1,231,161,1,

255,70,1,231,159,1,

255,70,1,230,159,1,

254,69,1,229,159,1,

252,73,1,228,158,1,

251,126,1,227,157,1,

250,125,1,226,157,1,

249,125,1,225,156,1,

248,124,1,224,155,1,

246,123,1,223,154,1,

245,122,1,222,153,1,

243,121,1,220,153,1,

243,121,1,220,152,1,

241,120,1,219,152,1,

240,120,1,217,152,1,

239,119,1,217,150,1,

238,191,1,216,150,1,

237,209,1,215,149,1,

236,207,1,214,148,1,

235,206,1,212,148,1,

233,205,1,211,147,1,

231,203,1,210,146,1,

231,201,1,209,146,1,

230,201,1,209,145,1,

229,199,0,207,145,1,

227,198,1,207,144,1,

227,249,1,206,143,1,

255,248,1,205,143,1,

254,245,1,204,142,1,

252,243,1,204,141,1,

251,241,1,202,141,1,

249,240,1,201,140,1,

248,239,0,199,140,1,

247,238,1,199,139,1,

245,236,1,199,139,0,

243,235,0,198,138,1,

242,257,1,196,137,1,

241,254,1,195,137,1,

240,253,1,195,135,1,

238,252,1,194,135,1,

237,249,1,193,135,1,

236,248,1,192,134,0,

235,247,1,191,134,1,

233,245,1,190,134,1,

231,243,1,190,133,1,

231,242,1,189,132,1,

229,241,1,188,131,0,

228,240,1,187,131,1,

250,239,0,186,130,1,

249,237,1,185,130,1,

248,236,1,185,129,1,

245,234,1,184,129,1,

244,233,1,183,128,1,

243,231,1,182,127,1,

241,231,1,181,127,1,

240,229,0,180,126,0,

239,227,0,179,126,1,

237,227,1,207,126,1,

236,225,1,209,125,0,

235,224,1,207,124,0,

233,223,1,206,124,1,

231,222,0,205,124,1,

231,221,1,204,123,1,

229,220,0,203,122,1,

227,219,1,202,122,0,

227,217,1,199,121,1,

226,216,1,199,121,1,

224,215,1,198,120,1,

224,214,1,198,120,1,

241,289,1,196,120,1,

240,286,0,282,119,1,

239,284,1,380,118,0,

237,283,1,487,118,1,

236,280,1,483,197,0,

234,278,1,478,195,1,

233,276,0,475,193,0,

231,275,1,472,192,1,

230,274,0,467,191,1,

228,271,1,464,189,1,

227,270,0,462,188,0,

226,268,1,459,187,0,

225,268,1,455,186,0,

224,265,1,451,185,1,

223,263,1,449,184,1,

222,263,0,446,183,0,

220,261,0,443,194,0,

219,259,1,440,193,1,

218,258,0,437,192,1,

217,257,0,435,191,1,

216,255,1,432,189,0,

216,254,0,428,188,0,

214,252,0,425,187,0,

213,251,0,423,186,1,

212,250,0,421,185,0,

211,248,1,418,184,1,

210,247,1,415,184,1,

209,246,1,413,182,0,

207,245,1,411,181,1,

207,243,1,408,180,0,

206,242,1,406,179,1,

205,240,1,403,178,0,

204,239,0,401,177,0,

203,238,1,399,176,0,

202,237,0,396,175,0,

201,235,1,393,174,0,

199,234,0,391,173,0,

199,233,0,389,172,0,

199,231,1,387,172,0,

198,231,0,385,171,1,

197,229,0,382,169,1,

195,228,0,380,169,1,

195,227,1,378,167,0,

194,226,1,376,167,1,

194,225,1,374,167,0,

193,224,0,371,166,1,

192,223,0,370,174,1,

191,221,1,368,199,1,

190,220,1,366,198,0,

189,219,0,364,196,1,

189,218,0,361,195,1,

188,217,1,359,194,1,

187,216,0,358,193,1,

186,216,0,355,192,1,

185,214,1,354,191,1,

184,212,1,352,190,1,

184,211,1,350,189,1,

183,211,1,348,188,1,

182,209,1,346,187,1,

181,207,1,344,186,1,

180,207,1,343,185,1,

179,206,1,341,184,1,

178,205,1,339,183,1,

178,204,1,337,182,1,

177,203,1,335,181,1,

176,202,1,334,179,1,

175,201,1,332,179,1,

174,199,1,329,178,1,

174,199,1,327,177,1,

173,198,1,327,176,1,

172,197,1,325,176,1,

171,196,1,323,174,1,

170,195,1,321,173,1,

170,194,1,319,172,1,

177,193,1,318,172,1,

176,192,1,316,170,1,

175,192,1,314,169,1,

174,190,1,313,168,1,

173,190,1,312,167,1,

172,189,1,310,167,1,

171,188,1,308,166,1,

171,187,1,307,165,1,

169,186,1,305,164,1,

167,185,1,304,163,1,

167,184,1,302,163,1,

167,183,1,301,162,1,

166,182,1,299,161,1,

165,181,1,297,160,1,

165,180,1,295,159,1,

163,179,1,295,159,1,

163,178,1,293,158,1,

162,178,1,291,157,1,

161,177,1,290,156,1,

161,176,1,289,155,1,

159,175,1,287,155,1,

159,174,1,286,154,1,

159,174,1,285,153,1,

158,173,1,284,152,1,

157,172,1,282,152,1,

157,171,1,281,151,1,

156,171,1,279,150,1,

155,169,1,278,149,1,

155,169,1,276,148,1,

153,167,1,275,148,1,

153,167,1,273,147,1,

152,166,1,272,146,1,

152,165,1,271,145,1,

151,165,1,270,145,1,

150,164,1,268,143,1,

150,163,1,267,143,1,

149,162,1,266,143,1,

148,161,1,263,142,1,

147,161,1,263,141,1,

147,159,1,262,140,1,

146,159,1,261,140,1,

146,158,1,259,140,1,

145,158,1,259,139,1,

144,157,1,257,138,1,

143,156,1,255,137,1,

143,155,1,255,137,1,

143,155,1,253,135,1,

142,154,1,252,135,1,

141,153,1,251,134,1,

141,152,1,250,134,0,

140,152,1,249,133,0,

139,151,1,248,133,0,

139,151,1,247,132,1,

138,150,1,246,131,1,

137,149,1,244,130,1,

137,148,1,243,130,1,

135,147,1,242,129,1,

135,147,1,240,128,1,

135,146,1,239,127,0,

134,145,0,238,127,0,

134,144,1,237,127,1,

133,143,1,236,126,0,

133,143,0,235,125,1,

132,143,0,234,125,1,

131,142,0,231,124,1,

131,142,0,231,124,1,

131,141,1,231,123,1,

131,140,0,230,122,1,

130,140,0,229,121,0,

130,138,1,227,121,0,

129,138,1,227,121,0,

128,137,1,226,120,0,

127,137,1,224,120,1,

127,135,0,224,119,0,

126,135,1,223,119,0,

126,135,0,221,118,1,

126,135,0,220,118,1,

125,134,1,220,117,1,

125,133,1,219,116,0,

124,132,1,217,116,0,

124,131,0,216,115,0,

123,131,0,216,115,0,

123,131,0,215,114,0,

122,130,0,214,113,0,

121,129,1,212,114,1,

121,129,0,211,113,0,

121,128,1,211,112,1,

120,127,1,210,112,0,

120,127,0,209,111,0,

119,126,1,207,111,0,

118,126,0,207,110,0,

118,125,0,206,110,1,

118,125,0,205,110,0,

117,124,0,204,109,1,

116,124,0,203,108,0,

115,123,1,202,108,1,

115,122,0,201,108,1,

115,121,0,201,108,0,

152,121,0,199,107,0,

150,121,0,199,106,0,

149,120,0,199,105,0,

147,120,0,197,105,0,

147,119,0,196,105,0,

146,119,0,195,103,0,

146,118,0,195,103,0,

145,118,0,194,103,0,

143,117,0,193,103,0,

143,115,1,192,103,0,

142,115,0,192,102,0,

142,115,0,190,102,0,

141,115,0,190,101,0,

140,114,0,189,101,0,

139,114,0,188,100,0,

138,113,1,187,100,0,

137,113,0,186,99,0,

137,112,0,185,99,0,

135,112,0,185,99,0,

135,111,0,184,98,0,

135,110,0,184,98,0,

135,110,0,183,98,0,

135,110,0,182,97,0,

134,109,0,181,97,0,

133,109,0,180,96,0,

132,108,0,179,96,0,

131,108,0,178,96,0,

131,107,0,178,95,0,

131,107,0,177,95,0,

130,106,0,176,94,0,

129,105,1,176,94,0,

129,105,0,175,93,0,

127,105,0,174,93,0,

127,105,0,174,93,0,

127,103,0,173,92,0,

126,103,0,172,92,0,

126,103,0,172,92,0,

125,103,0,171,91,0,

124,102,0,170,91,0,

124,102,0,169,90,0,

123,101,0,167,90,0,

123,101,0,167,89,0,

121,100,0,167,89,0,

121,100,0,167,89,0,

121,99,0,166,89,0,

120,99,0,166,88,0,

119,99,0,164,88,0,

119,98,0,164,88,0,

118,98,1,163,88,0,

118,97,0,163,87,0,

117,97,0,162,86,0,

117,96,0,162,86,0,

116,96,0,161,86,0,

115,96,0,159,85,0,

115,96,0,159,85,0,

115,95,0,159,85,0,

114,95,0,158,84,0,

114,94,0,158,85,0,

113,94,0,157,84,0,

113,93,0,157,83,0,

112,93,0,156,83,0,

112,93,0,156,83,0,

112,92,0,155,83,0,

111,92,0,154,82,0,

111,91,0,153,82,0,

110,91,0,153,81,0,

110,91,0,152,81,0,

109,91,0,152,81,0,

109,90,0,152,80,0,

108,89,0,151,80,0,

108,89,0,150,80,0,

108,89,0,150,79,0,

107,88,0,149,79,0,

107,88,0,148,79,0,

106,88,0,148,79,0,

106,88,0,147,78,0,

105,88,0,146,78,0,

105,87,0,146,78,0,

103,86,0,145,77,0,

103,86,0,145,77,0,

103,86,0,144,77,0,

103,85,0,143,76,0,

103,85,0,143,76,0,

103,84,0,143,76,0,

102,83,0,142,76,0,

102,83,0,142,75,0,

101,83,0,141,75,0,

100,83,0,140,75,0,

100,82,0,140,74,0,

99,82,0,140,74,0,

105,82,0,139,74,0,

103,81,0,138,73,0,

103,81,0,137,73,0,

103,80,0,137,73,0,

103,81,0,137,72,0,

102,79,0,135,73,0,

102,79,0,135,71,0,

101,79,0,135,71,0,

101,79,0,135,71,0,

100,79,0,134,71,0,

99,79,0,134,71,0,

99,78,0,133,71,0,

99,78,0,132,70,0,

99,78,0,132,70,0,

98,77,0,131,70,0,

98,77,0,131,70,0,

97,77,0,131,69,0,

97,76,0,130,69,0,

97,76,0,130,69,0,

96,76,0,129,68,0,

96,76,0,129,68,0,

96,75,0,128,68,1,

95,75,0,127,67,0,

95,74,0,129,67,1,

95,74,0,128,67,0,

94,74,0,127,67,0,

93,74,0,127,67,0,

93,73,0,126,67,0,

93,73,0,126,66,0,

93,71,0,126,66,0,

92,71,0,125,66,0,

92,71,0,125,65,0,

92,71,0,124,65,0,

91,71,0,124,65,0,

91,71,0,126,65,0,

91,71,0,179,64,0,

90,71,0,271,64,0,

90,70,0,366,64,0,

89,70,0,375,63,0,

89,70,0,371,63,0,

88,70,0,369,63,0,

88,69,0,368,63,0,

88,69,0,365,63,0,

88,69,0,363,63,0,

88,68,0,361,62,0,

87,68,0,359,62,0,

87,67,0,357,62,0,

87,67,0,355,61,0,

86,67,0,353,61,0,

86,67,0,352,61,0,

86,67,0,349,61,0,

85,67,0,348,61,0,

85,66,0,346,61,0,

84,66,0,344,60,0,

84,66,0,342,60,0,

83,65,0,340,60,0,

83,65,0,339,59,0,

83,65,0,337,59,0,

83,65,0,335,59,0,

83,64,0,334,59,0,

82,64,0,332,59,0,

82,63,0,331,58,0,

81,63,0,327,58,0,

81,63,0,327,58,0,

81,63,0,326,57,0,

80,63,0,324,57,0,

80,62,0,322,57,0,

79,62,0,321,57,0,

79,62,0,319,57,0,

79,62,0,318,56,0,

79,61,0,316,56,0,

79,61,0,315,56,0,

79,61,0,313,56,0,

78,61,0,312,56,0,

78,61,0,310,56,0,

77,60,0,309,55,0,

77,60,0,307,55,0,

77,60,0,306,55,0,

76,60,0,305,55,0,

76,59,0,304,54,0,

76,59,0,302,55,0,

76,59,0,301,54,0,

76,59,0,299,53,0,

75,59,0,297,54,0,

75,58,0,295,53,0,

75,57,0,295,53,0,

74,57,0,294,53,0,

74,57,0,292,53,0,

73,57,0,291,53,0,

73,57,0,289,52,0,

73,57,0,287,52,0,

73,57,0,287,52,0,

73,56,0,286,52,0,

71,56,0,285,51,0,

71,56,0,284,51,0,

71,56,0,282,51,0,

71,56,0,281,51,0,

71,55,0,280,50,0,

71,55,0,279,51,0,

71,55,0,277,50,0,

71,54,0,276,50,0,

71,54,0,275,50,0,

71,54,0,274,50,0,

71,54,0,272,49,0,

70,54,0,271,49,0,

70,53,0,270,49,0,

70,53,0,269,49,0,

69,53,0,268,49,0,

69,52,0,266,48,0,

69,52,0,265,48,0,

69,52,0,263,48,0,

68,52,1,263,48,0,

68,51,0,262,48,0,

67,51,0,261,48,0,

67,51,0,259,47,0,

67,51,0,258,47,0,

67,51,0,257,47,0,

67,51,0,255,47,0,

66,50,0,255,46,0,

66,50,0,254,46,0,

66,50,0,253,46,0,

65,50,0,252,46,0,

65,49,0,251,46,0,

65,49,0,249,46,0,

65,49,0,249,45,0,

64,49,0,248,45,0,

64,49,0,247,45,0,

64,49,0,245,45,0,

64,48,0,244,45,0,

63,48,0,243,45,0,

63,48,0,243,44,0,

63,48,0,241,44,0,

63,48,0,240,44,0,

62,47,0,240,44,0,

62,47,0,239,44,0,

66,66,0,237,43,0,

73,66,0,236,43,0,

71,65,0,235,43,0,

71,65,0,235,43,0,

71,64,0,233,43,0,

71,64,0,231,43,0,

71,63,0,231,42,0,

71,63,0,231,43,0,

70,63,0,230,42,0,

70,62,0,229,42,0,

70,62,0,227,42,0,

69,62,0,227,41,0,

83,61,0,226,41,0,

129,61,0,225,41,0,

127,61,0,224,41,0,

127,61,0,223,41,0,

126,60,0,222,41,0,

125,60,0,221,41,0,

125,60,0,220,41,0,

124,60,0,219,39,0,

124,60,0,218,39,0,

123,59,0,217,39,0,

122,59,0,216,39,0,

121,58,0,216,39,0,

121,58,0,215,39,0,

120,57,0,214,39,0,

120,57,0,213,39,0,

120,57,0,212,39,0,

119,57,0,211,39,0,

118,56,0,210,39,0,

117,56,0,209,38,0,

117,56,0,208,38,0,

116,56,0,207,38,0,

115,55,0,207,38,0,

115,55,0,206,38,0,

115,55,0,205,37,0,

114,55,0,204,37,0,

113,54,0,204,37,0,

113,54,0,203,37,0,

112,54,0,201,37,0,

112,53,0,201,37,0,

111,53,0,199,37,0,

111,52,0,199,36,0,

110,52,0,198,36,0,

109,52,0,197,36,0,

109,51,0,197,36,0,

109,51,0,196,36,0,

108,51,0,195,35,0,

108,51,0,194,36,0,

107,51,0,193,35,0,

106,51,0,193,35,0,

106,50,0,192,35,0,

105,50,0,191,35,0,

105,49,0,190,34,0,

104,49,0,189,35,0,

103,49,0,189,34,0,

103,49,0,188,34,0,

103,48,0,187,34,0,

102,49,0,186,34,0,

102,48,0,185,34,0,

101,48,0,184,34,0,

101,48,0,184,34,0,

100,48,0,184,33,0,

100,47,0,183,33,0,

99,47,0,182,33,0,

99,47,0,181,33,0,

99,47,0,180,32,0,

98,46,0,179,32,0,

98,46,0,179,33,0,

97,46,0,178,32,0,

97,46,0,177,31,0,

96,46,0,177,31,0,

96,46,0,176,31,0,

96,45,0,176,31,0,

95,45,0,175,31,0,

95,45,0,174,31,0,

94,44,0,174,31,0,

94,44,0,173,31,0,

93,44,0,172,31,0,

93,44,0,172,31,0,

92,44,0,171,31,0,

92,44,0,170,31,0,

92,44,0,169,30,0,

91,44,0,169,30,0,

91,43,0,167,30,0,

91,43,0,167,30,0,

90,43,0,167,30,0,

90,42,0,167,30,0,

89,42,0,166,30,0,

89,42,0,165,30,0,

89,42,0,165,29,0,

88,41,0,164,29,0,

88,41,0,163,29,0,

88,41,0,163,29,0,

88,41,0,162,29,0,

87,41,0,161,29,0,

86,41,0,161,29,0,

86,41,0,160,28,0,

86,41,0,159,28,0,

85,39,0,159,28,0,

85,39,0,158,28,0,

84,39,0,158,28,0,

84,39,0,157,28,0,

83,39,0,156,28,0,

83,39,0,156,28,0,

83,39,0,156,28,0,

82,39,0,155,27,0,

82,39,0,155,28,0,

82,39,0,153,27,0,

81,44,0,153,27,0,

81,45,0,152,27,0,

81,44,0,152,27,0,

80,44,0,152,27,0,

80,44,0,151,27,0,

79,44,0,150,27,0,

79,44,0,150,26,0,

79,43,0,149,26,0,

79,43,0,148,26,0,

78,42,0,148,26,0,

78,43,0,147,26,0,

78,42,1,146,25,0,

77,42,0,146,26,0,

77,41,0,145,25,0,

81,41,0,145,25,0,

97,41,0,144,25,0,

97,41,0,143,25,0,

97,41,0,143,25,0,

96,41,0,143,25,0,

96,39,0,142,25,0,

95,39,0,142,24,0,

95,39,0,142,25,0,

94,39,0,141,25,0,

93,39,0,140,24,0,

93,41,0,140,24,0,

93,41,0,139,24,0,

92,41,0,139,24,0,

92,39,0,138,24,0,

91,40,0,137,24,0,

91,39,0,137,24,0,

90,39,0,137,24,0,

89,39,0,135,24,0,

89,39,0,135,24,0,

89,39,0,135,24,0,

89,39,0,135,24,0,

88,39,0,134,23,0,

88,39,0,134,23,0,

88,38,0,133,23,0,

87,38,0,133,23,0,

86,38,0,132,23,0,

86,38,0,131,23,0,

86,38,0,131,22,0,

85,37,0,131,22,0,

85,37,0,130,23,0,

85,37,0,130,22,0,

84,37,0,129,22,0,

83,37,0,129,22,0,

83,37,0,127,22,0,

83,36,0,127,22,0,

82,36,0,127,22,0,

124,36,0,127,22,0,

129,82,0,126,21,0,

128,81,0,126,21,0,

127,80,0,125,21,0,

126,79,0,125,21,0,

126,79,0,124,21,0,

125,78,0,124,21,0,

125,78,0,123,20,0,

124,78,0,123,21,0,

123,77,0,123,20,0,

123,77,0,122,20,0,

122,77,0,121,20,0,

121,76,0,121,20,0,

121,76,0,120,20,0,

120,76,0,120,20,0,

120,75,0,120,19,0,

119,75,0,119,19,0,

118,74,0,119,19,0,

118,73,0,118,19,0,

117,73,0,118,19,0,

117,73,0,118,19,0,

116,73,0,117,19,0,

115,71,0,116,19,0,

115,71,0,116,19,0,

115,71,0,115,19,0,

114,71,0,115,19,0,

113,71,0,115,19,0,

112,70,0,114,19,0,

112,70,0,114,19,0,

112,70,0,113,19,0,

111,69,0,113,19,0,

110,69,0,112,19,0,

110,68,0,112,19,0,

110,68,0,112,19,0,

109,67,0,111,18,0,

108,67,0,111,18,0,

108,67,0,110,18,0,

108,67,0,110,18,0,

107,66,0,110,17,1,

106,66,0,109,18,0,

106,66,0,109,18,0,

105,66,0,108,17,0,

105,65,0,108,18,0,

104,65,0,107,18,0,

103,64,0,107,17,0,

103,63,0,107,17,0,

103,63,0,107,17,0,

102,63,0,106,17,0,

102,63,0,105,17,0,

102,63,0,105,17,0,

101,62,0,105,17,0,

100,62,0,103,17,0,

99,62,0,103,17,0,

99,62,0,103,17,0,

99,61,0,103,16,0,

99,61,0,103,16,0,

98,61,0,103,16,0,

98,60,0,102,16,1,

97,60,0,102,16,0,

97,60,0,101,15,0,

96,59,1,101,16,0,

96,59,0,101,15,0,

96,59,0,100,15,0,

95,59,0,99,15,0,

95,58,0,99,15,0,

94,58,0,99,15,0,

94,58,0,99,15,0,

93,57,0,99,15,0,

93,57,0,98,15,0,

93,57,0,98,15,0,

92,57,0,97,15,0,

107,56,0,97,15,0,

106,56,0,97,15,0,

105,56,0,97,15,0,

105,56,0,96,14,0,

103,56,0,96,15,0,

103,55,0,95,15,0,

103,55,0,95,14,0,

103,55,0,95,14,0,

102,54,0,94,14,0,

102,54,0,94,14,0,

101,54,0,94,14,0,

101,54,0,93,14,0,

100,53,0,93,14,0,

99,53,0,93,14,0,

99,53,0,92,14,0,

99,52,0,92,14,0,

98,52,0,92,14,0,

98,52,0,92,14,0,

98,51,0,91,14,0,

97,51,0,91,13,0,

97,51,0,91,14,0,

96,51,0,90,13,0,

96,51,0,90,13,0,

96,50,0,89,13,0,

95,50,0,89,13,0,

95,50,0,89,14,0,

94,50,0,89,13,0,

94,49,0,88,13,0,

93,50,0,88,13,0,

93,49,0,88,13,1,

92,49,0,88,13,0,

92,49,0,87,13,1,

92,48,0,87,13,0,

91,48,0,87,13,0,

91,48,0,86,13,0,

91,48,0,86,12,0,

90,48,0,86,13,0,

90,47,0,85,12,0,

89,47,0,85,12,0,

89,47,0,85,13,0,

91,56,0,84,12,0,

91,56,0,84,12,0,

90,56,0,83,12,0,

90,56,0,83,12,0,

89,55,0,83,12,0,

89,54,0,83,12,0,

89,54,0,82,12,0,

89,54,0,83,12,0,

88,54,0,82,12,0,

88,53,0,82,11,0,

88,53,0,82,12,0,

87,53,0,81,12,0,

87,53,0,81,11,0,

86,53,0,80,11,0,

85,51,0,80,11,0,

86,51,0,79,11,0,

85,51,0,79,12,0,

85,51,0,79,11,0,

84,51,0,79,11,0,

83,51,0,79,11,0,

83,50,0,79,11,0,

83,50,0,79,11,0,

83,50,0,78,11,0,

82,50,0,78,11,0,

82,50,0,77,11,0,

82,49,0,77,11,0,

81,49,0,77,11,0,

81,49,0,76,11,0,

81,48,0,77,11,0,

80,48,0,76,11,0,

80,48,0,76,11,0,

79,48,0,76,11,0,

79,48,0,76,11,0,

79,48,0,75,11,0,

79,47,0,75,10,0,

78,47,0,75,10,0,

78,47,0,74,10,0,

86,46,0,74,10,0,

121,51,0,74,10,0,

120,51,0,73,10,0,

120,51,0,73,11,0,

119,50,0,73,10,0,

118,50,0,73,10,0,

117,50,0,71,10,0,

117,50,0,71,10,0,

116,49,0,71,10,0,

115,49,0,71,10,0,

115,49,0,71,9,0,

115,48,0,71,10,0,

114,48,0,71,9,0,

114,48,0,71,9,0,

113,48,0,70,9,0,

112,48,0,70,10,0,

112,48,0,70,9,0,

112,47,0,70,9,0,

111,47,0,69,9,0,

110,47,0,69,9,0,

110,46,0,69,9,0,

110,46,0,69,9,0,

109,46,0,68,9,0,

109,46,0,68,9,0,

108,46,0,68,9,0,

108,45,0,67,9,0,

108,45,0,67,9,0,

107,46,0,67,9,0,

106,46,0,67,9,0,

106,46,0,67,9,0,

105,45,0,67,9,0,

105,45,0,66,9,0,

103,45,0,66,8,0,

103,45,0,66,7,0,

103,45,0,66,8,0,

103,44,0,65,8,0,

103,44,0,65,8,0,

102,44,0,65,7,0,

102,44,0,65,7,0,

102,63,0,119,8,0,

101,68,0,117,7,0,

100,67,0,116,7,0,

99,67,0,115,7,0,

99,67,0,115,7,0,

99,66,0,115,7,0,

99,66,0,114,7,0,

98,66,0,113,7,0,

97,65,0,113,7,0,

97,65,0,112,7,0,

97,65,0,112,7,0,

96,64,0,111,7,0,

96,63,0,111,7,0,

96,63,0,110,7,0,

96,63,0,110,7,0,

95,63,0,109,7,0,

94,62,0,109,7,0,

94,62,0,109,7,0,

94,62,0,108,7,0,

93,62,0,108,7,0,

93,62,0,107,7,0,

92,61,0,107,7,0,

92,61,0,106,7,0,

91,61,0,105,7,0,

91,60,0,105,7,0,

91,60,0,103,7,0,

90,60,0,103,7,0,

90,60,0,103,7,0,

89,59,0,103,7,0,

89,59,0,103,7,0,

89,59,0,102,7,0,

88,59,0,102,7,0,

88,58,0,102,7,0,

88,58,0,101,7,0,

87,57,0,100,7,0,

87,57,0,100,7,0,

87,57,0,100,7,0,

86,57,0,99,7,0,

86,57,0,99,7,0,

86,56,0,99,7,0,

85,61,0,98,7,0,

85,61,0,98,7,0,

84,60,0,97,7,0,

84,60,0,97,7,0,

83,60,0,97,7,0,

83,60,0,96,7,0,

83,59,0,96,7,0,

83,59,0,95,6,0,

82,59,0,95,6,0,

82,59,0,95,7,0,

82,58,0,94,6,0,

81,57,0,94,6,0,

81,57,0,94,7,0,

81,57,0,93,7,0,

81,57,0,93,6,0,

79,57,0,92,6,0,

79,56,0,92,7,0,

79,56,0,92,7,0,

79,56,0,91,6,0,

79,56,0,91,7,0,

78,56,0,91,6,0,

78,55,0,90,7,0,

78,55,0,90,6,0,

78,55,0,89,6,0,

77,54,0,89,6,0,

77,54,0,89,6,0,

77,54,0,88,7,0,

76,54,0,88,6,0,

76,53,0,88,6,0,

75,53,0,88,6,0,

75,53,0,87,6,0,

75,52,0,87,6,0,

75,53,0,87,6,0,

75,52,0,86,6,0,

74,52,0,86,6,0,

74,52,0,86,6,0,

73,51,0,85,5,0,

73,51,0,85,6,0,

73,51,0,84,6,0,

72,51,0,84,6,0,

71,51,0,83,6,0,

71,50,0,83,6,0,

71,50,0,83,6,0,

71,50,0,82,5,0,

71,50,0,82,5,0,

71,49,0,82,6,0,

71,49,0,82,5,0,

71,49,0,82,6,0,

70,49,0,81,6,0,

70,49,0,81,5,0,

70,48,0,81,5,0,

69,48,0,80,5,0,

69,48,0,79,5,1,

69,48,0,79,5,0,

69,48,0,79,5,0,

68,47,0,79,5,0,

68,47,0,79,5,0,

67,47,0,78,5,0,

67,47,0,78,5,0,

67,47,0,77,5,0,

67,46,0,78,5,0,

67,46,0,77,5,0,

66,46,0,77,5,0,

66,46,0,77,5,0,

66,45,0,76,5,0,

66,45,0,76,5,0,

65,45,0,76,5,0,

65,45,0,75,5,0,

65,45,0,76,5,0,

65,50,0,75,5,0,

65,69,0,75,5,0,

64,71,0,74,4,0,

63,70,0,74,5,0,

63,70,0,74,5,0,

63,69,0,73,4,0,

63,69,0,73,5,0,

63,69,0,73,4,0,

63,68,0,72,5,0,

62,68,0,71,5,0,

62,67,0,71,4,0,

62,67,0,71,5,0,

62,67,0,71,4,0,

62,67,0,105,4,0,

61,69,0,125,5,0,

61,69,0,124,5,0,

61,68,0,124,4,0,

60,67,0,123,4,0,

61,67,0,122,4,1,

60,67,0,122,4,0,

60,67,0,121,4,0,

60,66,0,121,4,0,

59,66,0,120,4,0,

59,66,0,120,4,0,

59,65,0,119,4,0,

59,65,0,119,5,0,

58,65,0,118,4,0,

59,65,0,118,4,0,

58,64,0,117,4,0,

58,64,0,116,3,0,

58,63,0,116,4,0,

58,63,0,115,4,0,

57,63,0,115,3,0,

57,63,0,114,4,0,

57,63,0,114,4,0,

57,62,0,113,3,0,

57,62,0,113,4,0,

56,62,0,112,4,0,

56,61,0,112,3,0,

56,61,0,112,3,0,

56,75,0,111,3,0,

56,76,0,111,3,0,

55,79,0,110,4,0,

55,79,0,110,3,0,

55,79,0,109,3,0,

55,78,0,108,3,0,

55,78,0,108,3,0,

54,78,0,108,4,0,

53,77,0,107,3,0,

54,76,0,107,3,0,

54,76,0,106,3,0,

53,76,0,106,3,0,

53,75,0,105,3,0,

53,75,0,105,3,0,

62,75,0,104,3,0,

62,74,0,103,3,0,

62,74,0,103,3,0,

61,74,0,103,3,0,

61,73,0,103,3,0,

61,73,0,103,3,0,

60,73,0,102,3,0,

60,71,0,102,3,0,

60,71,0,101,3,0,

60,71,0,101,3,0,

59,71,0,100,3,0,

59,71,0,100,3,0,

59,70,0,99,3,0,

58,70,0,99,3,0,

58,70,0,99,3,0,

58,70,0,98,3,0,

57,70,0,98,3,0,

57,69,0,97,3,0,

57,69,0,97,3,0,

57,68,0,97,3,0,

57,68,0,96,3,0,

56,68,0,96,3,0,

56,67,0,96,3,0,

56,67,0,96,3,0,

56,67,0,95,3,0,

56,67,0,94,3,0,

56,66,0,94,3,0,

55,66,0,94,3,0,

55,66,0,93,3,0,

55,65,0,93,3,0,

54,66,0,93,3,0,

54,65,0,92,2,0,

54,64,0,92,3,0,

54,64,0,92,2,0,

53,63,0,92,2,0,

53,63,0,91,3,0,

53,63,0,91,3,0,

53,63,0,91,2,0,

52,63,0,89,3,0,

53,63,0,89,3,0,

52,63,0,89,2,0,

52,62,0,89,2,0,

52,62,0,88,3,0,

51,62,0,88,3,0,

51,61,0,88,2,0,

51,61,0,88,2,0,

51,61,0,87,3,0,

51,60,0,87,2,0,

51,60,0,87,2,0,

51,60,0,86,2,0,

50,60,0,86,2,0,

50,60,0,85,2,0,

50,60,0,85,2,0,

69,59,0,85,2,0,

68,59,0,84,2,0,

67,59,0,84,2,0,

67,59,0,83,3,0,

67,58,0,83,2,0,

67,58,0,83,2,0,

66,58,0,83,2,0,

66,57,0,83,2,0,

66,57,0,82,2,0,

65,57,0,82,2,0,

65,57,0,81,2,0,

65,57,0,81,2,0,

65,56,1,81,2,0,

65,56,1,81,2,0,

64,56,1,81,2,1,

64,56,1,80,2,1,

63,56,2,80,2,3,

63,55,3,79,2,3,

63,55,5,79,2,5,

63,55,6,79,3,5,

62,54,7,79,3,7,

62,54,7,78,3,7,

62,54,9,78,3,9,

62,54,10,78,3,9,

62,54,11,77,3,10,

61,53,12,77,3,12,

61,53,13,77,2,12,

61,53,13,76,3,12,

61,52,14,76,21,13,

82,53,14,76,76,14,

81,53,15,79,77,15,

81,53,16,78,76,15,

80,52,16,78,76,16,

79,52,17,77,75,17,

79,51,17,77,74,17,

79,51,17,76,74,17,

79,51,18,76,73,18,

78,50,18,76,73,18,

78,50,18,75,73,18,

78,50,19,75,71,19,

115,51,19,75,71,18,

120,56,19,74,71,18,

118,56,19,74,71,18,

118,55,19,73,70,18,

117,55,19,73,70,19,

116,54,19,73,70,18,

115,54,18,73,69,18,

115,54,18,71,69,18,

114,54,18,71,69,18,

114,53,18,71,68,18,

113,53,18,71,68,18,

113,52,18,71,67,18,

112,52,18,71,67,18,

112,52,18,70,66,18,

112,52,18,70,66,17,

111,51,18,70,66,17,

110,51,17,69,65,17,

110,51,17,68,65,17,

109,50,17,68,65,17,

109,50,17,68,64,16,

108,50,17,68,63,17,

107,49,17,67,63,16,

107,49,17,67,63,17,

106,49,17,67,63,16,

105,49,16,67,62,16,

105,48,16,67,62,16,

105,48,16,66,62,16,

105,48,16,66,62,15,

103,48,16,66,61,15,

103,48,15,65,61,16,

103,47,15,65,61,15,

102,47,15,65,61,15,

102,47,15,65,60,15,

101,46,15,64,60,15,

101,46,15,67,59,15,

100,46,15,68,60,15,

99,46,15,67,59,15,

99,45,15,67,59,15,

99,45,15,67,58,15,

98,45,15,66,58,15,

98,45,14,66,57,14,

97,45,14,66,57,14,

97,44,14,65,57,14,

96,44,14,65,57,14,

96,44,14,65,57,14,

96,44,14,65,56,14,

95,44,14,64,56,14,

94,44,14,64,56,14,

94,44,14,63,56,13,

94,43,14,63,56,14,

93,43,14,63,55,13,

92,43,13,63,55,13,

92,43,13,62,54,13,

92,42,13,62,54,13,

91,42,13,62,54,13,

91,42,13,62,54,13,

91,42,13,62,53,12,

90,41,13,61,53,12,

89,41,13,61,53,12,

89,41,13,61,52,12,

89,41,13,61,52,12,

88,39,13,60,51,12,

88,39,12,60,51,12,

88,39,13,60,51,12,

88,39,12,59,51,12,

87,39,12,59,51,12,

86,39,12,59,51,12,

86,39,12,59,50,12,

85,39,12,78,50,12,

85,39,12,78,49,11,

84,39,12,77,50,11,

84,38,12,77,49,12,

83,38,12,76,49,11,

83,38,11,76,48,11,

83,38,12,76,48,11,

83,38,11,75,48,11,

82,38,11,75,48,11,

82,37,11,74,48,11,

81,37,11,74,47,11,

81,37,11,74,47,11,

99,50,11,73,47,11,

101,50,11,73,47,10,

99,49,11,73,46,10,

99,49,11,71,46,10,

98,49,10,71,46,10,

98,48,10,71,46,10,

98,48,10,71,46,10,

97,48,10,71,45,9,

96,48,10,70,45,10,

96,47,10,70,45,10,

96,47,10,70,45,9,

96,47,10,69,44,9,

95,47,9,69,44,9,

94,46,9,69,44,9,

94,46,10,68,44,9,

93,46,9,68,44,9,

93,46,9,67,44,9,

93,46,9,67,43,9,

92,45,9,67,43,9,

92,45,9,67,43,9,

91,45,9,66,43,9,

91,45,9,66,42,9,

90,44,9,66,42,9,

90,44,9,66,42,9,

