
60,12,3,25,61,3,

61,13,3,26,61,3,

60,12,4,25,61,3,

60,13,3,25,61,4,

60,12,3,25,60,3,

60,12,4,24,60,4,

59,12,3,25,60,3,

59,12,3,25,60,3,

59,12,3,24,59,4,

59,12,3,25,60,4,

58,12,4,24,59,3,

59,12,4,24,59,3,

58,12,4,24,58,3,

58,12,3,24,57,4,

57,12,4,24,58,3,

57,12,3,24,57,4,

57,11,4,24,57,3,

57,12,4,24,57,3,

56,12,4,24,57,3,

56,12,4,24,56,4,

56,12,3,24,57,4,

56,12,3,24,56,3,

62,14,4,23,56,4,

71,17,3,23,56,3,

71,17,4,23,55,4,

71,17,3,23,55,3,

71,17,4,23,55,4,

70,17,4,23,55,4,

70,16,3,23,54,3,

70,16,3,22,55,3,

70,16,3,22,54,3,

69,16,4,22,54,3,

68,16,4,23,54,3,

68,16,4,22,53,4,

68,16,3,22,54,3,

67,16,4,24,53,3,

67,16,4,24,54,4,

67,17,4,23,53,3,

67,15,4,24,52,3,

67,16,4,24,53,3,

66,15,3,22,51,3,

67,15,4,23,52,3,

66,16,3,23,51,4,

65,15,3,22,51,4,

65,15,5,22,51,3,

65,15,3,23,51,4,

65,15,3,22,50,3,

64,15,3,22,50,4,

63,15,3,21,50,3,

64,15,4,22,112,4,

63,16,4,22,135,5,

63,15,4,22,135,4,

63,15,3,22,135,3,

62,16,4,23,133,4,

62,15,4,26,132,3,

62,14,4,27,132,3,

62,15,3,27,131,3,

62,14,4,26,130,3,

61,14,3,26,129,3,

61,15,4,26,129,3,

61,15,3,25,129,3,

60,15,5,25,128,4,

60,14,4,98,127,3,

60,14,4,96,127,3,

60,14,4,96,126,3,

59,14,3,95,125,4,

60,14,3,94,125,4,

59,14,4,94,124,3,

59,14,3,94,124,4,

58,14,4,93,123,3,

58,14,5,92,122,3,

57,13,4,92,121,4,

57,13,3,92,121,4,

58,14,5,91,121,4,

59,14,4,91,120,4,

58,14,4,90,120,3,

59,13,4,90,120,3,

58,14,3,90,119,3,

58,14,3,89,118,4,

57,13,3,88,117,3,

57,13,4,88,117,3,

57,13,3,88,116,4,

56,13,3,88,116,3,

56,13,3,88,115,3,

56,13,3,86,115,4,

56,13,3,86,114,4,

56,13,3,86,114,3,

56,13,3,86,114,4,

56,13,3,85,114,4,

55,13,3,85,112,3,

55,12,4,84,112,4,

55,13,3,83,112,3,

55,12,3,83,112,4,

54,13,3,83,111,3,

54,13,4,83,110,3,

53,13,3,83,109,3,

54,12,4,82,109,3,

54,12,3,82,109,3,

57,19,3,81,108,4,

57,19,3,81,108,3,

57,18,4,81,108,4,

57,18,3,79,107,4,

56,19,3,79,106,3,

56,18,3,79,106,4,

56,18,3,79,105,3,

56,18,3,78,105,3,

56,18,4,78,103,3,

55,18,4,78,105,4,

54,18,4,77,103,4,

55,17,3,77,103,4,

55,18,4,77,103,4,

58,18,3,77,102,4,

58,18,4,76,102,4,

58,17,3,76,102,3,

58,17,4,76,101,4,

57,17,4,75,100,3,

57,17,3,75,100,4,

57,17,4,75,99,3,

56,18,3,74,99,4,

56,17,3,73,98,3,

56,17,3,74,98,3,

56,16,4,73,125,5,

56,17,4,73,198,4,

70,18,4,71,197,4,

73,18,4,73,195,3,

73,18,4,71,193,4,

72,17,4,71,193,3,

71,18,3,71,192,4,

71,17,3,71,191,4,

71,17,3,71,189,4,

71,17,3,70,188,4,

71,18,4,70,188,3,

70,18,3,70,187,4,

69,17,4,69,185,4,

70,17,3,69,185,4,

69,17,3,69,185,3,

69,17,5,69,184,3,

69,17,3,71,182,3,

68,18,4,85,182,3,

67,17,4,84,181,3,

67,18,4,83,180,4,

67,16,3,83,179,3,

67,17,3,82,178,3,

67,16,3,82,177,3,

67,16,4,81,176,4,

65,16,3,81,176,3,

66,17,4,81,175,3,

66,16,4,81,175,4,

70,22,3,80,174,4,

70,21,3,79,172,3,

70,21,4,79,172,3,

69,22,4,79,171,4,

69,21,3,79,170,3,

69,21,3,78,169,4,

68,21,3,78,169,4,

67,22,3,78,167,3,

67,21,4,77,167,3,

68,21,4,78,166,4,

67,20,4,77,165,4,

67,20,4,76,165,3,

67,20,3,76,164,4,

71,20,4,76,163,3,

70,19,4,76,163,3,

70,20,4,75,162,5,

70,19,3,74,161,4,

69,20,3,74,160,4,

69,19,3,74,159,3,

68,19,3,73,159,3,

67,19,3,73,159,4,

67,19,3,73,158,4,

67,19,3,72,157,3,

67,19,5,71,156,4,

66,19,4,71,156,3,

76,21,4,71,156,4,

75,19,4,71,155,3,

75,19,4,71,154,3,

74,20,3,70,153,4,

74,19,3,71,153,4,

73,19,4,70,152,4,

73,19,3,70,152,3,

73,20,5,70,201,3,

73,19,3,70,199,3,

71,19,4,69,198,3,

71,19,3,68,197,3,

71,19,4,68,196,3,

71,19,3,68,195,4,

72,21,3,67,194,3,

72,22,4,68,193,4,

71,21,3,67,192,3,

71,20,3,66,191,3,

71,21,4,66,190,3,

71,21,3,66,189,3,

71,20,4,67,188,4,

71,20,3,66,188,4,

69,20,4,66,187,3,

69,20,4,65,185,3,

70,19,3,65,185,4,

69,21,3,64,184,3,

69,19,3,63,199,3,

68,20,4,63,199,4,

69,20,3,63,198,4,

68,19,4,63,198,4,

67,20,3,63,196,3,

66,19,3,62,195,3,

66,19,4,63,194,3,

67,19,3,62,193,3,

66,19,4,62,192,4,

66,19,4,62,192,3,

65,19,3,62,190,3,

66,18,3,62,189,4,

65,19,4,62,188,3,

65,19,4,61,188,3,

64,19,4,60,207,3,

63,18,4,60,207,3,

63,19,5,60,205,4,

63,18,3,59,204,4,

63,18,3,60,203,3,

63,18,3,60,202,4,

62,19,3,59,201,3,

62,17,3,59,199,4,

62,19,3,58,199,3,

61,17,3,58,198,4,

61,17,4,58,197,4,

69,38,4,58,197,3,

69,48,3,57,195,3,

68,48,3,57,195,3,

68,47,3,57,193,4,

67,46,3,56,192,4,

67,46,4,56,192,3,

67,46,4,56,192,4,

66,46,3,56,195,4,

66,45,4,56,194,3,

66,45,4,56,193,4,

66,45,4,56,192,4,

65,45,4,56,192,3,

65,44,5,55,190,3,

65,44,4,55,189,4,

64,44,4,55,189,3,

65,44,4,55,188,4,

64,44,4,54,187,4,

63,44,5,54,186,3,

63,43,3,54,185,3,

63,43,4,54,185,4,

62,43,4,53,184,4,

62,42,4,53,183,4,

62,43,5,52,182,5,

62,43,4,52,181,4,

62,42,3,52,180,4,

62,42,3,51,179,4,

61,42,4,51,178,4,

61,41,4,51,177,4,

60,41,3,51,177,4,

60,41,4,51,236,4,

60,41,5,51,235,4,

60,41,4,50,233,4,

59,39,5,50,231,3,

60,39,4,51,230,4,

59,39,3,50,229,4,

59,39,4,50,228,4,

59,39,5,49,227,4,

58,39,4,49,225,5,

58,39,5,49,224,5,

57,39,4,50,224,4,

57,39,4,49,222,4,

57,39,5,48,221,3,

56,38,3,48,220,3,

56,38,4,48,219,4,

56,38,4,48,218,5,

56,37,4,48,217,4,

56,38,3,47,216,4,

56,38,3,48,216,4,

56,38,4,48,214,4,

88,39,4,48,214,3,

86,42,4,48,213,4,

86,42,4,47,211,3,

86,41,4,48,210,5,

85,41,4,48,209,3,

84,41,5,46,207,4,

83,42,4,47,207,4,

83,41,4,46,206,4,

83,40,4,46,205,4,

83,41,4,46,205,4,

82,40,5,46,204,4,

82,39,4,45,202,4,

81,39,4,45,201,5,

81,39,3,45,201,4,

81,39,4,45,199,4,

81,41,3,45,199,4,

80,41,4,45,198,3,

79,41,3,44,197,4,

79,41,3,44,196,4,

79,41,3,44,195,4,

78,39,5,44,195,4,

78,39,5,44,194,3,

78,39,5,44,193,4,

78,49,3,44,192,4,

77,91,5,44,255,4,

77,122,4,43,257,4,

77,120,4,43,255,4,

75,120,3,43,254,4,

76,118,5,42,252,4,

75,118,5,43,251,4,

75,118,5,42,249,4,

74,117,4,42,248,5,

75,116,4,42,247,5,

73,115,4,41,246,5,

73,115,4,41,245,4,

73,114,4,108,244,4,

148,157,4,108,243,4,

201,228,4,107,240,5,

198,225,4,106,239,4,

196,224,4,106,238,4,

195,223,5,104,236,5,

194,221,4,103,235,5,

193,220,5,103,233,5,

192,219,4,103,231,4,

191,217,4,103,231,4,

189,216,5,101,231,4,

188,215,5,102,229,5,

188,213,5,101,228,4,

186,212,4,100,226,4,

185,211,5,99,225,5,

184,209,5,99,224,4,

183,209,4,99,224,5,

183,207,5,99,222,3,

181,207,4,98,221,4,

181,205,4,98,220,4,

179,204,5,97,219,4,

178,203,5,96,217,5,

178,203,5,96,217,4,

177,201,5,96,216,4,

176,199,4,95,214,5,

175,199,5,94,213,4,

175,197,4,94,212,5,

173,197,5,94,211,5,

173,195,5,93,210,4,

172,195,4,92,209,5,

170,195,5,92,208,4,

170,193,4,92,207,4,

169,192,4,92,206,5,

167,192,4,91,205,4,

167,191,5,91,204,4,

167,190,4,90,204,5,

166,189,4,89,203,5,

165,187,5,89,201,5,

164,186,5,89,199,4,

163,186,5,88,199,4,

162,184,4,88,198,4,

161,184,5,87,197,4,

161,183,4,88,197,4,

161,182,4,174,196,5,

159,182,5,174,195,6,

160,181,5,173,194,5,

229,179,4,171,193,5,

227,179,5,170,192,4,

225,177,5,167,191,5,

224,176,5,167,191,5,

223,176,5,167,189,5,

222,175,5,166,189,6,

220,174,5,165,188,5,

219,173,5,163,187,5,

217,173,6,163,185,5,

216,171,5,172,185,5,

216,171,6,172,184,6,

215,169,6,171,205,5,

213,169,5,169,265,5,

211,167,6,167,263,6,

210,167,6,167,262,6,

209,167,6,166,260,6,

207,166,6,166,258,7,

207,165,7,165,257,6,

207,163,6,163,255,6,

205,163,6,163,253,6,

204,162,6,162,252,7,

203,162,6,161,251,6,

203,161,6,160,249,6,

201,160,6,159,248,6,

199,159,6,158,247,6,

199,159,6,157,245,6,

198,158,6,156,243,7,

196,157,7,156,242,6,

195,156,6,155,240,6,

194,156,6,155,240,6,

193,155,7,153,238,6,

193,179,7,153,237,6,

191,191,7,152,235,6,

190,191,7,151,234,7,

190,190,6,150,233,6,

188,189,6,150,231,6,

187,187,6,148,231,6,

187,186,6,147,229,6,

185,185,6,147,228,7,

185,184,6,147,226,6,

184,183,6,146,225,6,

183,182,6,145,225,7,

182,190,6,143,223,6,

180,195,6,143,222,7,

180,194,6,143,221,6,

179,192,7,142,220,6,

178,192,6,141,219,6,

177,191,6,141,217,5,

176,190,6,140,216,6,

175,188,6,139,215,6,

175,187,6,139,215,6,

173,186,6,138,213,6,

173,186,6,137,211,6,

172,184,5,137,211,6,

171,183,6,135,210,6,

171,182,6,135,209,5,

169,182,6,135,207,5,

169,181,6,135,206,6,

167,180,6,133,205,5,

167,178,6,133,205,5,

166,177,6,132,203,6,

165,176,5,131,202,6,

164,176,5,131,201,6,

163,175,6,130,201,6,

163,174,5,130,199,5,

162,173,6,129,198,5,

161,172,6,128,198,6,

161,171,5,127,197,5,

159,170,5,127,195,5,

159,169,5,127,195,5,

158,169,5,126,194,5,

157,167,5,125,193,5,

156,167,5,125,192,5,

156,167,5,125,191,5,

155,169,6,124,190,6,

155,169,5,124,257,5,

154,167,5,123,307,5,

153,166,5,122,305,6,

152,166,5,121,302,6,

152,164,6,121,301,5,

151,163,5,121,299,5,

151,163,5,120,297,5,

149,162,5,120,295,5,

148,162,6,119,294,6,

148,161,6,118,292,5,

147,159,5,117,290,5,

146,159,5,117,288,5,

146,158,5,116,287,5,

145,158,6,115,285,6,

143,156,5,115,283,5,

143,156,5,115,281,5,

143,154,5,114,280,5,

142,153,5,113,279,5,

141,153,5,113,277,5,

141,152,5,113,275,5,

140,152,5,112,273,5,

140,151,5,112,272,5,

139,150,5,111,271,5,

138,149,5,111,270,5,

137,148,5,110,268,5,

137,148,5,110,267,4,

135,147,6,109,265,5,

135,147,5,109,263,5,

135,146,5,108,262,5,

135,146,5,107,261,5,

134,144,5,127,259,5,

133,144,6,151,258,5,

132,143,5,159,255,5,

132,142,5,158,255,5,

131,142,5,157,254,4,

130,141,4,156,253,4,

130,140,5,156,251,4,

130,140,5,155,250,5,

129,139,5,157,249,5,

129,139,5,205,248,5,

127,137,5,204,246,5,

126,137,4,202,245,5,

127,135,5,201,243,4,

126,135,5,199,242,5,

126,135,4,199,241,5,

124,135,5,198,240,4,

124,134,5,197,238,4,

123,134,4,195,237,5,

123,133,4,195,236,5,

122,131,5,194,235,5,

122,131,5,192,234,5,

121,131,5,192,231,4,

121,130,4,190,231,4,

120,130,4,190,230,5,

120,129,5,188,229,4,

120,128,5,187,228,5,

119,127,5,187,226,4,

118,127,4,186,226,3,

118,127,5,184,224,5,

117,126,5,184,223,5,

115,125,5,183,222,4,

115,124,4,182,221,5,

115,124,5,181,220,4,

115,124,4,180,219,5,

114,123,4,179,217,4,

114,123,4,178,217,5,

113,121,5,177,216,5,

112,121,5,176,215,5,

112,121,4,175,214,5,

112,120,5,175,212,4,

110,120,4,174,211,4,

111,119,4,173,210,4,

110,118,5,172,209,3,

110,118,5,171,207,4,

109,117,4,171,207,5,

109,117,5,170,207,5,

108,116,5,169,205,5,

108,116,4,167,205,5,

107,115,4,167,204,5,

107,115,5,166,203,4,

107,115,5,166,202,4,

105,114,4,165,215,5,

105,113,4,165,337,5,

105,113,5,163,334,4,

103,112,5,162,331,4,

103,112,4,161,327,5,

103,111,4,161,326,5,

103,111,4,160,324,5,

103,110,4,159,322,5,

103,110,4,159,319,4,

102,109,5,158,318,5,

101,109,5,157,317,5,

101,108,4,156,314,4,

100,107,4,155,312,5,

99,107,5,155,310,5,

99,107,4,154,309,4,

99,107,5,154,314,5,

98,106,4,153,312,3,

97,105,4,152,310,4,

98,105,5,152,309,5,

97,103,5,151,306,4,

97,103,5,150,305,5,

97,103,4,150,304,4,

96,103,5,149,301,5,

95,103,4,148,300,4,

95,101,4,147,319,5,

94,101,4,147,323,4,

94,101,4,146,321,5,

93,101,4,145,318,4,

93,99,5,145,317,4,

93,100,5,144,315,4,

92,99,4,143,314,4,

92,99,5,143,312,4,

91,98,4,142,310,4,

92,97,4,142,309,5,

91,98,3,141,307,4,

90,97,4,140,305,4,

90,96,4,140,303,4,

89,96,4,140,302,4,

90,96,4,138,300,4,

89,96,4,139,299,4,

88,96,3,137,297,4,

88,94,4,137,295,4,

88,95,4,135,295,4,

87,94,4,135,292,4,

88,93,3,135,291,4,

87,93,4,135,290,4,

86,93,5,135,287,3,

86,92,4,133,287,4,

86,92,3,133,285,4,

85,91,3,132,284,4,

86,92,4,131,282,4,

85,91,5,155,281,4,

85,91,4,275,280,5,

85,90,4,284,278,4,

83,89,4,281,278,4,

83,89,4,280,276,4,

82,89,4,277,274,4,

83,88,4,276,273,4,

82,89,4,274,271,4,

82,88,4,273,270,4,

82,88,4,271,269,4,

81,87,3,270,268,5,

80,86,3,269,266,4,

80,86,4,268,266,4,

79,86,4,266,263,3,

79,86,4,265,263,4,

79,86,4,263,262,4,

79,85,5,262,260,5,

79,85,4,260,259,4,

78,84,4,259,258,4,

78,83,4,258,257,4,

78,91,5,257,259,5,

78,91,3,255,367,4,

77,90,3,254,365,4,

77,89,4,253,361,3,

76,89,3,252,359,4,

76,89,4,251,358,4,

76,88,4,249,355,3,

75,88,4,248,353,4,

75,88,3,247,351,4,

75,87,5,246,349,4,

75,86,4,245,347,5,

75,86,5,243,345,4,

75,86,5,243,344,3,

74,86,4,241,341,4,

74,85,4,240,340,4,

74,85,4,239,337,5,

73,84,3,238,335,5,

71,84,4,237,335,4,

71,83,4,236,332,4,

77,83,4,235,331,4,

101,96,5,235,327,4,

100,95,5,232,327,3,

99,94,4,231,325,4,

99,94,4,231,323,4,

99,93,5,229,321,4,

98,92,4,228,319,4,

98,92,4,227,319,4,

97,92,4,226,316,5,

97,92,4,225,337,4,

96,91,4,225,334,5,

96,90,4,223,333,5,

95,90,4,222,331,5,

99,89,4,221,329,4,

167,89,5,221,327,3,

167,89,5,219,325,4,

166,89,4,218,323,4,

164,88,4,217,322,5,

193,88,4,217,319,4,

306,87,3,215,317,4,

315,86,4,214,316,5,

313,86,4,213,314,4,

312,85,3,211,312,5,

309,87,4,212,311,3,

307,87,4,210,310,4,

305,110,4,209,307,4,

304,110,5,211,305,5,

302,109,5,210,304,4,

300,108,5,209,361,4,

297,107,5,223,502,4,

297,135,5,238,611,4,

294,262,4,237,604,4,

292,348,4,235,598,5,

291,344,4,234,593,3,

289,340,5,231,588,5,

287,337,4,240,583,4,

286,335,4,263,578,5,

284,334,4,261,574,4,

283,331,4,260,569,5,

281,329,5,259,564,4,

280,327,4,257,560,5,

372,327,5,319,611,5,

368,324,5,364,762,5,

366,321,4,361,752,4,

363,319,4,359,743,5,

359,318,4,356,738,5,

358,316,5,354,729,5,

355,315,5,409,723,5,

387,312,5,551,715,4,

384,311,4,566,710,4,

381,316,4,560,703,5,

378,314,5,557,696,4,

376,312,4,551,688,5,

373,310,4,548,685,4,

376,308,5,543,678,4,

373,306,5,540,671,5,

371,304,5,536,665,5,

368,303,5,531,661,5,

458,302,5,527,722,5,

519,299,4,523,774,5,

515,297,5,520,766,5,

511,295,5,516,757,5,

507,295,5,512,751,5,

504,293,5,508,743,5,

499,291,5,505,735,5,

496,291,6,502,728,6,

615,289,6,678,723,5,

637,287,6,819,715,5,

668,285,6,811,708,6,

736,284,5,801,701,5,

727,282,5,792,696,6,

719,281,6,783,689,5,

713,279,5,775,683,5,

705,277,6,768,676,6,

699,276,6,760,671,5,

748,275,6,753,666,6,

758,274,6,747,660,6,

750,271,5,738,654,5,

742,271,6,732,649,5,

734,269,5,724,643,6,

728,268,5,719,638,6,

720,266,5,712,632,6,

713,265,6,705,628,6,

707,263,7,700,624,7,

702,263,6,696,620,6,

696,262,6,689,614,7,

689,261,6,684,609,7,

684,259,6,677,605,7,

677,257,7,671,600,7,

671,255,7,666,595,6,

666,255,7,661,590,7,

660,253,7,655,587,7,

655,253,7,649,582,7,

649,251,7,645,578,7,

643,250,7,639,574,7,

638,248,8,634,570,7,

633,248,7,629,566,8,

629,247,9,625,561,9,

623,246,9,620,557,9,

618,243,9,615,554,9,

614,242,10,610,550,9,

609,241,9,606,545,10,

604,240,10,601,542,10,

599,239,11,595,537,9,

593,238,11,591,533,11,

590,237,11,586,696,11,

583,235,11,582,688,11,

580,234,11,577,679,11,

575,231,11,574,671,11,

571,231,11,568,666,11,

566,230,11,564,659,11,

561,228,12,560,653,11,

557,227,11,556,647,12,

553,226,12,551,642,12,

550,226,13,548,636,12,

545,224,12,543,631,12,

541,223,12,540,625,12,

536,222,12,536,619,12,

533,221,13,532,613,13,

529,220,12,529,608,12,

525,218,12,524,603,13,

521,217,13,521,597,13,

517,216,13,516,591,13,

514,215,13,513,587,13,

509,215,13,509,582,14,

505,213,14,505,578,13,

502,211,14,503,573,14,

498,211,14,499,569,13,

495,209,13,496,563,13,

491,207,13,492,559,14,

487,207,13,489,553,13,

485,206,13,486,550,14,

481,205,14,481,546,14,

478,204,14,479,541,14,

475,204,13,476,537,13,

472,203,13,472,534,14,

468,201,14,470,529,15,

465,199,14,466,524,14,

462,199,14,463,521,14,

459,198,13,461,517,14,

455,197,14,457,513,14,

453,196,14,455,510,14,

451,195,14,451,506,14,

447,194,13,449,503,14,

445,193,14,446,499,14,

441,193,14,444,496,15,

439,192,14,441,492,14,

436,191,14,438,489,14,

433,190,14,435,485,14,

431,189,13,433,482,14,

428,187,14,430,479,14,

425,187,14,428,476,14,

422,185,14,423,472,14,

419,184,14,422,469,15,

417,184,13,419,466,14,

415,183,14,417,463,14,

412,182,14,415,460,14,

409,181,14,413,455,15,

408,180,13,409,453,14,

403,179,13,407,450,14,

402,178,14,405,448,14,

399,178,13,403,445,14,

397,176,14,399,441,14,

395,176,14,398,440,13,

393,175,14,395,437,14,

390,174,14,393,434,14,

387,173,13,391,431,14,

385,172,13,389,428,14,

384,172,13,387,425,14,

380,170,13,384,422,14,

379,169,13,382,419,14,

376,167,13,380,417,13,

374,167,13,377,414,13,

371,167,13,375,412,13,

370,166,13,373,409,14,

367,166,13,371,408,13,

366,165,13,369,404,13,

363,164,12,366,401,13,

361,163,13,365,399,13,

359,162,13,363,397,13,

357,161,12,361,395,13,

355,159,12,358,391,13,

353,159,12,356,390,12,

350,159,12,354,387,12,

349,159,13,352,385,13,

346,158,12,350,384,12,

345,157,12,348,381,13,

343,156,12,347,378,12,

341,155,12,345,376,12,

339,155,12,344,374,12,

337,153,12,341,371,12,

335,153,11,339,369,12,

333,152,12,337,368,12,

331,152,12,335,365,12,

329,150,11,334,364,12,

327,150,12,332,361,12,

327,150,12,330,359,12,

324,148,11,329,357,12,

323,147,12,327,355,12,

321,147,11,325,352,11,

319,146,12,323,350,11,

317,145,11,321,349,11,

315,143,11,319,347,11,

313,143,11,318,345,11,

312,143,11,316,343,11,

310,143,11,315,341,11,

309,142,10,313,339,11,

307,141,11,312,337,10,

305,141,11,310,335,10,

304,140,11,307,333,11,

302,139,10,307,331,10,

300,138,10,305,329,10,

299,137,10,304,327,10,

297,137,10,302,327,10,

295,135,10,300,324,11,

294,135,9,299,323,10,

292,135,10,297,321,10,

291,135,10,295,319,9,

289,133,9,295,318,9,

288,134,10,293,316,10,

287,133,10,291,314,9,

286,132,10,290,312,9,

284,131,9,289,311,10,

283,130,9,287,309,9,

281,130,9,286,308,9,

280,129,10,284,306,10,

280,128,10,284,304,9,

277,128,9,282,304,9,

275,127,9,281,302,9,

275,127,9,280,301,9,

273,127,9,278,299,9,

271,125,9,277,297,9,

271,126,9,275,295,9,

269,125,9,274,295,9,

268,125,9,273,294,9,

267,124,9,272,292,9,

265,124,9,271,291,9,

263,123,9,270,289,9,

263,122,9,269,287,9,

262,121,9,267,287,9,

261,121,8,266,286,9,

259,121,8,265,284,8,

259,120,8,263,282,9,

257,120,9,263,282,7,

255,119,9,261,280,9,

255,118,9,260,278,7,

253,118,7,259,277,8,

252,118,9,259,275,8,

251,117,9,257,275,7,

249,117,8,255,273,9,

249,116,7,254,271,7,

248,116,7,253,271,7,

246,114,7,252,270,7,

246,114,9,251,269,7,

244,114,7,250,268,7,

243,113,8,249,267,7,

242,113,9,248,263,8,

241,113,9,246,263,7,

240,112,7,246,263,8,

239,112,7,244,261,7,

237,111,7,243,259,7,

237,109,7,242,258,7,

235,109,7,241,257,7,

233,109,7,240,255,7,

231,108,7,239,254,7,

231,108,7,237,254,7,

231,108,7,237,252,7,

230,107,7,236,251,7,

229,106,7,234,249,7,

227,106,7,233,249,7,

227,105,6,233,248,7,

225,105,7,231,247,7,

225,105,7,231,246,7,

224,103,7,230,244,7,

223,103,7,229,243,7,

222,103,7,227,242,7,

221,103,7,227,241,7,

220,103,7,225,240,7,

219,102,7,224,239,7,

218,101,7,224,238,7,

217,101,7,223,236,7,

216,100,7,222,236,7,

216,100,7,221,234,6,

214,99,7,220,233,7,

213,99,7,219,231,6,

212,99,7,219,231,7,

212,99,7,217,231,7,

210,98,6,216,230,7,

210,97,6,216,228,6,

209,97,6,215,228,6,

208,97,7,214,227,6,

207,97,6,262,226,7,

207,96,6,345,225,6,

206,96,6,487,224,6,

204,95,6,575,224,6,

204,95,6,594,222,7,

202,95,6,595,222,7,

203,94,6,591,220,6,

201,94,6,585,219,6,

199,93,6,581,219,6,

199,92,6,577,217,6,

199,92,6,571,217,6,

198,92,6,568,216,6,

198,92,6,563,215,6,

196,92,6,559,214,6,

195,90,6,556,213,6,

194,90,6,551,212,5,

194,90,6,547,211,6,

193,90,7,543,211,6,

193,89,6,541,209,6,

192,89,6,536,209,6,

190,89,6,531,207,6,

190,88,6,529,207,6,

189,88,7,525,206,6,

188,88,6,522,205,6,

187,88,6,518,205,6,

187,87,7,514,204,7,

186,86,5,511,203,6,

185,86,7,507,202,6,

184,86,5,505,201,5,

184,86,6,501,199,6,

184,85,5,497,199,6,

182,84,6,494,199,5,

181,84,6,491,198,6,

180,83,6,488,197,6,

180,83,6,485,196,6,

179,83,5,483,195,5,

179,82,6,480,195,6,

178,82,6,476,194,5,

177,82,5,474,193,6,

176,81,5,470,192,6,

176,81,6,468,192,6,

176,81,6,465,192,5,

174,80,5,462,190,6,

173,81,5,460,189,6,

173,79,6,455,189,6,

173,79,6,455,188,6,

171,79,5,451,187,6,

171,79,6,449,186,6,

170,79,6,447,185,6,

169,79,5,444,185,5,

169,78,6,441,184,5,

167,78,6,438,184,5,

167,78,5,437,183,5,

167,77,5,433,182,6,

166,76,5,431,181,5,

166,77,6,428,179,5,

164,76,6,426,179,6,

163,76,5,423,179,5,

163,76,5,421,179,5,

163,75,5,419,177,6,

162,75,6,417,176,6,

161,74,6,415,176,5,

161,74,5,412,176,6,

159,75,5,410,175,5,

159,74,5,409,174,5,

159,73,6,405,173,6,

159,73,5,403,173,6,

158,73,5,401,172,5,

157,73,6,399,172,5,

157,73,6,398,171,5,

156,71,6,395,170,6,

155,71,5,391,169,6,

155,71,6,391,169,6,

153,71,5,388,169,5,

153,71,5,387,167,5,

152,70,5,384,167,6,

152,71,5,382,166,6,

152,70,6,381,165,5,

152,70,5,377,165,5,

150,69,5,376,164,5,

150,69,6,374,163,5,

150,69,5,372,163,6,

149,68,6,371,162,5,

148,69,6,369,161,5,

147,68,5,367,161,5,

147,67,6,365,159,6,

146,67,5,363,159,5,

145,67,4,359,158,5,

144,67,6,359,158,5,

143,66,5,358,157,5,

143,66,4,355,157,5,

143,65,5,354,156,4,

143,66,5,352,156,5,

142,65,5,349,155,5,

141,65,5,348,154,5,

140,64,5,346,154,5,

140,64,4,345,153,5,

140,63,5,344,152,5,

139,63,5,342,152,6,

139,63,5,339,152,5,

138,63,5,338,151,5,

137,63,6,335,150,5,

137,62,5,334,150,5,

135,62,5,333,148,5,

135,62,5,332,149,5,

135,62,5,329,147,5,

135,61,5,327,147,4,

134,61,5,327,147,5,

134,61,5,325,145,5,

134,61,5,323,145,5,

133,61,4,322,145,5,

132,60,4,320,145,4,

132,61,4,319,143,5,

131,60,5,318,143,5,

131,60,5,316,143,5,

130,59,4,314,142,5,

129,59,4,313,141,4,

129,59,5,312,142,5,

129,59,5,310,140,4,

128,58,5,309,140,5,

127,58,5,307,140,4,

127,58,4,306,139,5,

127,57,4,304,139,5,

126,57,5,303,138,4,

125,57,4,302,137,4,

125,57,4,301,137,5,

125,56,5,299,137,5,

124,57,5,297,135,5,

124,56,5,295,135,5,

123,56,4,295,135,5,

123,56,5,294,134,6,

123,56,5,291,134,4,

122,55,5,291,134,5,

121,55,4,289,132,5,

121,55,4,287,132,5,

120,55,5,287,131,5,

120,54,4,286,131,4,

120,54,5,284,131,5,

119,54,5,283,130,5,

118,54,5,281,129,4,

118,53,5,280,129,4,

118,53,5,279,128,5,

117,53,5,278,127,4,

117,53,4,276,127,5,

117,52,5,275,127,4,

115,52,5,274,126,4,

115,51,4,273,126,5,

115,51,4,271,126,5,

114,51,5,270,125,5,

114,51,5,269,125,5,

114,51,4,268,124,5,

113,51,5,267,124,5,

112,51,4,265,123,5,

112,51,4,265,123,5,

112,51,5,263,122,4,

111,49,4,263,122,5,

112,49,4,261,122,5,

110,49,4,261,121,4,

110,49,4,259,120,4,

109,48,5,258,120,5,

109,49,5,255,119,4,

109,49,5,255,120,4,

108,49,4,254,119,4,

108,48,5,253,118,5,

108,48,4,252,118,4,

108,49,4,251,117,4,

106,48,4,250,117,4,

106,47,4,249,116,4,

106,47,4,248,115,4,

105,47,5,247,115,4,

105,46,4,247,115,4,

104,46,5,245,115,5,

103,46,5,243,115,5,

103,47,4,242,113,4,

103,45,4,241,113,5,

103,46,4,241,112,4,

103,46,4,240,113,5,

102,45,4,238,112,4,

102,45,5,237,111,5,

101,45,5,236,111,5,

101,44,4,236,111,4,

100,45,4,235,110,4,

100,45,4,234,110,4,

99,44,5,231,109,4,

99,44,4,231,109,4,

99,44,4,231,109,4,

98,43,4,230,108,4,

98,44,5,229,108,5,

97,44,4,228,107,4,

97,43,5,227,107,5,

97,43,4,226,107,5,

98,43,4,225,107,4,

96,42,5,224,106,4,

96,43,5,224,105,4,

96,42,5,223,105,5,

95,42,5,222,105,5,

95,42,4,221,103,4,

94,42,5,220,103,4,

94,41,5,219,103,4,

94,41,4,218,103,5,

93,41,4,218,103,5,

93,41,4,216,103,5,

93,41,4,216,103,5,

92,41,4,215,101,3,

92,39,3,214,101,3,

91,39,5,212,100,4,

92,39,4,211,100,4,

91,39,3,211,100,4,

91,39,4,210,99,4,

89,39,3,209,99,4,

89,39,4,208,98,5,

90,39,3,207,99,4,

89,39,4,207,98,4,

89,39,3,206,97,4,

88,38,5,206,97,4,

88,39,3,205,97,4,

89,38,3,204,96,5,

88,38,4,204,96,3,

88,37,4,203,96,4,

87,37,4,203,96,5,

86,37,5,201,95,4,

86,37,5,199,95,4,

85,37,4,199,95,4,

86,37,3,199,94,4,

86,37,4,198,95,3,

85,37,4,198,94,4,

84,37,3,197,93,4,

84,36,4,196,93,3,

84,36,5,195,93,3,

83,36,4,194,92,3,

83,36,4,194,92,3,

83,35,4,194,92,4,

83,35,3,193,92,3,

83,35,3,192,91,3,

82,35,4,192,91,3,

82,35,4,191,90,4,

82,35,4,190,90,3,

82,34,4,189,90,3,

81,35,4,189,89,4,

81,35,4,188,88,3,

81,35,4,188,88,4,

80,34,4,187,88,4,

81,34,4,186,89,4,

79,34,3,185,88,4,

79,34,3,185,88,3,

79,34,4,184,87,3,

79,34,4,184,87,4,

78,33,4,183,88,4,

78,34,4,182,86,4,

79,33,3,181,86,4,

78,33,5,180,86,3,

77,33,5,180,86,4,

77,32,4,179,85,3,

77,32,4,179,85,3,

76,33,3,178,84,4,

76,32,4,177,84,4,

76,33,5,177,83,4,

77,32,4,176,84,4,

76,32,4,176,83,4,

75,31,4,175,83,3,

75,32,5,174,83,4,

74,31,4,173,82,4,

74,31,4,173,82,4,

74,31,5,173,82,4,

73,31,4,172,82,3,

74,31,4,171,81,4,

73,31,3,171,81,3,

73,31,4,170,80,4,

73,31,3,170,81,3,

72,30,3,169,81,4,

71,30,3,169,79,4,

73,30,4,167,80,4,

71,30,3,167,79,4,

71,30,3,167,79,3,

71,30,4,167,79,4,

71,31,4,166,78,3,

71,30,4,165,78,4,

70,30,4,165,78,3,

70,29,4,163,78,4,

70,29,4,163,77,4,

70,29,3,163,77,4,

70,29,4,163,77,3,

69,29,3,161,77,4,

70,29,4,161,76,3,

69,30,4,160,77,5,

68,29,3,159,77,4,

68,29,3,159,76,3,

67,29,3,159,76,4,

68,29,3,158,75,4,

67,28,4,157,75,4,

67,29,3,157,74,4,

67,28,4,156,74,5,

67,28,3,156,74,3,

67,28,4,156,73,4,

66,28,4,155,73,4,

66,103,4,155,74,5,

66,176,4,153,73,4,

65,177,4,153,73,4,

65,175,4,153,71,3,

65,174,4,152,71,4,

66,173,4,152,71,4,

65,172,4,151,71,4,

64,171,4,151,71,3,

63,170,4,150,71,4,

64,169,4,149,70,3,

63,167,4,149,71,3,

63,167,4,148,71,3,

63,167,4,147,70,3,

63,166,3,147,70,4,

63,164,4,147,70,4,

63,163,4,147,69,4,

62,163,4,145,69,4,

62,162,4,146,69,4,

62,161,3,145,68,3,

62,160,5,143,68,4,

62,159,3,143,68,4,

61,159,3,143,68,4,

61,158,4,142,67,4,

60,158,4,142,67,4,

60,174,4,141,67,4,

61,188,4,141,67,3,

60,186,4,140,66,4,

60,185,4,140,66,4,

59,184,4,139,66,3,

59,183,4,139,66,3,

59,181,3,139,66,3,

59,181,4,137,65,4,

59,180,3,137,65,3,

58,179,3,137,64,4,

57,179,4,136,63,4,

58,178,3,135,64,3,

57,176,4,135,63,4,

57,176,3,135,63,4,

57,175,4,135,63,3,

57,174,3,135,63,3,

57,173,4,134,63,3,

57,172,4,133,62,4,

56,172,4,133,62,3,

55,171,4,133,62,4,

56,170,3,131,62,4,

56,169,4,131,62,4,

56,167,3,131,62,4,

56,167,4,130,62,4,

55,166,4,130,62,3,

55,166,4,130,60,4,

54,165,3,129,61,3,

54,164,3,128,61,3,

54,163,4,127,60,3,

53,162,4,127,60,3,

54,161,4,127,60,3,

53,161,4,126,60,4,

53,159,4,126,60,4,

53,159,3,125,59,5,

53,158,4,125,59,4,

53,158,4,125,59,4,

53,157,4,125,59,5,

52,157,4,125,58,3,

52,156,3,124,58,4,

51,156,4,123,58,5,

52,155,3,122,58,3,

51,153,3,122,57,4,

51,153,3,122,57,4,

51,152,3,121,57,3,

50,152,3,121,57,4,

51,151,4,121,56,4,

50,150,4,120,56,3,

50,150,4,120,56,4,

50,149,4,120,56,4,

50,147,4,119,56,4,

50,147,4,119,56,4,

50,147,3,118,56,4,

49,146,4,117,56,4,

49,146,4,118,55,3,

49,144,3,117,55,4,

49,143,3,116,55,4,

48,143,4,115,54,3,

48,143,4,115,55,4,

48,142,4,115,54,3,

48,142,3,114,54,4,

48,141,4,114,54,3,

48,140,4,113,53,4,

48,139,3,113,53,4,

47,139,4,113,53,3,

46,138,4,112,53,3,

46,137,4,112,52,3,

46,137,3,112,52,3,

46,135,3,111,53,3,

47,135,3,111,51,3,

46,135,3,111,51,4,

46,134,4,110,51,4,

46,134,4,110,51,4,

45,133,3,110,50,3,

45,133,4,109,51,3,

45,132,4,109,51,4,

45,131,4,108,50,5,

45,131,3,108,50,3,

45,130,3,108,50,3,

44,131,3,107,49,4,

44,129,4,107,49,4,

45,128,3,106,49,3,

43,128,3,105,49,3,

44,127,3,106,49,4,

44,127,3,105,48,4,

43,126,4,105,48,3,

43,126,4,103,48,3,

43,125,4,103,48,4,

43,125,3,103,48,3,

43,124,4,103,48,4,

42,123,3,103,48,3,

42,123,3,102,48,4,

42,123,3,102,47,3,

41,121,4,102,48,4,

41,121,3,102,47,3,

41,121,3,101,47,4,

41,120,4,100,47,3,

42,120,3,100,47,3,

41,119,4,100,46,3,

41,118,3,99,47,3,

40,119,3,99,46,3,

40,117,4,99,45,3,

41,117,4,99,45,4,

39,117,3,98,45,4,

39,116,4,98,46,3,

39,116,3,98,45,4,

39,115,3,98,45,4,

39,115,3,97,45,3,

39,115,4,96,44,4,

39,114,4,96,45,3,

39,114,4,96,44,3,

39,113,4,96,44,4,

39,113,3,96,44,3,

39,112,3,96,44,3,

39,111,4,95,43,3,

38,111,3,94,44,3,

38,110,4,94,44,3,

38,110,3,93,43,4,

38,110,3,94,43,4,

43,109,4,93,43,4,

89,109,3,93,43,3,

92,108,4,92,43,3,

91,108,3,92,42,3,

90,108,3,92,42,3,

90,107,4,91,41,3,

89,107,5,91,41,4,

89,107,3,91,41,4,

88,105,4,91,41,4,

88,105,3,91,42,3,

88,105,4,91,41,3,

88,103,4,89,41,4,

87,103,3,89,41,3,

87,103,4,89,41,4,

86,103,3,89,41,4,

86,103,3,88,41,3,

85,103,3,88,41,3,

85,102,3,88,41,4,

84,102,3,88,39,3,

83,101,4,88,39,4,

84,100,4,88,39,3,

83,100,4,87,39,3,

83,100,4,87,39,3,

82,99,4,86,39,3,

83,99,4,86,39,4,

81,99,4,86,39,3,

81,98,4,85,39,3,

81,98,4,85,39,4,

81,98,3,85,39,4,

80,97,3,85,38,4,

79,96,4,84,38,4,

79,96,3,84,39,3,

79,96,3,84,38,4,

79,95,4,83,39,4,

79,95,4,83,38,3,

78,94,4,82,38,4,

78,94,3,83,38,3,

78,94,4,82,38,3,

77,94,3,82,37,3,

115,93,4,82,38,4,

180,93,4,81,37,3,

179,93,3,81,36,4,

177,92,4,81,37,3,

177,91,3,81,36,3,

175,92,3,80,37,4,

175,91,3,80,36,4,

173,91,3,79,36,4,

172,89,4,80,36,4,

172,90,4,79,36,3,

171,90,3,79,35,3,

170,89,4,79,36,3,

169,89,4,78,36,4,

172,88,3,78,35,4,

179,88,3,78,35,4,

178,88,4,78,35,4,

179,88,3,78,35,3,

177,87,3,78,35,3,

177,87,4,77,35,3,

175,87,4,77,35,3,

174,86,3,76,35,3,

173,85,3,76,35,3,

173,86,4,76,35,3,

172,85,3,76,35,3,

171,85,4,75,34,3,

170,84,4,75,34,3,

169,84,3,75,34,3,

169,83,3,75,33,4,

167,83,3,75,34,3,

167,83,3,75,33,4,

167,83,3,73,33,3,

165,82,3,73,33,4,

165,82,3,73,33,5,

164,81,3,73,32,3,

163,81,3,73,33,4,

163,81,3,71,33,3,

161,81,3,71,32,4,

161,80,3,71,33,4,

159,79,3,71,33,4,

159,79,3,71,31,4,

159,79,4,71,32,4,

158,79,4,71,31,3,

158,78,3,71,31,4,

157,78,3,71,31,3,

156,78,3,70,31,4,

155,78,4,71,31,3,

155,77,4,70,31,4,

154,76,3,69,31,4,

153,77,3,69,31,4,

153,77,3,69,31,4,

152,76,3,69,31,4,

152,76,3,69,31,3,

150,75,3,68,31,3,

150,75,4,68,30,3,

150,75,4,68,30,3,

148,75,4,68,30,3,

148,74,4,67,30,4,

147,73,4,67,30,3,

147,73,3,67,30,3,

146,73,3,67,30,4,

145,73,3,66,30,4,

145,72,3,66,30,5,

145,71,4,66,30,4,

143,71,3,67,29,4,

143,71,3,65,29,4,

143,71,3,66,29,4,

142,71,4,65,29,4,

141,71,4,66,28,3,

141,71,3,65,29,4,

140,70,4,65,29,3,

139,71,3,65,29,3,

139,70,4,64,29,3,

138,70,3,63,29,3,

137,68,3,63,29,4,

137,69,3,63,28,3,

135,69,3,63,28,3,

135,69,3,63,28,3,

135,67,3,63,28,3,

135,67,4,62,27,4,

135,68,3,63,27,3,

134,68,3,62,28,4,

133,67,4,62,27,3,

133,67,3,62,28,3,

132,67,3,62,28,4,

131,66,4,61,27,3,

131,66,4,61,27,4,

130,66,3,61,27,4,

131,66,3,60,27,3,

132,65,4,60,26,4,

131,65,3,60,26,4,

131,64,4,61,27,4,

130,64,3,60,26,4,

129,64,3,59,26,3,

129,63,4,60,26,3,

129,63,3,60,26,3,

127,63,3,59,25,3,

127,63,4,59,27,4,

126,63,3,59,25,4,

126,63,4,59,26,3,

125,62,4,58,25,4,

125,62,3,59,25,3,

125,62,4,57,25,4,

124,62,3,58,25,3,

123,61,3,57,25,4,

123,61,4,57,25,4,

123,61,3,57,25,3,

121,60,3,57,25,4,

121,61,4,56,25,3,

121,60,4,57,25,4,

121,60,3,56,24,3,

120,59,3,56,25,4,

120,59,3,56,25,4,

177,59,4,56,25,4,

190,59,4,56,24,3,

188,59,3,56,24,4,

187,59,4,55,24,3,

187,58,4,55,24,4,

185,58,4,55,24,4,

184,57,4,55,24,3,

183,58,5,54,23,3,

182,57,4,54,24,3,

182,57,3,54,24,3,

181,57,5,54,24,3,

179,56,3,54,24,3,

178,57,4,54,23,4,

178,56,3,53,23,3,

177,55,3,53,24,4,

176,56,4,54,23,3,

176,55,3,52,23,4,

174,55,4,53,22,3,

174,55,4,52,23,4,

173,55,4,52,23,3,

172,54,4,51,23,3,

172,54,3,51,22,4,

171,53,3,51,22,3,

169,54,4,51,23,3,

169,54,4,51,22,3,

167,53,4,51,22,3,

167,52,4,51,22,4,

167,53,3,51,22,3,

166,53,4,50,22,4,

165,52,3,50,22,3,

165,53,4,50,21,4,

163,52,3,50,21,4,

163,51,4,49,21,3,

163,51,4,49,21,3,

162,51,4,49,21,3,

161,51,4,50,22,4,

159,51,3,50,21,4,

159,51,4,50,21,4,

159,51,4,49,21,3,

158,51,5,48,21,3,

158,50,3,49,21,4,

157,50,4,48,21,3,

157,49,3,48,21,3,

155,49,3,48,20,4,

155,49,4,48,20,3,

154,48,4,47,20,4,

154,49,3,47,21,4,

153,49,3,47,20,3,

152,49,3,47,21,3,

152,49,4,47,20,4,

151,48,3,46,19,3,

150,48,3,46,19,3,

149,48,4,46,19,4,

148,48,3,46,20,4,

148,47,3,46,20,3,

147,47,4,46,20,3,

147,47,3,46,19,4,

146,46,4,46,20,4,

145,46,3,46,19,4,

145,46,4,46,19,4,

143,46,3,45,19,4,

143,46,4,45,19,3,

143,46,3,45,19,4,

142,46,4,44,19,3,

142,46,4,45,19,3,

141,45,3,44,18,3,

141,45,3,44,18,4,

140,45,5,44,18,4,

139,44,4,44,18,3,

138,44,3,43,19,3,

138,44,3,43,18,3,

137,44,3,44,18,3,

137,44,4,43,18,4,

135,44,3,43,18,3,

135,44,3,43,18,4,

135,43,3,43,18,4,

135,44,3,43,18,3,

135,43,4,42,18,3,

134,42,4,42,18,4,

133,43,3,42,18,3,

133,42,4,42,18,3,

131,42,3,42,17,4,

131,42,4,41,17,4,

131,42,3,42,18,5,

130,42,3,41,17,3,

130,42,4,41,18,3,

129,41,4,41,17,3,

129,41,3,39,17,4,

127,41,4,41,17,3,

127,41,4,40,17,4,

127,40,4,39,17,4,

127,39,3,39,16,4,

126,39,3,39,16,3,

125,41,4,39,16,3,

125,39,3,39,17,3,

124,39,4,39,16,3,

124,39,3,39,16,3,

124,39,3,39,16,4,

123,39,3,39,16,4,

122,39,3,39,16,3,

123,39,3,39,16,4,

121,39,3,39,16,3,

121,39,3,38,15,3,

120,38,4,38,16,3,

120,38,4,39,16,3,

120,38,4,38,16,4,

120,38,4,38,16,3,

119,38,4,37,16,4,

118,38,4,38,15,4,

117,37,3,38,15,3,

117,37,3,37,15,3,

116,37,4,37,16,3,

127,37,3,37,15,3,

127,37,3,37,15,4,

126,37,3,37,16,3,

125,36,4,37,15,3,

126,36,4,37,15,3,

124,36,4,36,15,4,

124,36,3,37,15,3,

123,35,3,36,15,3,

123,35,3,36,15,3,

122,35,4,36,15,3,

121,35,4,36,15,3,

121,35,4,36,15,3,

121,35,4,36,14,4,

120,35,5,35,14,3,

120,35,3,35,14,3,

119,35,4,35,15,4,

118,34,3,35,14,3,

118,35,3,35,15,4,

117,34,3,35,14,3,

117,33,3,35,14,3,

115,34,3,35,15,3,

115,34,3,34,15,4,

115,33,4,35,14,3,

115,33,4,34,14,4,

114,34,4,35,15,3,

122,34,3,35,14,4,

121,34,3,34,14,3,

121,33,3,34,14,3,

121,33,3,34,14,4,

120,32,3,33,13,3,

120,32,4,33,14,3,

120,33,3,33,13,3,

119,31,4,33,14,4,

119,32,4,33,14,3,

118,31,3,33,13,3,

117,32,4,32,13,4,

117,31,4,33,13,3,

115,31,4,32,14,3,

115,31,4,32,13,3,

115,31,3,32,13,3,

114,31,4,31,13,3,

114,31,3,31,13,3,

114,31,4,31,13,3,

113,30,3,31,13,3,

113,31,3,31,13,4,

112,31,4,31,12,4,

112,30,3,31,13,4,

111,31,4,31,12,4,

110,30,3,31,12,3,

111,30,3,31,13,3,

110,29,3,31,13,4,

109,29,4,31,12,3,

109,29,3,30,12,3,

108,29,3,31,12,3,

108,29,3,31,13,3,

107,30,3,30,12,4,

108,29,4,30,12,3,

107,28,4,30,12,3,

107,29,3,30,12,3,

105,29,3,30,12,4,

105,29,4,30,12,4,

104,29,3,30,12,3,

103,29,4,30,12,4,

103,28,3,29,12,4,

103,28,3,30,12,4,

103,28,3,29,12,4,

103,28,3,29,12,3,

102,28,3,29,12,4,

102,28,3,29,12,3,

101,27,4,29,12,4,

101,27,3,29,11,4,

101,27,3,29,11,3,

100,27,4,29,12,3,

100,27,4,28,12,4,

100,27,3,28,12,4,

99,27,3,28,12,3,

99,27,3,29,11,4,

98,26,4,28,11,3,

98,26,4,28,12,3,

97,27,4,28,11,3,

98,26,4,28,11,3,

97,26,3,27,11,3,

97,26,3,28,11,3,

96,26,4,28,11,3,

96,26,3,28,11,3,

95,25,3,27,11,4,

96,25,3,27,11,3,

96,25,3,26,11,3,

94,26,3,27,11,4,

94,25,4,27,11,4,

94,25,3,27,10,4,

94,25,3,27,10,3,

93,25,4,26,11,4,

93,25,3,27,10,3,

92,24,3,26,11,3,

92,25,3,26,11,4,

91,24,3,27,10,4,

92,25,3,25,10,3,

91,24,3,26,10,3,

91,25,4,26,10,3,

91,24,3,26,10,3,

91,24,3,26,11,4,

90,24,4,26,10,3,

90,24,3,25,10,4,

89,24,4,25,10,4,

89,24,3,25,10,3,

89,24,3,25,10,3,

88,23,4,25,10,4,

89,24,4,25,11,3,

88,24,4,25,10,4,

88,24,3,24,9,3,

88,23,4,24,10,4,

87,24,3,25,10,4,

86,23,3,25,9,3,

91,23,3,25,10,3,

90,23,3,24,9,3,

90,23,3,25,10,4,

89,23,3,24,10,3,

90,22,3,25,10,3,

89,23,3,24,9,3,

88,22,4,24,10,3,

88,22,3,24,10,3,

88,22,3,24,10,4,

88,22,4,24,9,3,

87,22,4,24,9,4,

87,21,3,24,10,3,

86,21,4,24,10,3,

99,22,3,24,10,4,

99,21,3,23,9,3,

98,21,4,24,9,4,

98,21,3,24,9,3,

98,21,4,24,9,3,

97,21,3,23,9,4,

96,22,4,23,9,4,

96,21,3,22,9,3,

95,20,3,22,9,3,

95,20,3,22,9,4,

95,20,3,22,8,3,

94,21,3,22,9,3,

94,20,3,22,9,3,

96,20,4,23,9,3,

100,21,3,22,8,3,

100,20,3,22,9,3,

99,20,3,22,7,3,

99,19,3,22,9,4,

99,20,4,21,8,3,

98,20,3,21,9,3,

98,19,3,21,7,3,

97,19,3,22,8,4,

97,19,3,21,9,3,

96,19,3,21,8,3,

96,19,3,22,9,3,

96,19,3,21,9,3,

95,19,3,21,9,3,

95,19,3,21,8,3,

