
43,13,0,101,59,0,

43,13,0,101,59,0,

42,13,0,100,59,0,

42,12,0,99,59,0,

42,12,0,99,58,0,

41,12,0,99,58,0,

41,12,0,98,58,0,

41,12,0,98,57,0,

41,12,0,97,57,0,

41,12,0,97,57,0,

39,12,0,97,57,0,

41,12,0,96,57,0,

41,12,0,96,56,0,

41,12,0,95,56,0,

41,12,0,95,56,0,

41,12,0,95,56,0,

39,11,0,94,56,0,

39,12,0,94,55,0,

39,11,0,94,55,0,

39,11,0,93,55,0,

39,11,0,92,54,0,

39,11,0,92,54,0,

39,11,0,92,54,0,

39,11,0,92,54,0,

39,11,0,91,53,0,

42,12,0,90,53,0,

41,12,0,90,53,0,

41,11,0,89,53,0,

41,11,0,89,53,0,

41,12,0,89,52,0,

41,12,0,89,52,0,

39,11,0,88,52,0,

40,11,0,88,51,0,

39,11,0,88,51,0,

39,11,0,88,51,0,

39,11,0,87,51,0,

39,11,0,86,51,0,

67,11,0,86,50,0,

78,23,0,86,50,0,

77,23,0,85,50,0,

76,22,0,85,50,0,

76,22,0,85,49,0,

76,22,0,84,121,0,

75,22,0,84,177,0,

75,22,0,83,238,0,

75,22,0,83,243,0,

74,21,0,83,241,0,

74,21,0,82,239,0,

73,21,0,82,238,0,

73,21,0,82,237,0,

72,21,0,81,236,0,

71,20,0,81,234,0,

71,21,0,81,231,0,

71,20,0,80,231,0,

71,20,0,79,231,0,

71,20,0,79,229,0,

70,20,0,79,227,0,

70,19,0,79,227,0,

70,19,0,78,226,0,

70,19,0,78,225,0,

69,19,0,78,224,0,

69,19,0,78,223,0,

69,19,0,77,222,0,

68,19,0,77,220,0,

67,19,0,76,219,0,

67,19,0,76,218,0,

67,19,0,76,217,0,

67,19,0,76,216,0,

66,19,0,75,215,0,

66,19,0,75,214,0,

66,18,0,75,213,0,

65,18,0,74,211,0,

65,18,0,74,211,0,

65,18,0,73,210,0,

64,18,0,73,209,0,

64,18,0,73,207,0,

63,18,0,72,207,0,

63,17,0,72,206,0,

63,17,0,71,206,0,

63,17,0,71,204,0,

63,17,0,71,204,0,

62,17,0,71,203,0,

62,17,0,71,202,0,

62,17,0,71,201,0,

62,17,0,70,199,0,

61,17,1,70,199,0,

61,16,0,70,198,0,

61,17,0,70,198,0,

61,17,0,69,197,0,

60,16,0,69,195,0,

60,16,0,68,195,0,

59,16,1,68,194,1,

59,16,0,68,193,0,

59,16,0,67,192,0,

59,15,0,67,192,0,

59,15,0,67,191,0,

58,15,0,67,189,0,

58,15,0,67,189,0,

57,15,0,66,188,0,

57,16,0,93,188,0,

59,17,0,142,186,0,

59,17,0,140,185,1,

58,17,1,139,184,0,

58,17,0,139,184,0,

57,16,0,137,183,0,

57,16,1,137,182,0,

57,16,0,135,181,0,

57,16,0,135,183,0,

57,15,0,135,182,0,

56,16,1,134,181,1,

56,15,0,134,180,0,

56,15,0,133,179,1,

56,15,1,132,179,1,

56,15,1,131,178,0,

56,15,0,131,177,1,

56,15,1,130,176,0,

56,15,0,130,175,0,

55,15,0,129,175,1,

55,15,1,128,174,0,

54,15,0,127,173,0,

54,15,1,127,172,0,

54,14,0,126,172,1,

53,14,1,126,171,0,

54,14,1,125,170,0,

54,14,1,125,169,1,

54,15,1,124,167,0,

53,14,0,124,167,1,

53,14,1,123,167,1,

53,14,0,122,166,0,

52,14,0,121,165,1,

52,14,0,121,164,0,

51,13,1,121,163,1,

51,14,0,120,163,0,

51,13,1,120,162,1,

51,14,0,119,161,0,

52,13,1,118,161,1,

51,14,1,118,159,0,

51,13,1,117,159,0,

51,13,1,116,159,1,

50,13,1,116,158,1,

50,13,1,115,157,1,

50,13,0,115,157,1,

50,13,0,114,156,0,

49,13,1,114,155,1,

49,13,1,114,155,0,

49,12,1,113,154,1,

51,14,1,112,153,1,

54,15,0,112,152,0,

53,15,1,112,152,0,

53,15,1,110,152,0,

53,15,1,110,151,0,

52,15,1,110,150,0,

52,15,1,109,149,1,

51,15,0,109,149,1,

51,15,1,108,148,0,

51,14,1,108,147,0,

51,15,1,108,147,1,

50,15,0,107,146,1,

51,15,1,167,225,1,

51,15,1,241,348,0,

50,14,0,239,353,1,

50,14,0,236,351,1,

50,14,1,235,348,1,

50,14,0,233,346,0,

49,14,1,231,344,0,

49,14,1,231,342,0,

49,14,1,230,339,0,

48,14,1,229,337,0,

48,14,1,227,335,0,

48,14,0,226,333,1,

49,19,1,225,332,0,

48,19,1,224,329,0,

48,19,1,223,327,0,

48,19,1,222,327,0,

48,19,1,221,324,0,

48,19,0,220,323,0,

48,18,1,218,321,0,

47,19,0,217,319,0,

47,18,0,216,318,0,

47,18,0,216,316,0,

46,18,1,214,314,0,

46,18,0,213,312,0,

60,18,0,212,311,0,

59,18,0,211,309,0,

59,18,0,210,307,0,

59,18,0,209,306,0,

58,18,1,207,304,0,

58,17,0,207,303,0,

57,17,1,206,301,0,

57,17,0,205,300,0,

57,17,0,204,299,0,

57,17,0,204,297,0,

56,17,0,202,295,0,

56,17,0,201,294,0,

117,21,0,201,376,1,

124,36,0,199,470,0,

123,35,0,199,465,0,

122,54,0,198,462,0,

121,55,0,197,457,1,

120,55,1,196,455,1,

120,55,0,195,451,1,

120,54,0,194,449,0,

119,54,0,194,446,0,

118,53,0,193,443,0,

117,53,1,192,440,1,

117,52,0,191,437,1,

115,52,0,190,434,1,

115,52,0,189,432,0,

115,51,0,188,519,1,

114,51,1,187,641,0,

114,51,1,186,670,0,

113,51,0,185,664,1,

112,50,0,185,657,0,

112,50,0,184,652,1,

111,50,1,183,646,1,

111,49,1,182,639,1,

110,49,1,181,635,1,

109,49,1,180,630,0,

109,49,1,179,625,1,

108,49,1,179,620,1,

108,48,1,178,614,1,

107,48,1,177,610,1,

107,48,1,176,604,1,

106,48,1,176,601,1,

105,47,1,175,595,1,

105,47,1,174,591,1,

104,46,1,173,587,1,

103,47,1,172,583,1,

164,67,1,172,579,1,

162,66,1,171,574,1,

161,65,1,170,570,1,

159,66,1,169,566,1,

159,65,1,169,561,1,

158,65,1,167,558,1,

157,64,1,167,553,1,

156,63,1,166,551,1,

155,63,1,166,546,1,

155,65,1,165,542,1,

153,76,1,163,539,2,

153,75,1,163,535,1,

152,74,1,162,531,1,

151,74,1,161,527,1,

150,73,1,161,525,1,

149,73,1,159,521,2,

149,71,2,159,517,1,

148,71,1,159,514,1,

147,71,1,158,510,1,

147,71,2,157,507,2,

146,71,2,156,504,1,

145,70,2,156,499,2,

143,70,2,155,497,1,

143,70,1,155,494,2,

143,69,2,154,491,2,

142,69,2,153,487,2,

141,68,2,152,484,2,

140,68,2,152,481,2,

140,67,2,152,478,2,

139,67,2,150,476,2,

138,67,2,149,473,2,

137,66,2,149,470,2,

137,66,2,148,467,2,

135,65,2,148,463,2,

135,66,2,147,462,2,

135,65,2,146,459,2,

135,64,2,146,455,2,

134,64,2,145,453,2,

133,64,2,144,450,2,

132,63,1,143,448,2,

131,63,2,143,445,2,

131,63,2,143,443,2,

130,62,2,142,440,2,

129,62,2,141,438,2,

129,62,1,141,435,2,

129,62,2,140,432,2,

127,61,2,140,430,2,

127,61,2,139,427,2,

126,61,2,138,425,2,

126,61,1,137,422,1,

125,60,2,137,419,2,

125,60,1,137,418,1,

124,59,2,135,415,2,

124,59,2,135,413,2,

123,59,2,135,411,2,

123,59,2,134,408,2,

121,58,1,133,407,2,

121,58,2,133,404,2,

120,57,2,132,402,2,

120,57,1,131,399,2,

120,57,1,131,397,1,

119,57,1,131,396,2,

119,56,2,130,393,1,

118,56,1,130,391,1,

117,56,2,129,389,2,

116,56,1,128,387,1,

115,56,1,127,385,1,

115,55,1,127,383,1,

115,55,1,127,381,1,

114,54,2,126,379,1,

114,54,2,125,377,1,

113,54,1,125,375,1,

112,53,1,124,372,2,

112,53,1,124,371,1,

112,53,1,123,369,1,

111,53,1,123,367,1,

110,52,1,122,365,1,

110,52,1,157,363,1,

110,51,1,156,361,2,

109,51,1,156,359,1,

108,51,1,154,358,1,

108,51,2,153,499,1,

107,51,1,153,496,1,

107,50,1,152,492,1,

106,50,1,152,487,1,

106,50,1,150,485,1,

105,50,1,150,481,2,

105,49,1,149,478,1,

103,49,1,147,474,1,

103,48,1,147,471,1,

103,48,1,146,467,1,

103,48,1,146,464,1,

102,48,1,145,462,1,

102,48,1,144,458,1,

101,48,1,143,455,1,

101,47,1,143,453,1,

101,47,1,142,450,1,

100,47,1,142,447,1,

99,46,1,141,444,1,

110,46,1,140,441,1,

145,67,1,140,439,1,

144,66,1,139,436,2,

143,65,1,138,433,1,

143,65,1,137,430,1,

142,65,1,135,428,1,

141,64,1,135,425,1,

140,63,1,135,423,1,

139,63,1,135,420,1,

139,63,1,134,417,1,

138,62,1,134,415,1,

137,62,1,133,412,1,

137,62,1,132,410,1,

135,62,1,131,408,1,

135,61,1,131,405,1,

134,61,1,130,418,1,

134,61,1,130,507,1,

133,60,1,129,503,1,

131,60,1,128,499,1,

131,59,1,127,495,1,

131,59,1,127,492,1,

130,59,1,126,487,1,

129,58,1,126,485,1,

129,58,1,125,481,1,

128,57,1,125,478,1,

127,57,1,124,475,1,

127,57,1,124,471,1,

126,57,1,123,468,1,

126,56,1,123,465,1,

125,56,1,122,462,1,

124,56,1,121,459,1,

124,56,1,121,455,1,

123,55,1,120,453,1,

123,56,1,120,450,1,

121,54,1,120,448,1,

121,54,1,119,445,1,

121,54,1,118,442,1,

120,54,1,118,440,1,

120,54,1,117,435,1,

119,53,1,116,433,1,

119,53,1,115,431,1,

118,53,0,115,428,1,

117,52,1,115,425,1,

117,52,1,114,423,1,

116,51,1,114,420,1,

115,51,1,114,417,1,

115,61,1,113,415,1,

114,62,1,113,413,1,

114,62,1,112,410,1,

113,61,1,112,408,1,

113,61,0,111,406,1,

112,61,1,110,403,1,

112,60,1,110,401,1,

111,60,1,110,399,1,

110,60,1,109,396,1,

110,60,1,109,393,1,

110,59,1,108,391,1,

109,59,0,108,389,0,

108,58,0,107,387,0,

108,58,1,107,385,0,

107,57,1,107,383,0,

107,57,1,106,381,0,

106,57,1,105,379,1,

105,57,1,105,376,0,

105,57,1,105,374,0,

103,56,0,103,371,1,

103,56,1,103,370,1,

103,56,0,103,368,0,

103,56,0,103,366,1,

103,60,0,103,364,0,

102,59,0,102,362,0,

102,59,1,101,359,1,

101,59,1,101,358,1,

101,58,1,100,357,1,

100,58,1,100,354,1,

99,58,0,99,353,1,

99,57,0,99,352,1,

99,57,0,99,349,0,

98,57,0,99,348,1,

98,57,1,98,347,1,

98,56,0,98,345,0,

97,56,0,98,372,1,

97,56,1,97,386,0,

96,56,0,97,384,0,

96,55,1,96,382,1,

96,54,0,96,379,1,

95,54,0,96,377,0,

95,54,0,95,375,1,

94,54,0,94,373,0,

94,54,1,95,371,1,

94,53,0,94,368,0,

93,53,1,93,367,0,

98,53,0,93,364,0,

108,52,0,93,362,0,

107,52,0,101,359,0,

107,52,0,163,358,1,

106,52,0,167,356,0,

105,51,1,166,354,0,

105,51,0,165,352,0,

103,50,0,164,350,0,

103,51,0,163,348,1,

103,50,0,163,345,1,

102,50,0,162,344,0,

102,50,0,161,342,0,

101,49,1,159,341,0,

125,49,0,159,339,0,

124,49,0,158,337,0,

123,49,0,157,335,0,

122,48,0,156,334,1,

121,48,0,156,332,0,

121,48,0,155,329,0,

120,48,0,154,327,0,

120,47,0,153,327,1,

119,47,0,152,325,0,

118,46,0,165,323,0,

117,47,0,164,322,0,

117,46,0,163,321,1,

116,46,0,162,319,0,

115,46,0,161,318,0,

115,46,1,161,316,0,

114,45,0,159,314,0,

114,45,1,159,313,1,

113,45,0,158,312,1,

113,44,0,157,310,0,

112,44,0,156,308,0,

112,44,0,156,307,0,

145,44,0,155,305,0,

144,44,0,185,304,0,

143,44,0,243,303,0,

143,44,0,242,301,0,

142,43,0,240,300,0,

141,43,0,239,298,0,

140,43,0,237,297,0,

140,43,0,236,295,0,

139,42,0,235,294,0,

138,42,0,233,293,0,

137,42,0,231,291,0,

137,42,0,231,290,0,

135,54,0,230,289,1,

135,53,0,228,287,0,

135,53,0,228,286,1,

134,53,0,227,285,0,

133,52,0,226,283,0,

132,52,0,224,282,1,

132,51,0,224,281,0,

131,51,0,222,280,0,

130,51,0,221,278,0,

129,51,0,220,277,0,

129,50,0,219,275,0,

128,51,0,218,274,0,

127,51,0,216,273,0,

127,52,0,216,271,0,

126,52,0,215,271,0,

126,51,0,214,269,0,

125,51,0,212,268,0,

124,51,0,211,267,0,

124,51,0,211,265,0,

123,50,0,209,263,0,

123,50,0,209,263,0,

122,50,0,207,262,0,

121,50,0,206,261,0,

121,50,0,205,259,0,

120,49,1,204,259,0,

120,49,0,203,257,0,

120,49,0,202,256,0,

118,48,0,201,255,0,

118,48,0,200,254,0,

117,48,0,199,253,0,

116,47,0,198,252,0,

116,47,0,198,251,0,

115,47,0,197,249,0,

115,47,0,195,248,0,

114,47,0,195,248,0,

114,47,0,194,246,0,

113,46,0,192,245,0,

112,46,0,192,244,0,

112,46,0,191,243,0,

112,46,1,190,242,0,

111,45,0,189,241,0,

111,45,1,188,240,0,

110,46,0,188,239,0,

110,142,0,187,238,0,

114,204,0,185,237,0,

202,201,1,265,236,0,

199,199,0,294,234,0,

198,199,1,291,233,0,

196,198,0,289,231,0,

195,196,1,287,231,1,

194,195,0,286,230,0,

193,194,0,284,229,0,

192,193,0,282,228,0,

191,192,0,280,227,0,

190,191,0,279,226,0,

193,189,0,277,225,0,

209,188,1,275,224,0,

207,187,0,274,223,0,

207,186,0,273,222,0,

205,185,0,271,221,0,

204,184,0,269,220,0,

203,184,0,268,219,0,

201,182,0,267,218,0,

199,181,0,265,217,0,

199,180,0,263,216,0,

199,179,0,262,216,0,

197,178,1,261,214,0,

196,177,0,259,213,0,

195,176,0,258,212,0,

194,176,0,255,211,0,

193,174,0,255,211,0,

192,173,0,254,209,0,

190,173,0,252,208,0,

190,172,0,251,207,0,

189,171,0,249,207,0,

188,169,0,248,206,0,

187,169,0,248,205,0,

185,167,0,246,204,0,

185,167,0,244,203,0,

184,166,0,243,202,0,

183,166,0,242,201,0,

182,165,0,241,199,0,

181,163,0,240,199,0,

179,163,0,239,199,0,

179,162,0,237,198,0,

178,161,0,236,197,0,

177,160,0,235,196,0,

176,159,0,233,195,0,

175,159,0,231,195,0,

174,158,0,231,194,0,

173,157,0,230,193,0,

173,156,0,229,192,0,

172,155,0,228,191,0,

171,155,0,227,190,0,

170,154,0,225,190,0,

169,153,0,225,189,0,

167,152,0,224,188,0,

167,152,0,222,187,0,

167,155,0,221,187,0,

166,211,0,220,185,0,

165,210,0,219,185,0,

164,209,0,218,184,0,

163,207,0,217,184,0,

163,206,0,216,182,0,

162,205,0,215,182,0,

161,204,1,214,181,0,

159,203,0,213,179,0,

159,201,0,211,179,1,

158,199,1,211,178,0,

158,199,1,209,177,0,

157,198,0,208,177,1,

156,197,1,207,176,1,

155,195,0,207,175,0,

155,194,0,206,174,1,

154,193,0,205,174,1,

153,192,0,204,173,1,

152,191,0,203,172,0,

152,190,1,202,172,0,

151,189,0,201,171,0,

150,189,1,201,170,0,

149,187,0,199,169,1,

148,186,1,199,169,0,

147,185,1,199,167,0,

147,184,1,198,167,1,

146,184,0,196,166,1,

145,182,1,195,165,1,

144,182,1,195,165,0,

143,180,0,194,165,1,

143,179,1,193,163,1,

142,179,1,192,163,0,

185,178,0,191,162,0,

184,177,0,190,162,1,

183,176,1,189,161,1,

182,175,1,188,159,1,

180,173,1,188,159,1,

179,173,1,187,159,1,

178,172,1,185,158,0,

177,171,1,185,157,1,

176,186,1,184,157,1,

175,214,1,184,156,0,

174,212,0,182,155,0,

174,211,0,181,155,1,

173,209,1,180,154,1,

172,209,1,179,153,1,

171,207,0,179,153,0,

169,206,0,178,152,1,

169,205,0,177,152,0,

167,211,0,176,151,1,

167,211,1,211,150,0,

166,210,1,210,150,1,

166,209,0,209,149,0,

165,259,0,207,148,0,

163,275,0,206,147,1,

162,272,0,205,147,1,

162,271,0,204,146,1,

161,269,0,203,146,0,

160,267,0,202,145,1,

159,265,0,201,144,0,

158,263,0,199,143,1,

158,263,0,199,143,0,

157,261,0,198,143,0,

182,259,0,197,142,1,

180,327,1,196,142,1,

211,323,0,195,141,1,

210,321,1,194,141,0,

208,319,0,193,140,0,

207,316,0,192,139,1,

206,314,0,191,139,0,

204,313,1,190,138,0,

204,311,1,189,137,1,

203,309,0,188,137,1,

201,307,0,187,135,0,

199,305,0,185,135,1,

199,304,1,185,135,1,

198,335,0,184,135,0,

197,332,1,183,134,1,

195,331,0,182,134,1,

195,327,0,181,133,0,

193,326,0,180,133,0,

192,323,0,179,131,0,

192,322,0,179,131,1,

190,319,0,178,131,0,

190,318,0,275,130,1,

188,316,1,369,130,1,

188,315,0,504,129,1,

186,313,0,664,129,1,

185,311,0,746,127,0,

185,308,0,739,127,0,

184,307,0,731,127,0,

182,305,0,723,126,0,

182,304,0,715,152,1,

181,302,0,710,151,0,

179,300,0,702,150,0,

179,299,0,696,149,1,

178,297,0,689,147,0,

177,295,1,684,147,0,

176,293,0,678,146,0,

175,291,0,671,145,0,

174,290,0,665,144,0,

173,288,0,660,143,0,

172,287,0,655,148,0,

172,285,0,649,147,1,

171,284,1,643,147,0,

170,282,0,639,146,0,

169,280,0,633,145,0,

167,280,0,627,144,1,

171,278,0,623,143,0,

216,293,0,617,143,0,

214,291,0,614,142,0,

213,290,0,608,141,1,

211,287,0,604,141,0,

211,286,0,599,140,0,

209,284,0,595,139,0,

207,283,0,591,138,1,

207,283,1,587,137,0,

206,281,1,582,137,0,

204,280,0,578,135,0,

203,279,0,574,135,1,

202,277,0,569,135,1,

201,275,0,566,187,0,

199,273,0,562,207,1,

199,271,1,558,206,1,

198,271,0,553,205,1,

197,270,1,549,204,0,

195,268,1,546,202,1,

195,267,1,542,201,1,

193,266,1,539,199,1,

193,263,1,535,199,1,

192,263,1,531,198,1,

190,262,1,527,197,1,

190,260,1,524,195,1,

188,259,1,519,195,1,

188,257,1,518,193,1,

187,255,2,514,192,1,

185,255,1,510,192,1,

185,253,2,507,190,1,

235,252,2,503,189,1,

238,251,2,499,188,1,

237,249,2,497,187,1,

235,248,2,494,186,2,

234,247,2,489,185,2,

231,246,2,487,184,2,

231,244,2,484,183,2,

230,243,2,481,182,2,

228,242,2,478,181,2,

227,307,2,476,180,2,

229,306,2,473,179,2,

300,304,2,469,178,2,

298,302,2,466,177,2,

295,300,2,463,176,2,

294,298,3,461,176,2,

291,295,2,458,175,2,

290,295,2,455,174,2,

288,293,3,453,173,3,

287,291,3,450,172,3,

285,289,3,448,171,2,

284,287,2,444,170,2,

282,286,3,443,169,3,

280,284,3,441,169,3,

278,283,2,486,167,3,

277,281,3,481,167,3,

275,280,2,479,166,2,

274,278,3,475,165,3,

272,277,3,472,164,3,

271,275,3,467,163,2,

269,273,3,463,163,3,

268,271,3,462,162,3,

266,270,3,459,161,3,

265,269,3,455,159,3,

263,267,3,451,159,3,

262,266,3,450,159,3,

261,265,3,447,158,3,

259,263,3,443,157,3,

258,262,3,440,156,3,

255,260,3,438,155,3,

255,259,2,435,155,3,

253,257,2,432,154,3,

252,255,3,430,153,3,

251,254,3,428,152,2,

249,253,3,425,152,2,

248,252,2,423,151,3,

247,250,3,419,150,3,

246,249,2,418,149,2,

244,248,2,415,148,2,

242,247,2,413,147,2,

241,245,2,411,147,2,

240,243,3,408,146,2,

239,243,2,406,145,2,

238,241,2,403,145,2,

237,240,3,401,144,2,

236,239,2,399,143,2,

234,238,2,397,143,2,

233,237,2,395,142,2,

231,235,2,393,142,2,

231,234,2,391,141,2,

229,231,2,388,140,2,

228,231,2,387,139,2,

227,231,2,384,139,2,

226,230,2,382,138,2,

225,228,2,380,137,2,

224,227,2,378,137,2,

222,226,2,376,135,2,

221,225,2,374,135,2,

220,227,2,372,135,2,

219,225,2,370,134,2,

218,224,2,368,133,2,

217,223,2,366,133,2,

216,222,2,364,132,2,

215,221,2,363,131,2,

214,220,2,359,131,2,

213,219,2,359,131,2,

211,217,2,357,129,2,

211,217,2,355,129,2,

209,216,2,353,129,2,

207,215,2,351,127,1,

207,213,2,350,127,2,

207,212,2,348,127,2,

205,211,2,346,126,2,

204,211,2,344,126,2,

203,209,1,342,125,2,

202,207,1,341,124,2,

201,207,2,339,124,2,

199,206,1,337,123,2,

199,205,1,335,123,1,

198,204,2,334,122,2,

198,203,2,332,121,1,

196,202,2,330,121,2,

195,201,2,327,121,1,

194,199,1,327,120,1,

194,199,1,326,120,2,

192,199,1,324,120,1,

192,198,2,322,119,1,

191,197,1,321,118,1,

190,195,1,319,118,2,

189,195,1,318,117,1,

188,194,1,316,117,1,

187,193,1,315,116,1,

186,192,1,313,115,1,

185,191,1,312,115,1,

185,190,1,310,115,1,

184,189,1,309,114,1,

183,188,1,307,114,1,

182,188,1,305,113,1,

181,186,1,304,113,1,

179,185,1,303,112,1,

179,185,1,301,112,1,

179,184,1,300,112,1,

177,184,1,298,111,1,

176,182,1,295,110,2,

176,181,1,295,110,1,

175,180,1,294,109,1,

174,179,1,293,109,1,

173,179,1,291,108,1,

173,178,1,290,108,1,

172,177,1,288,108,1,

171,176,1,287,107,1,

170,176,1,286,106,1,

169,174,1,285,106,1,

167,174,1,283,106,1,

167,173,1,282,105,1,

167,172,1,280,105,1,

166,172,1,280,103,1,

165,171,1,278,103,1,

164,170,1,276,103,1,

165,169,1,275,103,1,

164,167,1,274,103,1,

163,167,1,273,102,1,

163,167,1,271,102,1,

162,166,1,270,102,1,

161,165,1,269,101,1,

160,164,1,268,100,1,

159,163,1,267,100,1,

159,163,1,265,100,1,

158,162,1,263,99,1,

158,161,1,263,99,1,

157,161,1,262,99,1,

156,159,1,261,98,1,

155,159,1,259,98,1,

155,158,1,259,97,1,

154,158,1,257,97,1,

153,157,1,255,97,1,

153,156,1,255,96,1,

152,156,1,254,96,1,

152,155,1,253,96,1,

151,155,1,252,95,1,

150,153,1,251,94,1,

149,153,1,249,94,1,

149,152,1,248,94,1,

148,152,1,348,94,1,

147,152,1,493,93,1,

147,150,0,615,93,1,

146,150,1,797,92,1,

145,149,1,901,92,0,

144,148,1,909,91,1,

143,147,1,914,91,1,

143,147,1,916,91,1,

143,146,1,919,90,1,

142,146,1,920,90,1,

142,145,1,921,89,1,

141,144,1,923,89,1,

141,143,1,924,89,1,

140,143,1,925,88,1,

139,142,0,926,88,1,

139,142,0,926,88,1,

138,141,0,927,88,0,

137,141,0,927,88,0,

135,140,1,929,87,0,

135,139,1,929,86,0,

135,139,0,929,86,0,

135,138,0,930,85,0,

135,137,1,931,85,1,

134,137,0,931,85,0,

133,135,0,931,85,0,

132,135,0,931,84,1,

131,135,1,932,84,1,

131,135,0,933,83,1,

131,134,0,933,83,0,

131,133,1,933,83,0,

130,133,1,934,82,0,

129,132,1,934,82,0,

129,131,1,934,82,0,

127,131,0,935,82,0,

127,131,0,935,81,1,

127,130,1,935,81,0,

126,129,1,935,80,1,

126,129,1,936,80,0,

125,128,1,937,80,0,

125,127,1,936,79,0,

124,127,0,937,79,1,

124,127,1,937,79,1,

123,126,0,937,78,1,

143,126,1,938,78,1,

143,125,1,938,78,1,

142,125,0,938,78,0,

141,124,0,937,77,0,

140,124,0,933,77,0,

140,123,1,915,77,0,

139,123,1,888,77,0,

138,122,0,877,76,1,

137,121,0,869,76,0,

135,121,0,859,76,0,

135,120,0,852,76,1,

135,120,0,843,75,0,

135,120,1,833,75,1,

134,119,1,826,75,0,

133,118,0,818,74,0,

132,118,0,812,74,0,

131,117,0,803,73,1,

131,117,0,795,73,1,

130,116,0,788,73,0,

130,115,0,780,71,0,

129,115,1,775,71,1,

128,115,0,767,71,0,

127,114,1,760,71,0,

127,114,1,753,71,0,

126,113,0,746,71,1,

126,113,0,740,71,0,

125,112,0,734,71,0,

125,112,0,728,70,0,

124,112,0,722,70,0,

123,111,0,716,70,0,

123,110,1,710,69,0,

122,110,0,704,69,0,

121,110,0,699,69,0,

121,109,0,693,69,0,

121,109,0,687,68,0,

120,108,0,681,67,0,

120,108,0,675,67,0,

119,107,0,671,67,1,

119,107,0,666,67,0,

118,107,0,660,67,0,

118,106,0,655,66,0,

117,105,0,650,66,0,

116,105,0,646,66,0,

116,103,0,641,66,0,

115,103,0,637,65,0,

115,103,0,632,65,0,

114,103,0,626,65,0,

114,103,0,623,65,0,

113,102,1,618,64,0,

113,102,0,614,63,0,

112,101,0,609,63,0,

112,101,0,604,63,0,

111,100,0,601,63,0,

111,100,0,596,63,0,

111,99,0,593,63,1,

110,99,0,588,62,0,

110,99,0,585,62,0,

109,105,0,580,62,0,

109,105,1,577,62,0,

108,105,0,573,61,0,

108,103,0,569,61,0,

107,103,0,565,61,0,

107,103,0,561,61,0,

107,103,0,558,60,0,

106,102,0,554,60,0,

105,101,0,551,60,0,

105,101,0,547,60,0,

103,100,0,543,59,0,

103,100,0,540,60,0,

103,99,0,537,59,0,

103,99,0,533,59,0,

103,98,1,531,59,0,

102,98,0,527,59,0,

102,97,1,524,58,0,

102,97,0,520,58,0,

101,97,0,518,57,0,

101,97,0,515,57,0,

100,96,0,511,57,0,

100,95,0,509,57,0,

99,95,0,506,57,0,

99,95,0,503,56,0,

99,94,0,499,56,1,

98,94,0,497,56,0,

98,94,0,495,56,0,

98,93,0,492,56,0,

97,93,0,489,55,0,

97,92,0,487,56,0,

96,92,0,485,55,0,

96,92,1,481,55,0,

96,92,0,479,54,0,

95,91,0,477,54,0,

95,91,0,474,54,0,

94,91,0,472,54,0,

94,90,0,469,54,0,

94,89,0,467,54,0,

93,89,0,465,53,1,

93,89,0,462,53,1,

92,88,1,460,53,0,

92,88,0,457,53,0,

92,88,0,455,52,0,

92,88,0,452,53,1,

92,87,0,451,52,0,

91,87,0,448,52,1,

90,87,0,446,51,0,

90,86,0,444,51,0,

90,86,0,441,51,0,

89,86,1,440,51,0,

89,85,0,438,51,0,

89,85,0,435,51,0,

89,84,0,433,51,0,

88,84,0,431,50,0,

88,83,0,429,50,0,

88,83,0,426,50,0,

87,83,0,423,50,0,

87,83,0,423,49,0,

86,82,0,421,49,0,

86,82,0,418,49,0,

85,82,0,415,49,0,

85,81,0,414,48,0,

85,81,0,412,49,0,

85,81,0,410,48,0,

84,81,0,408,48,0,

83,80,0,407,48,0,

83,79,0,405,48,0,

83,79,0,403,48,0,

83,79,0,401,48,0,

83,79,0,399,47,0,

82,79,0,397,47,0,

82,78,0,395,47,0,

82,78,0,393,47,0,

82,78,0,391,46,0,

81,77,0,390,46,0,

81,77,0,387,46,0,

81,77,0,386,46,0,

80,76,0,384,46,0,

80,76,0,383,45,0,

79,76,0,380,45,0,

79,76,0,379,45,0,

79,75,0,377,45,0,

78,75,0,376,45,0,

78,75,0,374,45,0,

78,75,0,372,45,0,

78,74,0,371,44,0,

77,74,0,369,44,0,

77,73,0,368,44,0,

77,73,0,366,44,0,

77,73,0,364,44,0,

76,73,0,363,44,0,

76,71,0,359,44,0,

76,71,0,359,43,0,

75,71,0,358,43,0,

75,71,0,355,42,0,

75,71,0,355,43,0,

82,71,0,353,43,0,

81,71,0,351,42,0,

81,70,1,350,42,0,

81,70,0,348,42,0,

80,70,0,347,42,0,

79,70,0,345,42,0,

79,69,0,344,41,0,

79,69,0,342,41,0,

79,69,0,341,41,0,

79,69,0,339,41,0,

78,68,0,338,41,0,

77,67,0,336,39,0,

77,67,0,335,40,0,

77,67,0,334,40,0,

76,67,0,332,39,0,

76,67,0,331,39,0,

76,67,1,329,39,0,

76,66,0,327,39,0,

75,66,0,327,39,0,

75,66,0,325,39,0,

75,65,0,323,39,0,

75,65,0,323,39,0,

74,65,1,321,39,0,

73,65,0,319,39,0,

73,64,0,318,39,0,

73,64,0,317,39,0,

71,63,0,316,38,0,

71,63,0,315,38,0,

71,63,0,313,38,0,

71,63,0,312,38,0,

71,63,0,311,37,0,

71,63,0,310,38,0,

71,63,0,307,37,0,

71,62,0,307,37,0,

71,62,0,305,37,0,

70,62,0,304,37,0,

70,61,0,303,37,0,

69,61,0,302,37,1,

82,61,0,301,37,0,

82,61,0,300,36,0,

81,60,0,298,36,0,

81,60,0,295,36,1,

80,60,0,295,35,0,

79,60,0,295,35,0,

79,59,0,293,35,0,

79,59,0,292,35,0,

79,59,0,291,35,0,

79,59,0,290,35,0,

78,59,0,288,35,0,

78,58,0,287,35,0,

79,58,0,286,35,0,

93,58,1,286,34,0,

93,57,0,284,34,0,

92,57,0,283,35,0,

92,57,0,282,34,0,

91,57,0,281,34,0,

91,56,0,280,33,0,

90,56,0,279,34,0,

89,56,0,278,33,0,

89,56,0,276,33,0,

89,56,0,275,33,0,

88,56,0,274,33,0,

88,55,0,273,33,0,

88,55,0,271,33,0,

87,55,0,271,32,0,

87,54,0,270,32,0,

86,54,0,269,32,0,

86,54,0,268,32,0,

85,54,0,267,31,0,

85,54,0,265,31,0,

85,53,0,264,31,0,

84,53,0,263,31,0,

83,53,0,263,31,0,

83,53,0,262,31,0,

184,53,0,261,31,0,

183,52,0,259,31,0,

182,52,0,258,31,1,

181,51,0,257,31,0,

179,51,0,255,30,0,

179,51,0,255,30,0,

177,51,0,254,30,0,

177,51,0,253,30,0,

176,51,0,252,30,0,

175,51,0,251,30,1,

174,51,0,250,30,0,

173,50,0,249,30,0,

172,50,0,248,30,0,

171,49,0,247,29,0,

170,49,0,246,29,0,

169,49,0,245,29,0,

169,49,0,243,29,0,

167,48,0,243,29,0,

167,49,0,242,29,0,

166,48,0,241,29,0,

165,48,0,240,29,1,

164,48,0,240,28,1,

163,48,0,238,28,0,

163,47,0,237,28,0,

162,53,1,237,28,0,

161,53,0,236,28,0,

161,53,0,235,28,0,

159,52,0,233,27,0,

159,52,0,233,27,0,

158,51,0,231,28,0,

158,52,0,231,27,0,

157,51,0,230,27,0,

156,51,0,229,27,0,

156,51,0,228,27,0,

154,50,0,227,27,0,

154,50,0,227,27,0,

153,50,0,226,27,0,

152,50,0,225,26,1,

152,49,0,224,26,0,

152,49,0,223,26,0,

150,49,0,222,26,0,

150,49,1,222,26,0,

149,49,0,220,26,0,

148,48,0,220,25,0,

147,48,0,219,25,0,

147,48,0,218,25,0,

146,48,0,217,25,0,

145,47,0,216,25,0,

145,47,0,216,25,0,

144,46,0,215,25,0,

143,47,0,214,24,0,

143,46,0,213,25,0,

142,46,0,212,25,0,

142,46,0,211,25,0,

141,46,0,211,24,0,

140,45,0,210,24,0,

140,45,0,209,25,0,

139,45,0,207,24,0,

138,45,0,207,24,0,

141,57,0,206,24,0,

203,58,0,206,24,0,

201,57,0,205,24,0,

199,57,0,204,24,0,

198,57,0,203,23,0,

197,57,0,203,24,0,

196,56,0,202,23,0,

195,56,0,201,24,0,

194,56,0,199,23,0,

193,56,0,199,23,0,

192,55,0,199,22,0,

191,55,0,198,22,0,

190,55,0,197,23,0,

189,54,0,197,23,0,

188,54,0,195,22,0,

187,54,0,195,22,0,

187,53,1,194,22,0,

185,53,0,193,22,0,

185,53,0,193,22,0,

184,52,0,192,22,0,

183,52,0,192,21,0,

182,51,0,191,22,0,

181,51,0,190,21,0,

181,51,0,189,21,0,

180,51,0,189,21,0,

179,51,0,188,21,0,

179,50,0,187,21,0,

178,50,0,187,21,0,

177,50,0,185,21,0,

176,49,0,185,20,0,

175,49,0,184,20,0,

174,49,0,184,21,0,

174,49,0,184,20,0,

172,48,0,182,20,0,

172,48,0,181,20,0,

171,48,0,181,20,0,

170,48,0,180,19,0,

169,47,0,179,19,0,

167,47,0,179,19,0,

167,47,0,178,20,0,

167,47,0,177,19,0,

166,47,0,177,19,0,

166,46,0,176,19,0,

164,46,0,176,19,0,

164,46,0,175,20,0,

163,46,0,174,19,0,

162,45,0,174,19,0,

161,45,0,173,19,0,

161,45,0,172,19,0,

159,45,0,172,18,0,

159,45,0,171,18,0,

158,44,0,171,19,0,

158,44,0,170,18,0,

157,44,0,169,18,1,

156,44,0,168,19,0,

156,43,0,167,18,0,

155,43,0,167,18,0,

154,43,0,167,18,0,

153,43,0,166,18,0,

153,43,0,166,18,0,

152,43,0,165,17,0,

152,42,0,164,17,0,

151,42,0,163,17,0,

150,41,0,163,17,0,

150,42,0,163,18,0,

148,41,0,162,17,0,

148,41,0,161,23,0,

147,41,0,161,36,0,

147,41,0,159,35,0,

146,41,0,159,35,1,

145,41,0,159,35,0,

145,39,0,158,35,0,

143,39,0,158,35,0,

143,39,0,157,34,0,

143,39,0,156,34,0,

142,39,0,156,34,0,

141,39,0,156,34,0,

141,39,0,155,33,0,

140,39,0,155,33,0,

139,39,0,153,33,0,

139,39,0,153,33,0,

138,38,0,153,33,0,

137,38,0,152,32,0,

137,38,0,152,32,0,

135,38,0,151,32,0,

135,38,0,150,31,0,

135,37,0,150,31,0,

135,37,0,149,31,0,

134,37,0,149,31,0,

133,37,0,148,31,0,

133,37,0,147,31,0,

132,37,0,147,31,0,

131,36,0,146,30,0,

131,36,0,146,30,0,

131,36,0,145,31,0,

130,36,0,145,30,0,

129,36,0,144,30,0,

129,35,0,143,30,0,

127,35,0,143,29,0,

127,35,0,143,30,0,

127,35,0,142,29,0,

126,35,0,142,29,0,

126,35,0,141,29,0,

125,34,0,141,29,0,

125,35,0,140,28,0,

124,34,0,140,28,0,

124,34,0,139,29,0,

123,34,0,139,28,0,

122,34,0,138,28,0,

122,34,0,137,28,0,

121,33,0,137,28,0,

121,34,0,137,28,0,

121,33,0,135,27,0,

120,33,0,135,27,0,

120,33,0,135,27,0,

119,33,0,135,27,1,

119,33,0,134,27,0,

118,32,0,134,27,0,

117,32,0,133,26,0,

117,33,0,133,26,0,

116,32,0,132,26,1,

115,32,0,131,26,0,

115,32,0,131,26,0,

115,31,0,131,25,0,

114,31,0,131,25,0,

114,31,0,130,25,0,

113,31,0,130,25,0,

113,31,0,129,25,0,

112,31,0,129,25,0,

112,31,0,127,24,0,

111,31,0,127,24,0,

111,31,0,127,24,0,

110,31,0,127,24,0,

110,30,0,126,24,0,

110,30,0,126,24,0,

109,30,0,125,24,0,

109,30,0,125,24,0,

108,30,0,124,24,0,

108,30,0,124,24,0,

107,30,0,124,24,0,

107,29,0,123,23,0,

107,29,0,123,23,0,

106,29,0,122,23,0,

106,29,0,122,23,0,

105,29,0,121,22,0,

105,28,0,121,22,0,

103,29,1,120,22,0,

103,28,0,120,22,0,

103,28,0,120,22,0,

103,28,0,119,22,0,

103,28,0,119,22,0,

102,28,0,118,22,0,

101,28,0,118,21,0,

101,28,0,117,21,0,

101,27,0,117,21,0,

100,27,0,117,21,0,

99,27,0,116,21,0,

99,27,0,115,21,1,

99,27,0,115,20,0,

99,27,0,115,21,0,

98,27,0,114,20,0,

98,27,0,114,20,0,

97,27,0,114,20,0,

97,26,0,113,19,0,

96,26,0,113,20,0,

96,26,0,113,20,0,

96,26,0,112,19,0,

96,26,0,112,19,0,

95,25,0,111,19,0,

95,25,0,111,19,0,

94,25,0,111,19,0,

94,25,0,110,19,0,

93,25,0,110,19,0,

93,25,0,109,19,0,

93,25,0,109,19,0,

92,25,0,109,19,0,

92,25,0,108,19,0,

92,25,0,108,18,0,

91,24,0,108,19,1,

91,24,0,107,18,0,

90,24,0,107,18,0,

89,24,0,106,18,0,

89,24,0,107,18,0,

89,24,0,106,18,0,

89,24,0,105,18,0,

88,24,0,105,18,0,

88,24,0,105,18,0,

88,24,0,103,18,0,

88,23,0,103,18,0,

87,23,0,103,17,0,

87,23,0,103,17,0,

87,23,0,103,17,0,

86,22,0,103,17,0,

86,22,0,102,17,0,

85,22,0,102,16,0,

85,22,0,101,17,0,

85,22,0,101,17,0,

84,22,0,101,16,0,

83,22,0,100,16,0,

83,22,0,100,16,0,

83,22,0,99,16,0,

83,22,0,99,16,0,

82,22,0,99,16,0,

82,21,0,99,16,0,

82,22,0,99,16,0,

81,22,0,98,15,0,

81,21,0,98,16,0,

81,21,0,97,16,0,

81,21,0,97,15,0,

80,21,0,97,15,0,

79,21,0,96,15,0,

79,21,0,96,15,0,

79,21,0,96,15,0,

79,21,0,96,15,0,

79,20,0,96,15,0,

78,21,0,95,15,0,

78,20,0,95,15,0,

77,20,0,94,15,0,

78,20,0,94,15,0,

77,19,0,93,15,0,

77,20,0,94,14,0,

77,19,0,93,15,1,

76,20,0,93,15,0,

76,19,0,92,14,0,

76,19,0,92,14,0,

75,19,0,92,14,0,

75,19,0,92,14,0,

75,19,0,91,14,0,

75,19,0,91,14,0,

74,19,0,91,14,0,

74,19,0,90,14,0,

74,19,0,90,14,0,

73,19,0,89,14,0,

73,19,0,89,13,0,

73,18,0,89,14,0,

72,18,0,89,14,0,

71,18,0,89,14,0,

71,18,0,88,13,0,

71,18,0,88,13,0,

71,18,0,88,13,0,

71,18,0,88,13,0,

75,23,0,88,13,0,

75,25,0,87,13,0,

74,25,0,86,13,0,

74,25,0,86,13,0,

73,24,0,86,13,0,

73,24,0,86,13,0,

73,24,0,85,13,0,

73,24,0,85,12,0,

72,24,0,85,12,0,

71,24,0,84,12,0,

71,24,0,84,12,0,

71,24,0,84,13,0,

71,24,0,83,12,0,

71,24,0,83,12,0,

109,31,0,83,12,0,

110,36,0,83,12,0,

109,36,0,83,12,0,

108,35,0,82,12,0,

108,35,0,82,12,0,

108,35,0,82,12,0,

107,35,0,82,12,0,

107,35,0,81,12,0,

106,35,0,81,12,0,

105,35,0,80,12,0,

105,34,0,80,12,0,

103,34,0,79,12,0,

103,34,0,79,11,0,

103,34,0,79,12,0,

103,34,0,79,11,0,

102,33,0,79,11,0,

102,33,0,78,11,0,

101,33,0,78,11,0,

101,33,0,78,11,0,

100,32,0,78,11,0,

100,32,0,78,11,0,

99,32,0,77,11,0,

99,31,0,77,11,0,

99,31,0,77,11,0,

98,31,0,76,11,0,

99,32,0,76,11,0,

99,33,0,76,10,0,

99,32,0,76,11,0,

98,32,0,76,10,0,

98,32,0,75,10,0,

98,32,0,75,10,0,

97,32,0,75,10,0,

97,31,0,74,10,0,

96,31,0,74,10,0,

96,31,0,74,10,0,

96,31,0,74,10,0,

95,31,0,73,9,0,

95,31,0,73,10,0,

94,31,0,73,9,0,

94,31,0,73,9,0,

93,30,0,71,10,0,

93,30,0,71,10,0,

93,30,0,71,9,0,

92,30,0,71,9,0,

92,30,0,71,9,0,

92,30,0,71,9,0,

91,29,0,71,9,0,

91,29,0,71,9,0,

91,29,0,71,9,0,

90,29,0,71,9,0,

89,29,0,70,9,0,

89,29,0,70,9,0,

89,29,0,70,9,0,

88,29,0,70,9,0,

88,28,0,69,9,0,

88,28,0,69,9,0,

88,28,0,69,9,0,

87,28,0,68,9,0,

87,28,0,69,9,0,

86,28,0,68,9,0,

86,28,0,68,9,0,

86,27,0,68,9,0,

85,27,0,67,9,0,

85,27,0,67,7,0,

84,27,0,67,9,0,

84,27,0,67,7,0,

83,27,0,66,7,0,

83,27,0,66,7,0,

83,27,0,66,7,0,

83,27,0,66,7,0,

83,26,0,66,8,0,

82,26,0,65,7,0,

82,26,0,65,7,0,

81,26,0,65,7,0,

81,25,0,65,7,0,

81,25,0,65,7,0,

80,25,0,64,7,0,

80,25,0,64,7,0,

79,25,0,64,7,0,

79,25,0,64,7,0,

79,25,0,63,7,0,

79,25,0,63,7,0,

78,25,0,63,7,0,

78,25,0,63,8,0,

78,24,0,63,7,0,

78,24,0,63,7,0,

77,24,0,62,8,0,

77,24,0,62,7,0,

77,24,0,62,7,0,

76,24,0,62,7,0,

76,24,0,62,7,0,

76,24,0,62,7,0,

76,24,0,61,7,0,

75,24,0,61,7,0,

75,23,0,61,7,0,

74,23,0,61,7,0,

74,23,0,61,7,0,

74,23,0,60,8,0,

73,23,0,60,7,0,

73,23,0,60,7,0,

73,23,0,60,7,0,

73,22,0,60,7,0,

71,22,0,59,7,0,

71,22,0,60,7,0,

71,22,0,59,7,0,

71,22,0,59,7,0,

73,22,0,59,7,0,

75,50,0,58,7,0,

74,49,0,58,7,0,

74,49,0,58,7,0,

74,49,0,58,7,0,

73,48,0,58,7,0,

73,48,0,57,7,0,

73,48,0,57,7,0,

73,48,0,57,7,0,

71,48,0,57,7,0,

71,48,0,57,7,0,

71,47,0,57,7,0,

71,47,0,56,7,0,

71,46,0,56,7,0,

71,46,0,56,7,0,

70,46,0,56,7,0,

70,46,0,56,7,0,

70,46,0,56,7,0,

69,45,0,56,7,0,

69,45,0,55,6,0,

69,45,0,55,6,0,

69,45,0,55,6,0,

68,45,0,55,6,0,

68,44,0,55,6,0,

68,44,0,54,6,0,

67,44,0,54,6,0,

67,44,0,54,7,0,

67,44,0,54,6,0,

67,43,0,53,6,0,

67,43,0,53,6,0,

67,43,0,53,6,0,

66,43,0,53,6,0,

66,42,0,53,6,0,

66,42,0,53,6,0,

65,42,0,52,6,0,

65,42,0,52,6,0,

65,41,0,52,6,0,

65,41,0,52,6,0,

65,41,0,51,6,0,

64,41,0,51,6,0,

63,41,0,51,5,0,

63,41,0,51,6,0,

63,39,0,51,6,1,

63,41,0,51,6,0,

63,41,0,51,6,0,

63,39,0,51,6,0,

63,39,0,51,5,0,

62,39,0,50,6,0,

62,39,0,50,5,0,

62,39,0,50,5,0,

62,39,0,50,5,0,

62,39,0,49,5,0,

62,39,0,49,6,0,

61,39,0,49,5,0,

61,38,0,49,5,0,

61,38,0,49,5,0,

60,38,0,49,5,0,

61,39,0,48,5,0,

61,39,0,49,5,0,

60,39,0,48,5,0,

60,39,0,48,5,0,

60,39,0,48,5,0,

59,39,0,48,5,0,

60,38,0,47,5,0,

59,38,0,48,5,0,

59,38,0,48,5,0,

59,38,0,47,5,0,

59,37,0,47,5,0,

58,37,0,47,5,0,

58,37,0,47,5,0,

59,38,0,47,5,0,

59,38,0,46,5,0,

59,38,0,46,5,0,

59,37,0,46,5,0,

59,37,0,46,5,0,

58,37,0,46,4,0,

58,37,0,46,5,0,

57,36,0,45,5,1,

57,36,0,45,4,0,

57,36,0,45,5,0,

57,35,0,45,4,0,

57,35,0,45,5,0,

56,35,0,45,4,0,

56,35,0,45,4,0,

66,35,0,44,4,0,

67,35,0,44,4,0,

67,35,0,44,4,0,

67,35,0,44,4,0,

67,35,0,44,5,0,

66,35,0,44,4,0,

66,34,0,44,4,0,

65,34,0,44,4,0,

65,34,0,43,4,0,

65,34,0,43,4,0,

65,34,0,43,4,0,

65,33,0,43,3,0,

64,33,0,43,4,0,

64,49,0,43,4,0,

64,61,0,42,4,0,

63,61,0,42,3,0,

63,60,0,42,4,0,

63,60,0,42,3,0,

63,60,0,41,4,0,

62,59,0,41,3,0,

62,59,0,41,3,0,

62,59,0,41,3,0,

62,59,0,41,3,0,

61,58,0,41,4,0,

61,58,0,41,5,0,

61,57,0,41,4,0,

61,57,0,39,3,0,

60,57,0,41,3,0,

61,57,0,39,3,0,

61,56,0,39,3,0,

60,56,0,39,3,0,

60,56,0,39,3,0,

60,56,0,39,3,0,

60,56,0,39,3,0,

60,56,0,39,3,0,

59,55,0,39,3,0,

59,55,0,39,3,0,

59,54,0,39,3,0,

58,54,0,39,3,0,

58,54,0,39,3,0,

58,54,0,39,3,0,

57,54,0,39,3,0,

57,53,0,38,3,0,

57,53,0,38,3,0,

57,53,0,39,3,0,

57,53,0,38,3,0,

56,52,0,38,3,0,

56,52,0,38,3,0,

56,52,0,38,3,0,

56,51,0,38,3,0,

56,51,0,37,3,0,

56,51,0,37,3,0,

56,51,0,37,3,0,

55,51,0,37,3,0,

55,50,0,37,3,0,

55,50,0,37,3,0,

54,50,0,36,3,0,

54,50,0,36,3,0,

54,49,0,37,3,0,

53,49,0,36,3,0,

53,49,0,36,3,0,

53,49,0,36,3,0,

53,48,0,35,3,0,

52,48,0,35,3,0,

53,48,0,35,3,0,

52,48,0,36,3,0,

52,48,0,35,2,0,

52,48,0,35,3,0,

51,47,0,35,3,0,

52,48,0,35,3,0,

51,47,0,35,3,0,

51,47,0,35,4,0,

51,46,0,34,2,0,

51,46,0,35,3,0,

51,46,0,34,3,0,

51,46,0,34,3,0,

51,46,0,34,3,0,

50,46,0,34,3,0,

50,45,0,34,3,0,

50,45,0,34,3,0,

50,45,0,34,2,0,

50,45,0,34,2,0,

50,45,0,33,3,0,

53,44,0,33,3,0,

53,44,0,33,3,0,

53,44,0,33,3,0,

52,44,0,33,3,0,

53,44,0,33,2,0,

52,43,0,33,3,0,

52,43,0,33,2,0,

52,43,0,32,3,0,

52,43,0,32,2,0,

51,43,0,31,2,0,

51,43,0,31,3,0,

51,42,0,31,3,0,

51,42,0,31,2,0,

84,57,0,31,2,0,

101,70,0,31,2,0,

100,70,0,31,2,0,

99,69,0,31,2,0,

99,69,0,31,2,0,

99,68,0,31,2,0,

98,68,0,31,3,0,

97,68,0,31,2,0,

97,67,0,31,2,0,

97,67,0,31,2,0,

96,67,0,31,3,0,

96,67,0,30,2,0,

96,66,0,30,2,0,

95,66,0,30,3,0,

95,66,0,30,2,0,

94,65,0,30,2,0,

94,65,0,30,2,0,

94,65,0,30,2,0,

93,64,0,30,3,0,

93,64,0,30,2,0,

92,63,0,29,2,0,

92,63,0,29,2,0,

92,63,0,29,2,0,

91,63,0,29,2,0,

91,63,0,29,2,0,

90,63,0,29,2,0,

90,62,0,29,2,0,

89,62,0,29,2,0,

89,62,0,29,2,0,

89,61,0,28,2,0,

88,61,0,29,2,0,

88,61,0,28,2,0,

88,60,0,28,2,0,

87,60,0,28,2,0,

86,60,0,28,2,0,

86,60,0,28,2,0,

86,60,0,28,2,0,

86,59,0,28,2,0,

85,59,0,28,2,0,

85,59,0,27,2,0,

85,58,0,27,2,0,

84,58,0,28,2,0,

84,58,0,27,2,0,

84,57,0,27,2,0,

83,57,0,27,2,0,

83,57,0,27,3,0,

83,57,0,27,2,0,

83,56,0,27,2,0,

82,57,0,27,2,0,

82,56,0,27,2,0,

81,56,0,26,2,0,

81,56,0,27,2,0,

80,56,0,26,2,0,

80,56,0,26,2,0,

79,55,0,26,2,0,

79,55,0,26,2,0,

79,55,0,26,2,0,

