
19,35,3,93,44,4,

29,34,3,93,43,3,

28,34,3,92,43,3,

28,34,3,92,43,3,

28,34,3,92,43,3,

28,34,3,92,43,4,

28,34,3,91,43,3,

28,34,3,91,43,3,

28,33,3,90,43,3,

28,34,3,90,42,3,

27,33,3,90,43,3,

28,33,3,89,42,3,

27,33,3,89,42,3,

27,32,3,89,41,3,

27,32,4,88,41,3,

27,32,3,88,41,3,

27,32,3,88,41,3,

26,32,3,88,41,3,

26,31,3,87,40,3,

26,31,3,87,41,3,

26,31,3,86,39,3,

26,31,4,86,39,3,

26,31,3,85,39,3,

26,31,3,85,39,3,

25,31,4,85,39,3,

25,31,3,84,39,3,

25,31,3,84,39,4,

25,30,3,83,39,4,

25,30,3,83,39,3,

25,30,3,83,39,3,

25,30,3,83,39,4,

25,30,3,83,38,3,

25,30,3,82,38,3,

24,30,3,82,38,3,

24,30,3,81,38,3,

24,30,3,81,38,3,

24,30,4,81,38,3,

24,30,3,80,37,3,

24,30,3,80,37,3,

24,30,3,79,37,3,

24,29,4,79,37,3,

24,29,3,79,37,3,

24,29,3,79,36,3,

24,29,4,79,36,3,

23,29,4,78,36,3,

24,29,3,78,36,3,

24,29,3,77,36,4,

23,28,3,77,36,3,

23,28,3,77,36,3,

23,28,4,77,35,3,

23,28,4,77,35,3,

23,28,3,76,35,3,

23,28,4,76,35,3,

23,28,3,76,35,3,

24,28,4,75,35,3,

23,27,3,75,35,3,

24,27,3,75,34,3,

23,27,3,74,34,3,

23,27,4,74,34,3,

23,27,3,73,34,3,

23,27,3,73,34,3,

22,27,3,73,34,3,

23,27,3,73,34,3,

22,27,3,73,34,3,

22,27,3,71,33,3,

22,27,3,71,33,3,

22,26,4,71,33,3,

22,26,3,71,33,3,

22,26,3,71,33,3,

21,26,4,71,32,3,

21,26,3,71,32,3,

21,25,3,70,33,3,

21,25,3,70,32,3,

21,25,3,70,32,3,

21,25,4,69,31,3,

21,25,3,69,31,3,

21,25,3,69,31,4,

21,25,3,68,31,4,

21,25,3,68,31,3,

20,25,3,67,31,3,

21,25,3,67,31,3,

20,24,3,67,31,4,

20,25,3,67,31,3,

20,25,3,67,31,3,

20,24,3,67,31,3,

20,24,3,66,31,3,

20,24,3,66,52,3,

20,24,3,67,53,3,

20,24,3,71,53,3,

19,24,3,71,53,3,

19,24,3,70,52,3,

19,24,3,70,53,3,

19,24,4,70,52,3,

19,24,3,69,51,3,

19,23,3,69,51,3,

19,23,3,68,51,3,

19,23,3,68,51,3,

19,23,4,68,51,3,

19,23,3,67,50,3,

19,23,3,67,50,3,

19,23,3,67,50,3,

19,22,3,67,50,3,

19,22,4,66,50,3,

19,22,3,66,49,3,

19,22,3,66,49,3,

19,22,3,66,49,4,

19,22,3,66,49,3,

19,22,3,65,48,3,

18,22,4,65,48,3,

18,22,3,64,48,3,

18,21,3,64,48,3,

18,21,4,64,48,4,

18,21,3,64,48,3,

18,21,3,63,48,3,

18,21,3,63,47,3,

18,21,3,63,46,3,

18,21,3,63,47,3,

18,21,3,63,46,4,

17,21,3,62,46,3,

17,20,3,62,46,3,

18,20,3,62,46,3,

17,21,3,62,46,3,

17,20,3,61,45,3,

17,20,3,61,45,4,

17,20,3,61,45,3,

17,19,3,61,45,3,

17,19,3,60,44,3,

17,19,3,60,45,3,

17,19,3,62,44,4,

17,20,3,65,44,4,

17,19,4,65,44,3,

17,19,3,64,44,3,

16,19,3,64,43,3,

17,19,3,64,43,3,

16,19,3,63,43,3,

17,19,3,63,43,3,

16,19,3,63,43,3,

17,19,3,63,42,3,

16,19,3,63,42,3,

16,19,3,62,42,3,

16,18,3,62,41,3,

16,19,3,62,41,3,

15,19,3,61,41,3,

15,18,3,61,41,3,

15,19,3,61,41,3,

15,18,3,61,41,3,

15,18,3,61,40,3,

15,18,4,60,40,3,

15,18,3,60,39,3,

15,18,3,60,39,3,

15,18,3,60,39,4,

15,18,3,63,39,4,

15,18,3,63,39,3,

15,18,3,62,39,3,

15,17,3,62,39,3,

15,18,3,62,39,3,

15,17,3,62,39,3,

15,17,3,62,39,3,

15,17,3,61,39,3,

15,17,3,61,38,3,

15,17,3,61,38,3,

15,17,3,60,38,4,

15,17,3,60,38,3,

15,17,3,60,38,3,

15,17,3,60,38,3,

15,16,3,59,37,3,

14,17,3,59,37,3,

14,17,3,59,37,3,

15,16,3,59,37,3,

14,16,3,58,37,3,

14,16,3,58,37,4,

14,16,3,58,36,3,

14,16,3,57,36,4,

14,16,3,57,36,3,

14,15,3,57,35,3,

14,16,3,57,35,3,

14,15,3,57,35,4,

14,16,3,56,35,3,

14,15,3,56,35,4,

14,15,3,91,35,4,

14,15,3,103,35,3,

14,15,3,103,43,3,

14,15,3,102,48,3,

13,15,3,102,48,3,

24,15,3,101,47,3,

24,15,4,100,47,3,

24,15,3,99,47,3,

24,15,3,99,46,3,

24,15,3,99,46,3,

23,15,3,99,46,4,

23,15,3,98,46,4,

23,14,3,98,46,3,

23,14,3,97,46,4,

23,15,3,97,46,3,

22,15,3,96,46,4,

23,15,3,96,45,3,

22,15,3,96,45,3,

22,15,3,96,45,3,

22,15,3,95,45,3,

22,15,4,94,44,3,

22,14,3,94,44,3,

22,15,3,94,44,3,

22,15,3,93,44,3,

22,15,3,93,43,3,

21,15,3,93,43,3,

21,14,3,92,44,3,

21,14,3,92,43,3,

21,15,3,91,43,3,

21,14,3,91,42,3,

21,14,3,90,42,3,

21,14,3,90,42,3,

21,14,3,89,42,3,

21,14,3,89,41,3,

21,14,4,89,41,3,

20,14,3,89,41,3,

21,14,3,88,41,3,

20,14,3,88,41,3,

20,14,3,88,41,4,

20,14,3,88,41,3,

20,14,3,87,39,3,

19,14,3,86,39,3,

20,13,3,86,39,3,

19,13,3,86,39,3,

20,13,3,85,39,3,

19,13,3,85,39,3,

19,13,3,105,39,3,

19,13,3,105,39,3,

19,13,3,105,39,3,

19,13,3,105,39,3,

19,13,4,103,39,4,

19,13,3,103,38,3,

19,14,3,103,38,3,

19,14,3,103,38,3,

19,14,3,102,38,3,

19,13,3,102,38,3,

19,13,3,102,38,3,

20,13,3,101,37,3,

20,13,4,100,37,3,

20,13,3,100,37,3,

20,13,3,99,37,3,

20,13,3,99,36,3,

20,13,3,99,36,3,

20,13,3,98,36,3,

20,13,3,98,36,3,

19,23,3,97,36,4,

19,23,3,97,35,3,

19,23,3,97,35,4,

19,23,3,96,35,3,

19,23,3,96,35,3,

19,23,3,96,35,3,

19,23,4,96,35,3,

19,23,3,95,35,3,

19,23,3,94,35,3,

19,22,3,94,35,3,

18,22,3,94,34,3,

19,22,3,93,34,3,

19,22,3,93,34,3,

18,22,3,92,33,3,

18,23,4,92,34,3,

18,22,4,92,34,3,

18,22,3,91,33,3,

18,22,3,91,33,3,

18,22,3,91,33,3,

18,22,3,90,33,3,

18,21,3,90,33,3,

18,22,4,89,32,3,

17,21,3,89,32,3,

17,21,3,89,32,3,

18,21,3,88,33,3,

17,21,4,88,32,3,

17,21,3,88,70,3,

17,21,4,88,69,3,

17,20,3,87,68,3,

17,21,3,87,68,3,

17,20,3,86,67,3,

19,20,4,86,67,3,

19,20,3,86,67,3,

18,20,3,85,67,3,

18,20,3,84,66,3,

18,19,3,84,66,3,

18,20,3,84,66,3,

18,20,3,83,65,3,

18,19,3,83,65,3,

18,19,3,83,65,3,

18,19,3,83,65,4,

18,19,3,82,64,3,

18,19,4,82,63,3,

17,19,3,82,63,3,

18,19,3,81,63,4,

18,19,4,81,63,3,

17,19,3,81,63,4,

17,19,3,80,62,3,

17,19,3,80,62,3,

17,20,3,79,62,3,

17,22,4,79,61,3,

17,22,3,79,61,3,

17,22,3,79,61,3,

16,22,3,79,61,3,

17,22,3,78,61,3,

17,22,3,78,60,3,

16,22,3,77,60,3,

17,21,3,77,60,3,

16,22,3,77,60,3,

17,21,3,77,59,3,

17,21,3,76,59,3,

16,21,3,76,59,3,

16,21,4,76,58,3,

16,21,3,87,58,4,

16,21,4,148,58,3,

16,23,3,146,57,3,

16,29,3,145,57,3,

16,30,3,144,57,3,

16,29,3,143,57,3,

15,29,3,143,57,3,

16,29,3,142,56,4,

15,28,3,142,56,3,

16,29,3,141,56,3,

16,28,3,140,56,3,

15,28,3,140,55,3,

15,28,3,139,56,3,

15,31,4,138,55,3,

15,31,3,138,55,3,

15,32,4,137,55,3,

15,31,3,135,54,3,

15,32,3,135,54,3,

18,45,3,135,54,3,

39,45,4,135,53,3,

41,45,3,134,53,3,

41,45,3,133,53,3,

39,45,3,132,53,3,

39,44,3,132,52,3,

39,44,3,132,52,3,

39,44,3,131,51,3,

39,44,3,131,51,3,

39,44,3,130,51,3,

39,43,4,130,51,3,

39,49,3,129,51,3,

41,49,3,128,51,4,

41,49,3,127,50,3,

39,49,3,127,50,4,

39,48,3,127,50,3,

39,48,3,126,49,3,

39,48,3,126,50,3,

39,48,3,125,49,3,

39,48,3,125,49,3,

39,48,3,124,50,3,

39,47,3,123,50,3,

39,47,4,123,50,3,

39,47,4,123,50,3,

38,46,4,121,50,3,

39,46,4,121,49,3,

38,46,3,121,49,3,

38,46,3,120,49,4,

38,46,4,120,49,3,

38,69,4,120,49,4,

37,69,3,119,48,4,

37,68,4,118,67,4,

37,67,3,118,97,4,

37,102,4,118,96,4,

37,113,3,117,95,3,

36,112,3,116,94,3,

36,112,3,115,94,3,

36,111,3,115,93,3,

35,110,3,115,93,3,

35,110,3,114,93,4,

35,109,3,113,92,3,

35,109,3,113,92,3,

35,108,4,113,91,3,

35,108,3,112,91,3,

35,107,4,112,90,3,

34,106,3,112,90,4,

34,105,4,111,89,3,

34,105,3,110,89,3,

34,105,3,110,88,4,

35,103,3,110,88,3,

35,103,3,109,88,3,

35,103,3,108,87,3,

35,103,3,108,87,3,

35,102,3,108,86,4,

35,102,4,107,86,4,

34,101,3,107,85,3,

34,101,3,106,85,3,

34,103,3,106,84,3,

34,103,3,105,84,3,

34,103,4,105,84,3,

34,102,3,103,83,4,

34,102,4,103,83,3,

33,102,3,103,82,3,

35,101,4,103,82,4,

41,101,3,103,82,3,

41,101,3,102,81,4,

41,121,4,102,81,4,

53,215,3,102,81,3,

52,211,3,101,80,3,

51,210,3,100,79,4,

51,209,3,100,79,3,

51,207,3,99,79,3,

50,206,3,99,79,4,

50,205,3,99,78,3,

54,205,3,98,78,4,

78,203,3,98,78,4,

100,203,3,97,77,3,

99,202,3,97,77,4,

99,201,3,97,77,3,

98,199,3,96,77,4,

97,199,3,96,76,3,

97,198,4,96,76,3,

96,197,4,95,75,3,

96,196,3,95,75,4,

113,231,3,95,75,3,

141,271,4,94,74,4,

143,268,3,94,74,4,

143,273,4,93,73,3,

142,270,3,93,73,4,

141,269,3,92,73,3,

141,268,3,92,72,3,

140,265,4,92,71,4,

139,263,3,91,71,3,

139,263,4,91,71,4,

140,262,4,90,71,3,

139,259,3,90,71,3,

138,259,3,89,71,3,

137,257,3,89,70,3,

136,255,3,89,70,4,

135,255,3,89,70,3,

135,253,3,88,69,3,

135,265,4,88,69,4,

135,363,4,88,69,3,

134,466,3,88,68,4,

133,461,4,87,68,3,

133,457,4,86,67,4,

132,454,3,86,67,4,

131,451,4,85,67,3,

198,449,4,85,67,4,

300,446,4,85,66,4,

342,515,4,85,66,4,

338,530,3,84,66,3,

335,525,4,84,65,3,

334,521,3,83,97,4,

332,518,4,83,99,3,

329,514,4,83,99,4,

415,511,4,82,98,4,

430,507,4,82,97,4,

427,504,4,81,97,4,

423,499,4,81,97,4,

421,497,4,81,96,3,

418,494,4,81,96,4,

415,491,4,80,95,3,

413,487,4,79,94,4,

411,484,4,79,94,4,

408,481,4,79,94,4,

405,479,4,79,93,4,

403,476,4,79,93,4,

401,473,4,78,93,4,

399,470,4,78,92,4,

397,467,5,78,92,4,

394,465,4,78,91,4,

391,462,4,77,91,4,

390,460,4,77,90,4,

387,455,4,77,89,4,

385,454,5,76,89,4,

384,451,4,79,89,4,

381,449,4,79,88,5,

379,447,5,78,88,5,

377,446,5,79,88,5,

375,487,5,78,88,5,

373,483,5,77,87,5,

371,480,5,77,87,4,

369,476,5,77,86,4,

367,473,5,76,86,5,

365,471,5,76,85,5,

363,467,5,76,84,5,

361,465,5,75,85,5,

359,462,5,75,83,5,

357,459,5,75,83,5,

355,457,6,74,83,5,

440,454,5,74,82,5,

435,451,5,74,82,5,

433,448,5,74,82,5,

430,446,5,74,82,5,

428,444,5,74,82,5,

425,441,5,73,81,5,

423,439,6,73,81,5,

420,436,5,73,80,5,

418,434,6,71,80,6,

415,431,6,71,79,6,

412,429,6,71,79,6,

410,427,6,71,79,6,

408,423,6,71,79,6,

406,422,7,71,78,6,

403,419,7,71,78,7,

401,417,7,71,78,7,

399,415,7,70,77,7,

396,413,7,70,77,7,

394,411,7,70,77,7,

391,408,7,69,76,7,

390,407,7,69,76,7,

387,404,7,69,75,7,

385,402,7,68,75,7,

383,399,7,68,75,7,

381,398,8,68,74,7,

379,396,9,67,74,7,

377,393,7,67,74,7,

376,391,9,67,73,7,

373,390,8,67,73,8,

371,387,9,67,73,9,

369,386,9,66,71,8,

367,384,9,66,71,9,

365,382,9,66,71,9,

363,380,9,66,71,9,

361,378,9,65,71,9,

359,376,9,65,71,9,

357,374,9,64,70,9,

355,372,9,64,70,9,

354,370,9,64,70,9,

352,369,9,63,69,9,

350,366,9,63,69,9,

348,364,9,63,69,9,

347,363,9,63,68,9,

345,361,9,63,82,9,

344,359,9,62,82,9,

342,358,9,62,81,9,

339,355,9,62,81,9,

338,355,9,62,80,9,

336,352,9,61,79,9,

335,351,9,61,79,9,

333,349,9,61,79,9,

332,348,9,61,79,9,

329,345,9,60,78,9,

327,344,9,60,78,9,

327,343,9,60,78,9,

325,341,9,60,77,9,

323,339,9,59,77,9,

322,337,10,59,76,9,

319,335,9,59,76,9,

319,334,9,59,76,9,

317,332,9,59,75,9,

316,331,9,58,75,9,

314,329,9,57,75,9,

313,327,9,58,74,9,

312,326,9,57,74,9,

310,325,9,57,73,9,

308,323,9,57,73,9,

307,321,9,57,73,9,

305,319,9,56,73,9,

304,319,9,56,71,9,

303,317,9,56,71,9,

301,316,9,56,71,8,

300,314,9,56,71,9,

299,313,9,56,71,9,

297,312,9,56,71,9,

295,310,9,55,70,9,

295,308,9,54,70,9,

293,307,9,54,70,9,

291,305,9,54,69,9,

290,304,9,54,69,9,

289,303,9,54,68,9,

287,302,9,53,68,8,

286,300,8,53,68,8,

285,299,9,53,67,8,

284,297,8,53,67,9,

283,295,7,53,67,8,

281,295,9,53,67,9,

280,294,7,52,66,9,

279,292,8,52,66,8,

277,291,7,52,66,7,

276,289,7,51,65,7,

275,287,8,51,65,7,

274,287,8,51,65,7,

272,286,9,51,65,7,

271,285,7,51,64,7,

270,283,7,51,63,7,

269,282,7,50,63,8,

268,281,7,50,63,7,

266,280,7,50,63,7,

265,279,7,50,63,7,

263,277,7,49,62,7,

263,275,7,49,62,7,

262,274,7,49,62,7,

261,273,7,49,62,7,

259,272,7,49,61,7,

258,271,7,48,61,7,

257,270,7,48,61,7,

255,268,7,48,60,7,

255,268,7,48,60,7,

254,267,7,47,60,7,

252,265,7,47,60,7,

252,263,7,47,60,7,

251,263,7,47,59,7,

249,262,7,47,59,7,

248,260,7,46,59,7,

248,259,7,46,58,7,

246,259,7,46,58,7,

245,257,7,46,58,7,

243,255,7,46,57,7,

243,255,7,46,57,7,

242,254,7,45,57,7,

241,253,7,45,57,7,

240,252,7,45,56,7,

239,251,7,44,56,7,

238,249,7,44,56,7,

237,248,7,44,56,7,

236,248,7,44,56,7,

235,247,7,44,56,7,

233,245,7,44,55,7,

233,244,7,44,55,7,

231,243,7,43,54,7,

231,242,7,43,54,7,

230,241,7,43,54,7,

229,240,7,43,54,7,

228,239,7,43,53,7,

227,238,7,42,53,7,

226,237,6,43,53,7,

225,236,7,42,53,7,

224,235,7,42,53,7,

224,234,7,42,52,6,

222,233,6,41,51,7,

221,231,7,41,51,6,

220,231,6,41,51,6,

219,230,7,41,51,7,

219,229,6,41,51,7,

217,228,7,40,51,6,

217,227,6,39,51,6,

216,227,6,39,50,6,

215,225,6,39,50,6,

214,225,7,39,50,6,

213,224,6,39,50,6,

212,223,6,39,49,6,

211,222,6,39,49,6,

211,221,6,39,49,6,

209,220,6,39,49,6,

209,219,6,39,49,6,

207,218,6,39,49,6,

207,217,6,39,48,6,

206,217,6,39,48,6,

205,216,6,39,48,6,

204,215,6,38,48,6,

204,214,6,38,47,6,

203,213,6,38,47,6,

202,212,6,43,47,6,

201,211,6,43,48,6,

199,210,6,42,47,6,

199,210,6,42,47,6,

199,209,6,41,47,6,

198,207,6,41,47,6,

197,207,6,41,46,6,

196,206,6,41,46,6,

195,206,5,41,46,6,

195,205,5,41,46,6,

194,204,6,41,46,6,

193,203,6,39,45,6,

192,202,6,39,45,6,

192,201,6,39,45,6,

191,199,6,39,44,6,

190,199,6,39,45,6,

190,199,6,39,44,6,

189,198,6,39,44,6,

188,197,6,39,44,5,

187,197,5,39,44,5,

187,195,5,39,44,5,

185,195,6,38,43,5,

185,194,5,38,43,6,

184,193,6,38,43,6,

184,192,5,38,43,6,

183,192,6,38,43,6,

182,192,6,38,42,5,

182,191,5,41,42,6,

181,190,5,42,42,5,

179,189,6,42,42,5,

179,188,5,42,41,5,

178,187,5,41,41,5,

178,187,5,41,41,5,

177,186,5,41,41,5,

176,185,5,41,41,6,

176,184,5,41,40,5,

175,184,5,39,39,5,

174,183,5,39,39,5,

174,182,5,39,39,5,

173,182,5,39,39,5,

172,181,5,49,39,5,

172,180,5,60,39,5,

171,179,5,65,39,5,

170,179,5,65,39,5,

169,178,5,65,39,5,

169,177,5,64,39,6,

167,177,5,63,38,5,

167,176,5,63,38,5,

167,176,5,63,38,5,

166,175,5,63,38,5,

166,174,5,63,38,5,

165,173,5,62,38,5,

164,172,5,62,38,5,

163,172,5,61,37,5,

163,171,5,61,37,5,

162,171,5,61,37,5,

161,170,5,61,37,5,

161,169,5,60,37,5,

161,169,5,60,36,5,

159,167,5,60,36,5,

159,167,5,59,37,5,

159,167,5,59,36,5,

158,165,5,59,36,5,

157,165,5,59,35,5,

157,164,5,59,35,5,

156,164,5,58,35,5,

156,163,5,58,35,5,

155,163,5,58,35,5,

154,162,5,57,35,5,

153,161,5,57,35,5,

153,161,5,57,35,5,

152,159,5,57,34,5,

152,159,5,56,34,5,

152,159,5,56,34,5,

151,159,5,128,34,5,

150,158,4,127,34,5,

149,157,5,126,33,5,

148,156,5,125,33,5,

148,156,5,125,33,5,

147,155,5,123,32,4,

147,153,4,122,33,4,

146,153,4,122,32,4,

145,153,4,121,33,5,

145,152,4,121,32,5,

144,152,4,120,31,4,

143,151,4,120,31,4,

143,150,4,119,31,4,

142,150,4,118,31,4,

142,149,4,118,31,4,

141,148,5,117,31,4,

141,147,5,116,31,4,

140,147,4,115,31,4,

140,147,4,115,31,4,

139,146,4,115,30,4,

139,145,4,115,30,4,

138,145,4,114,30,4,

137,143,4,113,30,4,

137,143,4,112,30,4,

135,143,4,112,30,4,

135,143,4,112,30,4,

135,142,4,111,29,4,

135,141,4,110,30,4,

134,141,4,110,29,4,

134,140,4,109,29,4,

133,140,4,109,29,4,

132,139,4,108,29,4,

132,139,4,108,28,4,

131,138,4,107,29,4,

131,137,4,107,28,4,

130,137,4,106,28,4,

130,135,4,105,28,4,

129,135,4,105,28,4,

129,135,4,105,28,4,

128,135,4,103,28,4,

127,134,4,103,27,4,

127,134,4,103,28,4,

127,133,4,103,27,4,

126,132,4,102,27,4,

125,131,4,102,27,4,

125,131,4,101,32,4,

125,131,4,101,32,4,

124,130,4,100,31,4,

124,130,4,99,31,4,

123,129,4,99,31,4,

123,129,4,99,31,3,

122,128,4,99,31,4,

122,127,4,98,31,4,

121,127,4,98,30,4,

121,127,4,97,30,4,

121,126,4,97,30,4,

120,151,4,96,30,4,

120,149,4,96,30,4,

119,149,4,96,30,4,

119,148,4,96,30,4,

118,147,4,95,30,3,

118,146,4,94,30,4,

117,145,4,94,29,4,

117,145,3,94,29,4,

116,143,4,93,29,4,

115,143,4,93,29,4,

115,143,4,92,28,4,

115,142,4,92,29,4,

115,141,4,92,28,4,

114,141,4,91,28,4,

114,140,4,91,28,4,

113,140,4,90,28,4,

113,139,4,90,27,3,

113,138,4,89,28,4,

112,137,4,89,27,4,

112,137,4,89,27,4,

111,135,3,88,27,4,

111,135,4,88,27,4,

110,135,3,88,27,4,

110,134,4,88,27,4,

109,134,4,87,27,4,

109,133,4,87,27,4,

109,132,4,86,26,4,

108,131,3,86,26,4,

108,131,4,85,26,4,

108,130,4,85,26,4,

107,130,4,85,26,4,

107,129,4,84,26,4,

106,129,3,84,27,4,

105,128,4,83,27,4,

105,127,4,83,27,4,

105,127,3,83,27,4,

103,127,4,82,27,4,

103,126,4,82,27,4,

103,125,4,82,27,3,

103,125,3,81,26,4,

103,124,3,81,26,4,

103,124,4,80,26,4,

102,123,3,80,26,4,

102,123,3,79,26,4,

102,122,3,79,25,4,

101,122,4,79,25,4,

101,121,4,79,25,4,

100,121,4,78,25,4,

100,121,4,78,25,4,

99,120,3,78,25,4,

99,120,4,78,25,4,

99,119,4,77,25,4,

98,119,4,77,25,4,

98,118,3,77,24,4,

98,118,3,76,24,4,

97,118,3,76,24,3,

97,117,3,76,24,4,

97,116,4,76,24,3,

96,116,3,75,24,3,

96,115,3,75,24,4,

96,115,3,75,24,4,

95,115,4,74,24,4,

95,114,3,74,24,3,

95,114,3,74,24,3,

94,114,3,73,24,3,

94,113,4,73,24,3,

94,113,4,73,24,3,

93,113,4,71,23,4,

93,112,3,71,24,4,

93,112,3,71,24,3,

92,112,4,126,69,4,

92,111,4,154,71,3,

92,110,3,153,71,4,

92,110,4,152,70,3,

91,109,4,151,70,4,

91,109,4,150,69,4,

90,109,4,149,69,3,

90,108,3,148,69,4,

89,108,4,147,68,3,

89,108,3,147,67,3,

89,107,4,146,67,4,

88,107,4,145,67,3,

88,106,3,144,67,4,

88,106,3,143,67,3,

88,105,4,143,66,4,

87,105,4,143,66,3,

87,105,4,142,66,4,

86,103,4,141,65,4,

86,103,3,141,65,3,

86,103,3,140,64,4,

86,103,4,139,64,3,

85,103,4,138,63,3,

85,102,3,137,63,3,

85,102,4,137,63,3,

84,101,4,137,63,4,

84,101,3,135,63,3,

83,101,4,135,62,3,

83,100,3,135,62,3,

83,99,4,134,62,4,

82,99,4,134,61,3,

82,99,3,133,61,3,

82,99,4,132,61,3,

82,98,3,132,61,4,

81,98,4,131,60,4,

81,98,3,131,60,3,

80,98,3,130,60,4,

80,97,3,130,60,3,

80,97,4,129,59,3,

79,96,4,129,59,4,

79,96,4,127,59,4,

79,96,4,127,58,3,

79,96,3,127,58,3,

79,95,3,127,58,3,

78,94,3,126,57,3,

78,94,3,125,57,4,

78,94,3,125,57,3,

77,94,3,125,57,3,

77,93,3,124,57,3,

77,93,4,123,56,3,

77,92,4,123,56,4,

76,92,3,122,56,3,

76,92,4,121,56,3,

76,92,3,121,55,3,

76,91,3,121,55,3,

76,91,4,120,54,4,

75,91,3,120,54,3,

75,90,4,120,55,4,

75,90,3,119,54,4,

74,89,4,119,54,3,

74,89,3,118,54,4,

73,89,4,117,53,3,

73,89,4,117,53,3,

73,88,3,117,53,3,

73,88,4,115,52,3,

73,88,3,115,52,3,

71,88,3,115,52,3,

71,87,3,115,51,3,

71,87,4,114,51,3,

71,86,3,113,51,3,

71,86,4,113,51,3,

71,86,4,113,51,3,

71,86,3,112,51,3,

71,85,4,125,51,4,

71,85,4,171,51,3,

70,85,4,169,51,4,

70,84,3,167,50,4,

70,84,4,167,50,4,

69,83,3,166,50,3,

69,83,3,165,50,4,

69,83,3,164,50,3,

68,83,3,163,49,3,

68,82,4,163,49,4,

68,82,3,162,49,3,

67,82,3,161,63,4,

67,82,3,160,96,3,

67,81,3,159,96,3,

67,81,3,159,95,3,

67,80,3,158,94,3,

67,80,3,158,94,4,

67,79,3,157,93,3,

66,79,3,156,93,3,

66,79,4,155,93,4,

66,79,4,154,92,3,

65,79,3,153,92,4,

65,78,3,153,91,3,

65,78,3,152,91,3,

65,78,4,152,90,3,

64,78,4,152,90,4,

64,77,3,151,89,3,

63,77,3,150,89,3,

63,77,3,149,89,4,

63,77,3,149,88,3,

63,76,3,148,88,3,

63,76,3,147,88,3,

63,76,3,147,88,4,

63,76,4,146,87,3,

63,75,3,146,86,3,

62,75,3,145,86,3,

62,75,3,144,85,3,

62,74,4,143,85,4,

61,74,3,143,84,3,

61,74,3,143,84,3,

61,73,3,142,84,3,

61,73,3,141,83,3,

60,73,4,141,83,3,

60,73,4,140,82,3,

60,72,3,139,82,3,

60,71,3,139,82,3,

60,71,3,139,81,3,

59,71,3,137,81,4,

59,71,4,137,81,3,

59,71,4,137,81,3,

59,71,3,135,80,3,

59,71,3,135,79,3,

59,70,3,135,79,4,

58,70,4,135,79,4,

58,70,3,134,78,3,

57,69,3,133,78,3,

57,69,3,132,78,3,

57,69,3,132,78,3,

57,68,3,131,77,4,

57,69,3,131,77,3,

57,68,4,131,77,3,

56,68,3,130,76,4,

56,68,4,130,76,3,

56,67,3,129,76,3,

56,67,3,128,75,3,

56,67,3,127,75,3,

56,67,4,127,74,3,

55,66,3,127,74,3,

55,67,3,126,74,3,

55,66,4,126,73,4,

55,66,3,125,73,3,

54,66,3,125,73,3,

54,65,4,124,71,3,

54,65,3,124,71,3,

54,65,3,123,71,3,

53,65,4,123,71,3,

53,64,3,122,71,3,

53,64,3,121,71,4,

53,63,3,121,71,3,

53,63,3,121,70,3,

53,63,3,120,70,3,

52,63,3,120,69,4,

52,63,3,120,69,3,

52,63,3,119,69,3,

51,63,4,118,69,3,

51,62,3,118,68,3,

51,62,4,117,68,3,

51,62,4,117,68,3,

51,62,3,116,67,4,

51,61,3,115,67,3,

51,61,4,115,67,4,

50,61,3,115,67,3,

51,61,3,115,66,4,

50,61,3,114,66,3,

49,60,3,113,66,3,

50,60,3,113,66,3,

49,60,4,113,65,3,

49,60,3,112,65,4,

49,60,4,112,65,3,

49,59,3,111,65,4,

49,59,4,111,64,3,

49,59,3,110,63,3,

49,59,4,110,63,3,

48,58,3,109,63,3,

48,58,4,109,63,3,

48,58,3,109,63,3,

48,57,3,108,62,3,

47,57,3,108,62,3,

48,57,3,108,62,3,

47,57,3,107,62,3,

47,57,3,107,61,3,

47,56,4,107,61,4,

46,57,3,105,61,3,

46,56,4,105,61,3,

47,56,4,105,60,3,

46,56,3,103,60,3,

46,56,4,103,60,3,

46,56,3,103,60,3,

46,56,4,103,59,4,

46,55,3,103,59,3,

45,55,3,103,59,3,

45,55,3,102,58,4,

45,54,3,102,58,3,

45,54,3,101,58,4,

45,54,3,101,57,3,

44,54,3,100,57,3,

44,54,3,100,57,3,

44,53,4,99,57,4,

44,53,3,99,57,3,

44,53,3,99,57,3,

44,53,3,98,56,4,

44,52,3,98,56,4,

43,52,4,98,56,3,

43,52,3,97,56,3,

43,51,3,97,56,3,

43,52,4,96,56,3,

43,51,3,96,55,3,

43,51,3,96,55,3,

42,51,3,96,55,3,

42,51,3,95,54,3,

42,51,3,95,54,3,

42,51,3,95,54,3,

42,50,3,94,54,3,

41,51,3,94,53,3,

41,50,3,94,53,3,

41,50,3,93,53,3,

41,50,3,93,52,3,

41,50,4,92,52,3,

41,49,3,92,52,3,

41,49,3,92,52,3,

41,49,3,91,51,4,

39,49,3,91,51,3,

39,49,3,91,51,4,

39,49,3,90,51,3,

39,49,3,90,51,3,

39,48,3,89,51,3,

39,48,3,89,50,3,

39,48,3,89,50,4,

39,48,3,89,50,3,

39,48,4,88,50,3,

39,48,3,88,50,3,

39,47,3,88,49,4,

39,47,3,88,49,3,

39,47,3,87,49,3,

39,47,3,87,49,3,

39,47,3,86,48,3,

38,46,3,86,48,3,

38,46,3,86,48,3,

38,46,3,85,48,3,

38,46,3,85,48,3,

38,46,3,85,47,3,

37,46,4,85,47,3,

37,45,3,84,47,3,

37,45,3,84,47,3,

37,45,3,83,47,3,

37,45,4,83,47,3,

37,45,4,83,46,4,

37,45,4,83,46,4,

37,128,3,82,46,3,

36,127,3,82,46,3,

36,126,4,81,46,3,

36,125,3,81,45,4,

36,125,3,81,45,3,

35,124,3,81,45,4,

36,123,3,80,45,3,

35,123,3,79,45,3,

35,122,3,79,44,3,

35,121,3,79,44,3,

35,121,3,79,44,3,

35,120,3,79,44,3,

35,120,4,79,44,3,

35,119,3,78,44,4,

35,119,3,78,43,3,

35,118,3,78,43,4,

34,117,4,77,43,4,

34,117,3,77,43,3,

34,116,3,77,43,3,

34,115,3,76,42,4,

34,115,3,76,43,3,

34,114,3,76,42,3,

33,114,3,75,42,3,

33,114,3,75,41,3,

33,113,3,75,41,3,

33,112,3,75,41,3,

33,112,3,74,41,3,

33,112,3,74,41,3,

33,111,3,73,41,3,

33,110,4,73,41,3,

32,110,3,73,39,3,

32,110,3,73,39,3,

32,109,3,73,39,4,

31,109,3,71,39,3,

31,108,3,71,39,3,

31,107,3,71,39,4,

31,107,3,71,39,3,

31,107,3,71,39,3,

31,106,3,71,39,4,

31,106,3,71,39,3,

31,105,3,70,39,3,

31,105,3,70,39,3,

31,103,3,70,38,3,

31,103,3,70,38,3,

31,103,3,70,38,3,

30,103,3,69,38,3,

30,103,3,68,37,3,

31,102,3,68,37,3,

30,102,4,68,37,3,

30,101,3,68,37,4,

30,101,3,67,37,3,

30,100,3,67,36,4,

30,99,4,67,37,3,

31,99,4,67,36,4,

31,99,3,67,36,3,

30,98,3,66,36,3,

30,98,3,66,36,3,

30,97,3,66,36,3,

30,97,3,66,35,3,

30,97,3,65,35,4,

30,97,3,65,35,3,

30,96,3,65,35,3,

30,96,3,65,35,3,

29,96,3,65,35,3,

30,95,3,64,35,3,

29,94,3,64,35,3,

29,94,3,75,34,3,

29,94,3,75,35,3,

29,93,4,74,34,3,

29,93,3,74,34,3,

29,92,4,73,34,3,

28,92,3,73,33,3,

29,92,3,73,33,3,

28,91,3,73,33,3,

28,91,3,71,33,3,

28,91,3,71,33,4,

28,90,3,71,33,3,

28,90,3,71,33,3,

29,90,4,71,33,3,

28,89,3,71,32,3,

28,89,3,70,32,3,

28,89,4,70,32,3,

28,88,3,70,32,3,

28,88,4,70,31,3,

28,88,4,69,31,3,

28,87,3,69,31,3,

28,87,3,69,31,3,

27,86,3,68,31,3,

27,86,3,68,31,3,

27,86,3,67,31,3,

27,85,3,67,31,3,

27,85,3,67,31,3,

27,85,3,67,31,3,

27,84,3,67,31,4,

27,84,3,66,30,3,

27,83,3,66,31,3,

26,83,3,66,30,3,

27,83,3,65,30,3,

26,82,3,65,30,3,

26,82,3,65,30,4,

26,82,3,66,30,4,

26,81,3,115,30,3,

25,81,3,114,30,3,

26,81,3,114,29,3,

25,80,3,113,29,3,

25,80,3,113,29,3,

25,79,3,112,29,3,

25,79,3,112,29,3,

25,79,3,111,28,3,

25,79,3,111,29,3,

25,79,3,110,28,3,

25,78,3,109,28,3,

25,78,3,109,28,3,

25,78,4,108,28,3,

25,77,3,108,28,3,

25,77,3,107,28,3,

24,76,3,107,28,3,

24,76,3,106,27,3,

24,76,3,106,27,3,

24,76,3,105,28,3,

24,75,3,105,27,4,

24,75,3,103,28,3,

24,75,3,103,27,3,

24,74,3,103,27,3,

24,74,3,103,27,3,

24,74,3,103,27,3,

24,73,3,102,27,3,

24,73,3,102,26,3,

24,73,4,102,27,3,

24,71,3,101,26,3,

23,71,3,100,26,3,

23,71,3,100,26,3,

23,71,3,99,26,3,

23,71,3,99,25,3,

23,71,3,99,25,4,

23,71,3,98,25,4,

22,70,3,98,25,3,

23,70,3,98,25,3,

22,70,3,97,25,3,

22,74,4,97,25,3,

22,73,3,96,25,3,

22,73,4,96,25,3,

22,73,3,96,25,3,

22,73,3,95,25,3,

31,71,3,95,25,3,

31,71,3,94,25,3,

31,71,3,94,24,3,

30,71,3,94,24,3,

30,71,3,93,24,3,

30,71,3,93,24,3,

30,70,3,93,24,3,

30,69,3,92,24,3,

29,70,3,92,24,3,

30,69,3,91,24,3,

29,69,3,91,24,3,

29,69,3,91,24,3,

29,69,3,90,24,3,

29,68,3,90,24,3,

29,68,3,89,24,3,

28,67,3,89,24,3,

28,67,3,89,24,3,

28,67,4,88,23,3,

28,67,3,88,23,3,

28,67,4,88,23,3,

28,66,3,88,23,4,

28,66,3,89,24,3,

28,66,3,89,24,3,

27,65,3,88,24,3,

28,65,4,88,23,3,

28,65,3,88,23,3,

27,65,4,88,23,3,

27,64,3,87,23,3,

27,63,4,87,23,3,

27,63,4,87,22,3,

27,63,3,86,22,3,

27,63,3,86,22,3,

38,98,4,86,23,4,

90,188,4,86,29,3,

89,231,3,93,29,3,

89,228,3,110,29,4,

88,227,3,112,31,3,

88,225,3,111,30,3,

88,224,3,111,30,4,

87,223,3,110,30,3,

86,221,3,110,30,3,

86,220,3,109,30,4,

85,219,4,109,29,3,

85,218,3,109,29,3,

84,217,4,108,30,4,

83,216,3,107,29,3,

83,215,3,107,29,4,

83,213,4,106,29,3,

83,212,3,105,29,3,

83,211,3,105,29,3,

82,210,3,105,28,3,

81,209,3,103,28,3,

81,207,3,103,28,3,

81,207,3,103,28,4,

80,206,3,103,28,3,

79,205,3,102,28,3,

79,204,4,102,28,3,

79,203,3,102,28,3,

79,202,3,101,28,4,

78,201,3,100,27,3,

78,199,3,99,27,3,

78,199,3,99,27,3,

78,199,3,99,28,3,

77,197,3,98,27,4,

76,197,3,98,27,3,

76,195,3,98,27,4,

76,195,3,97,26,3,

76,194,3,97,26,3,

75,193,3,96,26,3,

75,192,3,96,26,3,

75,192,3,96,26,3,

75,190,3,95,26,3,

74,190,3,95,25,3,

73,189,3,94,25,3,

73,188,3,94,25,3,

73,187,4,94,25,3,

71,186,3,93,25,3,

71,185,4,92,25,3,

71,185,3,92,25,4,

71,184,3,92,25,3,

71,183,3,92,25,3,

71,182,3,91,24,3,

71,182,3,91,24,4,

70,180,3,90,24,3,

70,180,4,91,25,4,

70,179,3,90,24,3,

70,179,3,89,24,4,

70,178,3,89,24,3,

69,177,3,89,24,4,

69,176,3,88,24,4,

68,176,3,88,24,4,

68,175,3,88,24,4,

67,174,4,87,24,3,

67,173,4,87,35,4,

67,173,4,86,34,4,

67,172,3,86,35,3,

67,171,4,86,34,3,

66,170,3,85,34,4,

66,170,4,85,33,3,

66,167,4,84,34,3,

65,167,4,84,33,3,

65,167,3,84,34,4,

64,167,3,83,33,4,

64,166,3,83,33,3,

64,165,4,83,32,3,

63,165,4,83,33,3,

63,164,3,82,32,4,

63,163,4,82,32,3,

63,163,3,82,31,3,

63,162,4,81,31,3,

63,161,3,81,31,3,

62,160,3,80,31,3,

62,159,3,80,31,4,

62,159,3,79,31,3,

61,158,3,79,31,3,

61,158,3,79,31,3,

61,157,3,78,31,3,

60,156,3,78,31,3,

60,156,3,78,30,3,

60,155,3,78,30,3,

60,154,4,78,30,3,

60,153,3,77,30,3,

59,153,3,77,30,3,

59,153,3,77,30,3,

59,152,3,76,29,3,

59,152,4,76,29,3,

58,151,3,75,29,3,

58,150,4,75,29,3,

57,149,3,75,29,3,

57,149,3,75,29,3,

57,148,3,75,29,3,

57,147,3,74,29,3,

57,147,3,73,28,3,

56,146,3,73,28,3,

56,146,3,73,28,3,

56,145,3,73,28,3,

56,144,3,71,28,3,

56,143,3,71,28,3,

56,143,3,71,28,3,

55,143,3,71,28,3,

55,142,3,71,28,3,

54,141,3,71,27,3,

54,141,3,70,28,4,

54,141,4,96,40,3,

54,140,3,134,39,3,

53,140,4,140,39,3,

53,139,3,139,39,3,

53,138,3,138,39,3,

53,137,3,137,38,3,

52,137,3,137,38,3,

52,135,3,135,38,3,

52,135,4,135,38,4,

51,135,3,135,38,3,

51,135,3,134,38,3,

51,134,3,133,37,3,

51,134,3,133,37,3,

51,133,4,132,37,3,

50,132,3,131,37,4,

50,132,3,131,37,3,

50,131,3,130,37,4,

50,130,3,130,36,3,

49,130,3,129,35,3,

49,129,3,128,35,3,

49,129,4,127,35,3,

49,128,3,127,35,3,

49,127,3,127,35,3,

49,127,3,126,42,3,

48,127,3,125,44,3,

48,126,3,125,44,3,

48,126,3,124,43,4,

48,125,3,124,43,3,

47,125,4,123,43,3,

47,124,3,123,42,3,

47,123,3,122,42,3,

47,123,3,121,42,3,

46,122,3,121,41,3,

46,122,3,120,41,3,

46,121,3,120,41,3,

46,121,4,120,41,3,

46,121,4,119,41,3,

55,120,3,118,41,3,

55,120,3,118,40,3,

55,119,3,117,39,3,

54,118,3,116,39,3,

54,118,4,116,39,3,

54,117,4,115,39,3,

53,117,4,115,39,3,

53,116,3,114,39,3,

53,116,3,114,39,3,

53,115,3,113,39,3,

52,115,4,113,39,3,

51,114,3,112,38,3,

51,114,3,112,38,3,

51,113,4,112,38,3,

51,113,3,111,38,3,

51,112,3,111,38,3,

51,112,4,110,38,3,

50,112,3,110,37,3,

50,111,3,109,37,4,

50,111,3,109,37,3,

50,110,3,108,37,3,

49,110,3,108,37,4,

49,109,3,107,62,3,

49,109,3,107,62,3,

49,109,3,106,61,3,

48,108,3,106,61,3,

48,108,4,105,61,3,

48,107,3,105,60,3,

48,107,3,105,60,3,

48,106,3,103,60,3,

47,106,3,103,60,3,

47,105,3,103,59,3,

47,105,3,103,59,3,

47,103,3,102,58,4,

46,103,3,102,58,3,

46,103,3,101,57,3,

46,103,3,101,57,3,

46,103,3,100,57,3,

45,103,3,100,57,4,

45,102,3,99,56,3,

45,102,3,99,56,3,

45,101,3,99,56,4,

44,101,4,123,56,3,

45,100,3,129,56,3,

44,100,4,128,56,3,

44,99,4,127,55,3,

44,99,3,127,55,3,

44,99,3,126,54,3,

44,98,4,126,54,3,

43,98,3,125,54,3,

43,97,3,124,54,4,

43,97,4,124,54,4,

43,97,3,123,53,3,

43,97,3,123,53,4,

43,96,3,122,53,3,

42,96,3,121,52,3,

42,95,3,121,51,3,

41,95,4,121,52,3,

41,95,3,120,51,3,

41,94,3,120,51,3,

41,94,3,119,51,3,

41,93,4,119,51,4,

41,93,3,118,51,3,

41,93,3,118,50,4,

57,169,4,117,50,3,

57,185,3,116,50,3,

56,184,3,117,50,3,

56,183,4,156,50,4,

56,182,3,155,51,3,

56,181,4,154,51,4,

55,179,3,153,51,3,

55,179,4,152,51,3,

54,178,3,152,50,3,

54,177,3,151,50,3,

54,176,3,150,50,3,

54,175,3,149,50,3,

53,174,3,149,50,3,

53,173,3,147,49,3,

53,172,3,147,49,3,

52,172,3,147,49,3,

52,171,3,146,48,3,

52,170,3,145,48,3,

51,169,3,144,48,3,

51,167,4,143,48,3,

51,167,3,143,48,3,

51,167,3,142,47,3,

51,166,3,142,47,3,

51,165,3,141,47,3,

50,164,3,140,47,3,

50,163,3,140,46,3,

50,163,3,139,46,3,

49,162,3,139,46,3,

49,161,3,137,46,3,

49,159,3,137,46,4,

49,159,3,135,45,3,

48,159,3,135,45,3,

48,158,3,135,45,3,

48,157,3,135,44,4,

48,157,3,134,44,3,

48,156,3,133,44,3,

47,155,3,133,44,3,

47,155,4,132,44,4,

47,154,3,131,43,3,

46,153,3,131,68,3,

46,153,4,130,77,3,

46,152,3,130,76,4,

46,152,4,129,76,3,

46,150,3,129,76,3,

45,149,3,128,75,3,

45,149,3,127,75,3,

45,148,3,127,75,3,

44,147,4,127,74,3,

44,147,3,126,73,3,

44,146,3,125,73,3,

44,145,3,125,71,3,

44,145,3,125,71,3,

44,144,4,124,71,3,

43,143,3,123,71,3,

43,143,3,123,71,4,

43,142,3,122,71,3,

43,141,3,121,71,3,

43,141,3,121,70,3,

42,140,3,120,70,3,

42,140,3,120,69,3,

42,139,3,120,69,3,

41,139,3,119,69,4,

41,138,3,119,68,3,

41,137,3,118,68,3,

41,137,4,118,67,3,

41,135,3,117,67,4,

41,135,4,116,67,4,

41,135,4,116,67,3,

39,135,3,115,66,3,

39,133,3,115,66,3,

39,133,3,114,65,3,

39,132,3,114,65,3,

39,131,3,113,65,3,

39,131,3,113,65,3,

39,131,3,112,64,3,

39,130,3,112,64,3,

39,130,3,112,63,4,

39,129,3,111,63,3,

39,128,4,110,63,3,

38,127,3,110,63,3,

38,127,3,110,62,3,

38,126,3,109,63,3,

38,126,3,109,62,4,

38,126,3,108,62,3,

37,125,3,108,61,3,

37,124,3,107,61,3,

37,124,3,107,61,4,

37,124,3,106,61,3,

37,123,3,105,60,3,

37,122,3,105,60,3,

36,122,3,105,60,3,

36,121,3,105,60,3,

36,121,4,103,59,3,

36,120,3,103,59,3,

35,120,3,103,58,3,

35,120,3,103,58,3,

35,119,3,102,58,4,

35,118,4,102,58,3,

35,117,3,101,57,4,

35,117,3,101,57,3,

34,117,4,101,57,3,

35,116,3,100,57,3,

34,115,3,99,56,3,

34,115,3,99,56,3,

34,115,4,99,56,4,

34,114,3,99,56,3,

34,114,3,98,56,3,

33,113,3,98,56,3,

33,112,4,97,55,3,

33,112,4,97,55,3,

33,112,3,96,55,3,

33,111,3,97,54,3,

33,111,3,96,54,3,

33,110,4,96,53,3,

32,110,3,95,53,3,

32,109,3,95,53,3,

32,109,3,94,53,3,

31,109,3,94,53,3,

31,108,3,94,52,4,

31,108,4,93,52,3,

31,107,3,93,51,3,

31,107,4,92,78,3,

31,106,3,92,78,4,

31,106,4,92,77,3,

31,105,3,91,77,3,

31,105,3,91,76,4,

31,105,3,91,76,3,

30,103,3,90,76,3,

30,103,3,90,75,3,

30,103,3,89,75,3,

30,103,3,89,75,3,

30,103,3,89,74,3,

30,102,3,89,73,4,

30,102,3,88,73,3,

30,101,3,88,73,3,

30,101,3,88,71,3,

29,100,3,88,71,3,

29,100,3,87,71,3,

29,99,3,87,71,3,

29,99,4,86,71,3,

29,99,3,86,71,3,

29,99,3,86,71,3,

29,98,4,85,71,3,

28,98,3,85,70,3,

28,97,4,84,70,3,

28,97,3,84,70,3,

28,96,3,83,69,3,

28,96,3,83,69,3,

28,96,4,83,69,3,

28,96,3,91,68,3,

28,95,4,90,68,3,

28,95,4,89,67,3,

27,94,3,89,67,4,

27,94,3,89,67,3,

27,94,3,89,67,3,

27,93,4,88,67,3,

27,93,3,88,66,3,

27,93,3,88,66,3,

27,92,3,87,66,3,

27,92,3,87,65,3,

26,92,3,86,65,3,

26,91,3,86,65,3,

26,91,3,86,64,3,

26,90,3,85,64,3,

26,90,3,85,63,3,

26,90,3,85,63,3,

26,89,3,84,63,3,

25,89,3,83,63,3,

25,89,3,83,63,4,

25,89,3,83,63,3,

25,88,3,83,62,4,

25,88,3,83,62,3,

25,88,3,82,62,3,

25,87,3,82,61,3,

25,87,3,82,61,3,

24,87,3,81,61,3,

24,86,3,81,61,4,

25,86,3,81,61,4,

25,86,4,81,60,3,

24,85,3,80,60,3,

24,85,3,79,60,3,

24,85,3,79,60,4,

24,84,3,79,59,3,

24,84,4,79,59,3,

24,83,3,78,59,3,

24,83,3,78,59,4,

24,83,3,78,58,4,

24,83,3,78,58,3,

24,83,3,77,58,3,

24,82,3,77,57,3,

24,82,3,77,57,3,

23,81,3,77,57,3,

23,81,3,76,57,3,

23,81,3,76,56,3,

23,81,3,76,56,3,

23,80,3,75,56,3,

23,79,3,75,56,3,

23,80,4,75,56,3,

23,79,3,75,56,3,

22,79,3,74,55,3,

22,79,3,74,55,3,

22,78,3,75,55,3,

22,78,3,122,54,3,

22,78,3,127,54,3,

22,78,3,127,54,3,

22,77,3,126,54,4,

22,77,3,126,53,3,

22,77,3,125,53,3,

21,76,3,125,53,3,

21,76,3,124,53,3,

21,76,3,123,52,3,

21,76,3,123,52,3,

21,75,3,122,52,3,

21,75,3,121,51,3,

21,74,3,121,51,3,

21,74,3,120,51,3,

20,74,3,120,51,3,

21,73,3,120,51,3,

21,73,3,119,50,3,

21,73,3,119,50,3,

20,73,3,118,50,3,

20,72,3,117,50,3,

20,71,3,117,49,3,

20,71,3,116,49,3,

20,71,3,115,49,3,

20,71,3,115,49,3,

19,71,3,115,49,3,

19,71,3,114,48,3,

19,71,4,114,48,3,

19,70,3,113,48,3,

19,70,3,113,48,3,

19,70,4,112,48,3,

19,70,3,112,48,3,

19,69,3,111,47,3,

19,69,3,111,47,3,

19,69,3,110,47,3,

19,68,3,110,47,4,

19,68,3,110,46,3,

19,67,3,109,46,3,

19,68,3,109,46,4,

19,67,3,108,46,3,

19,67,3,108,46,4,

18,67,3,107,45,3,

18,66,3,107,45,3,

18,67,3,106,45,3,

18,66,3,106,45,3,

18,66,3,105,44,3,

18,65,3,105,44,4,

18,65,3,103,44,3,

18,65,3,103,44,3,

18,65,3,103,44,3,

17,65,3,103,44,3,

18,64,3,103,44,3,

17,64,3,102,43,3,

18,63,3,102,43,3,

17,63,3,102,43,3,

17,63,3,101,43,3,

17,63,3,101,42,4,

17,63,3,100,42,3,

17,62,3,100,42,4,

17,62,3,99,41,3,

17,62,3,99,41,3,

17,62,3,99,41,4,

17,62,3,98,41,3,

17,61,3,98,41,4,

16,61,3,97,41,3,

17,61,3,97,41,4,

17,61,3,97,41,3,

16,60,3,96,41,3,

16,60,3,96,39,3,

16,60,3,96,39,3,

16,60,3,96,39,3,

16,60,3,95,39,3,

16,59,4,94,39,3,

16,59,3,94,39,3,

15,59,3,93,39,3,

16,59,3,93,39,4,

16,59,3,94,39,3,

15,58,3,101,39,3,

16,58,3,100,39,3,

15,58,4,100,38,3,

15,57,3,99,39,3,

15,57,3,99,38,3,

15,57,3,98,38,3,

15,57,3,98,38,3,

15,57,3,98,38,3,

15,56,3,97,37,3,

15,56,3,97,37,3,

15,56,3,97,37,4,

15,56,4,96,41,3,

15,56,4,96,47,3,

15,56,3,96,46,3,

15,55,3,95,46,3,

15,55,3,95,46,3,

15,55,3,94,45,3,

15,55,3,94,45,3,

15,54,3,93,45,3,

15,54,3,93,45,3,

14,54,3,93,45,3,

14,54,4,92,44,4,

14,53,3,92,44,3,

14,53,3,92,44,3,

14,53,3,91,44,3,

14,53,3,91,44,4,

14,53,3,91,43,3,

14,52,3,90,43,3,

14,52,3,89,43,3,

14,52,3,89,43,4,

14,52,3,89,43,3,

14,52,3,89,42,3,

13,51,3,88,42,3,

14,51,3,88,42,3,

14,51,3,88,42,3,

14,51,3,87,41,3,

13,51,3,88,41,3,

14,51,3,87,41,3,

13,50,3,86,41,3,

13,50,4,86,39,3,

13,50,3,86,40,3,

13,50,3,85,39,3,

13,49,3,85,39,3,

13,50,3,85,39,3,

22,49,3,84,39,3,

22,49,3,84,39,3,

22,49,3,83,39,3,

22,48,3,83,39,3,

21,48,3,83,39,3,

21,48,4,83,39,3,

21,48,4,82,39,3,

21,48,3,82,39,3,

21,48,3,81,39,3,

21,48,3,81,38,4,

21,48,3,81,39,3,

20,47,3,80,38,3,

20,47,3,80,38,3,

20,47,3,79,37,3,

20,47,3,79,38,3,

20,46,3,79,37,4,

19,46,3,79,37,3,

19,46,3,79,37,3,

19,46,3,78,37,3,

20,46,3,78,37,3,

19,46,3,78,36,3,

19,45,3,77,36,3,

19,45,3,77,36,3,

19,45,3,77,36,3,

19,45,3,76,35,3,

19,45,4,76,35,3,

19,45,3,76,35,3,

19,45,3,76,35,3,

19,45,3,76,35,4,

19,44,3,75,35,3,

19,44,3,75,35,3,

19,44,3,75,35,3,

18,44,3,74,35,3,

18,44,3,74,34,3,

18,44,3,74,34,3,

18,43,3,73,34,3,

18,43,3,73,34,3,

18,43,3,73,34,3,

18,43,3,73,33,3,

18,43,3,71,33,3,

19,43,3,71,33,3,

19,42,3,71,33,3,

19,42,3,71,33,3,

19,42,3,71,33,3,

19,42,3,96,33,3,

19,42,4,99,33,4,

19,41,3,111,32,3,

19,41,3,110,32,3,

19,41,3,109,31,3,

19,41,3,109,31,3,

18,41,4,108,31,3,

