
46,46,0,368,283,46,

46,45,0,366,280,45,

46,45,0,363,280,43,

45,45,0,359,277,43,

45,44,0,359,275,46,

45,47,0,356,274,45,

44,49,0,354,271,46,

44,48,0,352,271,46,

44,48,0,350,270,45,

44,48,0,348,268,44,

43,48,0,346,267,45,

43,48,0,391,304,42,

43,47,0,423,303,41,

43,47,0,422,300,41,

42,46,0,419,299,42,

42,46,0,415,297,44,

42,49,0,413,295,43,

42,51,0,410,294,43,

41,50,0,408,291,39,

41,50,0,405,290,41,

41,49,0,402,288,38,

41,49,0,399,287,41,

41,49,0,412,291,38,

41,48,0,415,288,41,

39,48,0,413,287,41,

39,48,0,411,285,41,

39,47,0,408,284,39,

39,47,0,404,282,37,

39,52,0,402,280,39,

39,52,0,399,280,36,

39,51,0,397,277,37,

39,51,0,395,276,38,

38,51,0,391,274,36,

39,51,0,390,284,39,

39,50,0,391,282,41,

39,50,0,389,280,38,

39,50,0,386,280,39,

39,49,0,384,277,39,

39,49,0,381,275,39,

39,54,0,379,274,36,

38,53,0,377,273,39,

38,53,0,374,271,37,

38,52,0,372,270,39,

38,52,0,370,268,38,

38,51,0,368,267,39,

39,51,0,367,265,39,

39,51,0,365,263,37,

39,51,0,363,263,39,

39,51,0,359,262,39,

39,50,0,358,260,37,

39,50,0,356,259,38,

38,50,0,354,257,37,

38,50,0,352,255,37,

38,50,0,350,255,39,

38,49,0,348,254,39,

37,49,0,346,275,39,

38,49,0,385,278,39,

38,48,0,384,276,38,

38,48,0,380,275,35,

37,48,0,378,273,38,

37,48,0,376,271,35,

37,74,0,373,270,35,

37,74,0,371,268,38,

36,73,0,368,267,35,

36,73,0,366,265,37,

36,73,0,364,263,36,

36,71,0,361,263,41,

54,71,0,435,317,50,

53,71,0,452,315,49,

52,71,0,449,312,52,

52,71,0,446,311,49,

51,70,0,443,309,50,

51,70,0,440,307,52,

51,69,0,437,305,51,

51,69,0,435,304,51,

51,69,0,432,302,51,

50,68,0,429,300,51,

50,68,0,425,298,47,

51,67,0,423,317,49,

50,67,0,463,315,48,

50,67,0,459,313,48,

50,66,0,455,311,49,

49,66,0,452,309,51,

49,66,0,449,307,47,

49,66,0,446,305,49,

48,66,0,443,304,46,

48,65,0,440,302,48,

48,65,0,437,300,46,

48,64,0,434,299,48,

48,64,0,432,295,46,

48,63,0,428,295,45,

47,63,0,426,294,48,

47,63,0,423,291,46,

47,62,0,421,290,48,

47,62,0,418,288,44,

46,62,0,415,287,47,

46,61,0,413,285,45,

46,61,0,410,284,44,

46,61,0,408,282,43,

45,61,0,405,281,46,

45,60,0,403,290,44,

46,60,0,401,287,45,

46,60,0,399,287,44,

45,59,0,396,285,43,

45,59,0,393,284,43,

45,59,0,391,281,42,

45,59,0,389,280,42,

44,59,0,387,279,41,

44,59,0,385,277,41,

44,58,0,382,275,42,

44,58,0,380,274,45,

44,57,0,378,282,44,

46,57,0,459,284,46,

46,57,0,455,283,44,

46,57,0,451,281,44,

45,56,0,449,280,43,

45,56,0,445,278,46,

45,56,0,442,276,43,

44,56,0,440,274,46,

44,56,0,435,273,43,

44,55,0,433,271,45,

44,55,0,430,270,41,

43,54,0,428,269,44,

43,54,0,431,305,43,

43,54,0,430,304,44,

43,54,0,427,302,41,

43,53,0,423,300,44,

42,53,0,422,298,40,

42,53,0,419,295,39,

42,53,0,415,295,43,

41,53,0,414,293,40,

41,53,0,411,291,43,

41,52,0,409,289,42,

41,52,0,406,287,41,

44,51,0,403,287,39,

43,51,0,401,285,43,

43,51,0,398,283,41,

43,51,0,397,281,42,

43,51,0,393,280,41,

42,63,0,391,279,41,

42,113,0,389,277,41,

42,112,0,387,275,39,

41,111,0,384,274,41,

41,110,0,382,271,39,

41,110,0,380,271,41,

44,109,0,395,287,41,

43,109,0,432,286,44,

43,108,0,429,284,41,

43,107,0,426,282,41,

42,107,0,423,280,41,

42,106,0,419,280,39,

41,105,0,417,277,41,

41,103,0,415,275,39,

41,103,0,412,273,41,

41,103,0,409,271,39,

41,103,0,406,271,41,

41,102,0,446,286,42,

39,102,0,444,284,42,

39,101,0,441,283,39,

39,101,0,438,281,37,

39,100,0,435,280,38,

39,99,0,432,277,37,

39,99,0,429,276,39,

39,98,0,426,274,40,

39,98,0,423,273,39,

38,97,0,421,271,37,

38,97,0,419,270,39,

39,97,0,429,291,41,

39,96,0,428,289,41,

39,96,0,423,287,39,

39,95,0,422,286,38,

39,95,0,419,285,39,

39,94,0,415,283,38,

39,93,0,414,281,38,

39,93,0,411,280,38,

39,93,0,408,278,37,

39,92,0,406,277,39,

38,92,0,403,275,36,

39,91,0,401,275,38,

39,91,0,398,274,39,

39,90,0,396,271,39,

39,90,0,393,271,39,

39,89,0,391,269,39,

39,89,0,389,268,37,

38,89,0,386,267,39,

38,88,0,384,265,39,

38,88,0,382,263,38,

38,87,0,380,262,39,

37,87,0,377,261,39,

50,86,0,382,261,44,

49,85,0,381,259,46,

49,85,0,379,258,49,

49,85,0,376,256,47,

48,84,0,374,255,49,

48,84,0,372,254,47,

48,83,0,370,253,47,

48,83,0,368,251,48,

47,83,0,366,250,48,

47,83,0,364,249,48,

47,82,0,361,248,44,

49,82,0,376,290,53,

57,81,0,494,292,54,

57,81,0,489,290,57,

57,80,0,486,288,56,

57,79,0,483,287,57,

56,79,0,479,285,57,

56,80,0,476,284,57,

56,80,0,472,281,56,

56,79,0,469,280,53,

55,79,0,466,278,52,

55,79,0,463,277,52,

55,79,0,460,293,53,

54,78,0,457,293,53,

54,78,0,453,291,55,

53,77,0,451,289,51,

53,77,0,448,287,54,

53,77,0,445,286,50,

52,76,0,442,284,52,

52,76,0,440,283,49,

52,75,0,436,281,52,

52,75,0,433,280,49,

51,75,0,432,278,52,

51,74,0,428,276,52,

52,74,0,426,275,53,

52,73,0,423,273,51,

51,73,0,420,272,51,

51,73,0,418,271,51,

51,73,0,415,270,48,

51,71,0,413,268,48,

51,71,0,411,267,49,

50,71,0,408,265,48,

50,71,0,406,263,50,

50,71,0,403,262,50,

49,71,0,401,261,47,

51,70,0,458,295,51,

50,69,0,471,293,48,

50,69,0,467,291,51,

50,69,0,463,289,47,

49,69,0,461,287,50,

49,68,0,457,286,48,

49,74,0,455,285,51,

49,73,0,451,283,49,

49,73,0,448,281,47,

48,73,0,446,280,48,

48,71,0,443,278,45,

53,71,0,472,284,51,

53,71,0,523,282,52,

53,71,0,518,280,51,

52,70,0,515,278,51,

52,70,0,510,277,50,

51,70,0,507,275,50,

51,69,0,503,274,52,

51,69,0,499,272,50,

51,69,0,496,271,51,

51,68,0,492,270,50,

50,67,0,489,268,50,

52,67,0,486,288,54,

60,67,0,483,286,58,

60,67,0,479,284,56,

59,66,0,476,283,60,

59,66,0,473,281,59,

59,66,0,469,280,57,

58,66,0,467,278,58,

58,65,0,463,276,58,

57,65,0,460,275,56,

57,65,0,457,273,57,

57,64,0,455,271,55,

57,64,0,452,297,59,

57,63,0,480,304,55,

56,63,0,476,302,54,

56,63,0,473,300,57,

56,63,0,469,298,53,

56,63,0,467,295,56,

55,62,0,463,295,55,

55,62,0,461,293,55,

54,61,0,457,291,51,

54,61,0,454,290,55,

54,61,0,451,287,51,

54,61,0,448,287,51,

54,60,0,446,285,53,

53,60,0,443,284,54,

53,60,0,440,281,51,

52,60,0,437,280,53,

52,59,0,434,279,50,

52,59,0,432,277,52,

52,59,0,429,275,50,

51,58,0,426,274,51,

51,58,0,423,272,49,

51,57,0,421,271,51,

50,57,0,419,270,51,

51,57,0,416,280,49,

50,57,0,415,279,51,

50,57,0,413,277,48,

50,56,0,410,275,50,

49,56,0,408,273,47,

49,56,0,405,271,47,

49,56,0,403,270,46,

48,56,0,401,269,49,

48,55,0,398,268,46,

48,55,0,396,266,46,

48,54,0,393,265,46,

48,54,0,391,263,46,

48,54,0,390,262,45,

48,53,0,387,261,45,

47,53,0,385,259,45,

47,53,0,383,258,44,

47,53,0,381,256,44,

47,75,0,379,255,44,

46,75,0,377,253,48,

46,75,0,375,252,44,

46,73,0,372,251,47,

45,73,0,370,250,46,

45,73,0,368,285,45,

45,71,0,399,285,43,

45,71,0,396,284,46,

45,71,0,393,281,42,

44,71,0,391,280,45,

44,71,0,388,279,43,

44,71,0,386,276,43,

44,71,0,384,275,42,

43,71,0,381,273,41,

43,70,0,379,271,41,

43,70,0,376,271,44,

43,69,0,374,285,41,

43,69,0,384,283,41,

42,68,0,382,281,41,

42,68,0,380,280,39,

41,68,0,377,278,43,

41,67,0,375,276,39,

41,68,0,372,275,43,

41,68,0,370,273,42,

41,67,0,368,271,41,

40,67,0,365,270,38,

39,67,0,364,269,38,

39,67,0,361,268,43,

47,67,0,373,290,44,

47,66,0,379,288,44,

45,66,0,377,287,45,

46,65,0,374,285,44,

45,65,0,371,283,44,

45,64,0,369,281,44,

45,65,0,367,280,42,

45,64,0,365,278,43,

44,63,0,363,276,42,

44,63,0,359,275,45,

44,63,0,359,273,45,

44,63,0,400,307,46,

43,62,0,418,304,46,

43,62,0,415,302,42,

43,62,0,412,301,43,

43,61,0,409,299,43,

43,61,0,407,297,41,

42,63,0,404,295,40,

42,63,0,401,294,39,

42,63,0,399,292,39,

41,63,0,396,290,39,

41,63,0,393,288,39,

48,62,0,391,288,44,

49,62,0,389,287,48,

49,61,0,387,285,46,

49,61,0,384,283,47,

48,61,0,381,282,49,

48,60,0,380,280,49,

48,66,0,377,280,49,

48,65,0,376,278,46,

47,65,0,372,276,46,

47,64,0,370,274,48,

47,63,0,368,273,48,

46,63,0,366,277,46,

46,63,0,383,274,44,

46,63,0,380,273,44,

45,63,0,377,271,44,

45,62,0,375,270,44,

45,62,0,371,268,47,

45,62,0,370,267,43,

45,61,0,368,265,45,

44,61,0,366,263,43,

44,60,0,363,263,43,

44,60,0,361,262,44,

44,60,0,359,276,44,

47,60,0,411,280,48,

47,59,0,408,277,45,

47,59,0,405,276,45,

46,59,0,402,274,46,

46,58,0,399,272,47,

46,64,0,396,271,47,

46,68,0,395,269,46,

45,68,0,391,268,46,

45,67,0,390,267,43,

45,67,0,387,263,43,

44,67,0,384,263,47,

44,66,0,401,309,43,

44,66,0,408,307,45,

44,66,0,405,304,42,

44,65,0,402,304,43,

43,65,0,399,301,44,

43,64,0,397,299,41,

43,64,0,394,298,43,

43,63,0,391,295,43,

42,63,0,389,294,41,

42,63,0,386,292,39,

42,62,0,384,291,43,

42,62,0,430,297,43,

41,62,0,440,295,43,

41,62,0,436,293,43,

41,61,0,433,291,42,

41,61,0,430,289,41,

41,61,0,427,287,39,

39,61,0,423,286,39,

39,60,0,422,285,39,

39,60,0,419,283,38,

39,59,0,415,281,39,

39,59,0,413,280,41,

39,59,0,412,294,41,

45,59,0,445,292,44,

44,58,0,441,291,41,

44,58,0,439,289,44,

44,57,0,435,287,41,

43,57,0,432,285,44,

43,57,0,430,284,41,

43,57,0,427,282,44,

43,56,0,423,280,44,

42,56,0,422,280,44,

42,56,0,419,277,42,

42,56,0,415,294,41,

43,56,0,413,292,43,

43,55,0,411,291,39,

43,55,0,408,288,39,

42,54,0,406,287,41,

42,54,0,403,285,40,

42,54,0,401,284,39,

42,53,0,398,282,43,

41,53,0,396,280,39,

41,53,0,393,280,41,

41,53,0,391,277,39,

41,52,0,388,282,42,

41,52,0,423,284,38,

39,52,0,420,282,39,

39,51,0,417,280,38,

39,51,0,415,279,41,

39,51,0,412,277,39,

39,52,0,409,276,39,

39,53,0,407,274,39,

39,52,0,403,273,36,

39,51,0,401,271,38,

38,51,0,399,270,39,

38,51,0,396,268,38,

41,51,0,399,295,39,

41,51,0,403,295,39,

41,50,0,401,293,39,

41,50,0,399,291,41,

41,50,0,396,289,39,

39,51,0,393,287,41,

39,51,0,391,286,39,

39,51,0,389,284,39,

39,50,0,386,283,37,

39,50,0,384,281,39,

39,50,0,382,280,36,

39,50,0,419,281,41,

39,49,0,435,280,39,

39,49,0,432,278,38,

39,49,0,429,276,39,

39,48,0,425,275,39,

38,48,0,423,273,37,

38,51,0,420,271,36,

38,51,0,417,270,37,

38,50,0,415,269,37,

38,50,0,412,268,35,

37,49,0,409,266,36,

38,50,0,407,300,41,

37,49,0,413,297,35,

37,49,0,411,295,37,

37,48,0,408,294,38,

37,48,0,406,291,38,

37,48,0,403,291,35,

36,60,0,399,289,37,

36,60,0,398,287,34,

36,60,0,396,286,34,

35,59,0,393,284,36,

35,59,0,391,283,37,

39,58,0,390,293,46,

57,58,0,423,291,51,

57,57,0,420,289,53,

56,57,0,418,287,53,

56,57,0,415,286,54,

56,57,0,412,284,56,

56,56,0,409,283,54,

55,56,0,407,281,52,

55,56,0,404,280,55,

54,55,0,401,278,52,

54,55,0,399,276,54,

54,55,0,397,275,51,

54,54,0,443,274,51,

53,54,0,440,271,50,

53,54,0,435,271,50,

52,54,0,433,269,49,

52,53,0,430,268,53,

51,53,0,427,266,50,

51,53,0,423,263,50,

51,53,0,422,263,50,

51,52,0,419,262,49,

51,51,0,415,261,48,

50,51,0,413,259,50,

50,51,0,427,287,49,

50,51,0,428,286,47,

49,51,0,425,284,46,

49,50,0,423,283,48,

49,50,0,419,281,51,

49,50,0,417,280,47,

48,51,0,414,278,49,

48,50,0,412,276,49,

48,50,0,409,275,46,

48,50,0,407,273,45,

48,50,0,403,271,48,

50,49,0,401,271,47,

49,49,0,399,270,47,

49,49,0,396,269,48,

49,48,0,395,267,48,

49,48,0,391,265,47,

48,50,0,389,263,46,

48,83,0,387,262,47,

48,82,0,384,262,46,

48,82,0,382,259,46,

48,81,0,380,258,46,

47,80,0,378,257,46,

49,80,0,384,269,50,

54,79,0,461,267,55,

54,79,0,458,265,52,

54,79,0,454,263,55,

54,78,0,451,263,51,

53,78,0,448,261,54,

53,77,0,444,259,51,

53,77,0,442,258,50,

52,77,0,439,257,51,

52,76,0,436,255,51,

52,76,0,433,254,49,

51,76,0,431,284,55,

51,75,0,467,292,51,

51,75,0,463,291,49,

50,74,0,460,288,48,

50,74,0,457,287,48,

50,73,0,454,285,48,

50,73,0,451,284,48,

49,73,0,448,282,51,

49,71,0,445,280,48,

49,71,0,441,279,50,

49,71,0,440,277,47,

48,71,0,436,276,48,

49,71,0,446,297,48,

48,70,0,444,295,46,

48,70,0,440,293,46,

48,70,0,437,291,46,

48,69,0,434,290,45,

47,69,0,432,287,45,

47,68,0,429,286,46,

47,68,0,426,284,46,

46,67,0,423,283,44,

46,67,0,421,281,46,

46,67,0,418,280,44,

46,67,0,419,281,44,

45,66,0,415,280,46,

45,66,0,414,278,44,

45,65,0,411,276,47,

45,65,0,409,275,46,

45,66,0,407,273,44,

44,66,0,403,271,44,

44,65,0,402,270,45,

44,65,0,399,269,44,

43,65,0,397,267,41,

43,64,0,394,266,41,

44,63,0,395,291,43,

44,63,0,446,287,43,

44,63,0,443,287,45,

43,63,0,440,285,41,

43,63,0,436,283,44,

43,63,0,434,281,41,

43,71,0,431,280,41,

42,71,0,428,279,43,

42,71,0,425,277,39,

42,71,0,422,275,42,

42,70,0,419,273,39,

49,70,0,422,298,49,

55,70,0,514,295,54,

54,69,0,510,294,55,

54,69,0,505,291,53,

54,68,0,502,290,54,

53,68,0,498,289,54,

53,67,0,495,287,51,

53,67,0,491,285,51,

52,67,0,487,284,50,

52,67,0,484,281,49,

52,66,0,481,280,51,

51,66,0,478,293,51,

54,65,0,475,292,51,

53,65,0,471,290,53,

53,65,0,468,287,50,

53,64,0,465,287,53,

52,63,0,462,285,52,

51,63,0,459,284,49,

51,63,0,455,281,48,

51,63,0,454,280,52,

51,63,0,450,279,51,

50,62,0,448,277,51,

50,62,0,445,275,52,

50,62,0,443,278,51,

50,61,0,440,275,50,

50,61,0,436,275,50,

49,61,0,433,273,46,

49,61,0,431,271,48,

49,61,0,429,270,47,

48,61,0,426,269,47,

48,61,0,423,267,49,

48,60,0,421,265,46,

48,60,0,418,263,48,

48,60,0,415,263,47,

56,60,0,413,280,53,

56,59,0,411,277,51,

55,59,0,408,275,54,

55,59,0,406,274,51,

54,58,0,403,271,55,

54,58,0,401,271,55,

53,73,0,399,269,55,

53,71,0,396,268,53,

53,71,0,394,267,53,

52,71,0,391,265,53,

52,71,0,390,263,49,

52,71,0,387,273,49,

51,70,0,385,271,50,

51,70,0,383,270,49,

51,70,0,381,268,51,

51,69,0,379,267,51,

51,68,0,377,265,49,

50,68,0,375,263,50,

50,68,0,372,263,50,

50,67,0,370,261,50,

50,67,0,368,259,46,

49,67,0,367,258,48,

49,66,0,364,270,48,

49,66,0,363,268,51,

49,66,0,361,266,49,

49,66,0,359,265,50,

49,65,0,357,263,48,

48,65,0,355,262,46,

48,65,0,353,260,48,

48,63,0,352,259,48,

48,63,0,349,257,45,

47,63,0,348,255,46,

47,63,0,345,255,45,

46,63,0,344,271,47,

50,62,0,379,270,51,

50,62,0,376,268,51,

49,62,0,374,266,50,

49,61,0,371,265,49,

49,61,0,369,263,48,

48,61,0,367,262,46,

48,60,0,365,260,48,

48,60,0,362,259,45,

48,59,0,359,258,46,

48,59,0,358,255,48,

47,59,0,355,255,47,

47,59,0,370,271,48,

47,58,0,368,270,47,

47,58,0,365,268,44,

46,57,0,364,266,44,

46,57,0,361,265,44,

46,62,0,359,263,46,

46,62,0,357,262,44,

46,62,0,354,260,47,

45,62,0,352,259,46,

45,61,0,350,257,43,

44,61,0,348,255,44,

45,61,0,377,282,44,

45,60,0,395,280,45,

45,60,0,391,278,42,

44,60,0,388,276,46,

44,59,0,386,275,42,

44,59,0,384,273,42,

43,59,0,381,271,44,

44,59,0,379,270,45,

43,59,0,376,269,41,

43,59,0,374,267,40,

43,58,0,371,266,39,

43,58,0,390,299,45,

43,57,0,465,297,41,

43,57,0,462,295,41,

43,57,0,459,293,41,

42,56,0,455,291,43,

42,56,0,453,290,43,

42,56,0,449,287,40,

42,56,0,447,287,43,

41,56,0,443,285,39,

41,55,0,440,284,41,

41,54,0,438,281,39,

41,55,0,434,289,39,

41,54,0,433,287,38,

39,54,0,430,286,41,

39,54,0,427,284,39,

39,53,0,423,282,39,

39,53,0,422,281,39,

39,52,0,419,279,38,

39,52,0,417,278,38,

39,52,0,414,275,39,

39,51,0,412,274,37,

39,51,0,409,273,39,

38,51,0,407,279,37,

38,51,0,437,277,36,

38,51,0,441,275,39,

38,50,0,438,274,36,

37,50,0,434,272,39,

37,50,0,432,271,39,

37,73,0,429,269,36,

37,73,0,426,268,35,

37,73,0,423,267,38,

37,71,0,420,265,34,

36,71,0,418,263,35,

36,71,0,415,262,36,

39,71,0,422,263,38,

40,71,0,428,262,39,

39,70,0,425,260,39,

39,70,0,423,259,38,

39,69,0,419,258,38,

39,69,0,417,255,38,

39,68,0,414,255,38,

39,68,0,412,254,38,

39,67,0,409,252,37,

38,67,0,406,251,39,

38,67,0,404,249,36,

39,66,0,409,280,41,

39,66,0,425,278,37,

39,65,0,422,276,39,

39,65,0,418,275,37,

39,65,0,415,273,37,

39,65,0,413,271,37,

38,64,0,411,270,37,

38,63,0,408,269,37,

38,63,0,406,267,39,

38,63,0,403,265,37,

37,63,0,399,263,38,

38,63,0,398,305,36,

38,62,0,422,303,35,

37,62,0,419,301,35,

37,61,0,415,299,35,

36,61,0,413,297,38,

36,61,0,411,295,38,

36,61,0,408,294,38,

36,60,0,405,292,38,

35,60,0,402,291,35,

35,59,0,399,289,35,

35,59,0,398,287,33,

35,59,0,406,291,38,

44,59,0,460,289,42,

43,59,0,455,287,41,

43,58,0,452,286,41,

43,57,0,449,284,41,

42,57,0,446,283,41,

42,57,0,443,280,41,

42,57,0,440,280,42,

42,57,0,438,278,39,

41,56,0,434,275,39,

41,56,0,431,275,42,

41,56,0,429,275,39,

41,55,0,425,274,42,

41,55,0,423,272,43,

41,55,0,420,271,39,

40,55,0,417,270,41,

41,54,0,415,268,41,

41,55,0,412,267,41,

39,56,0,410,265,38,

39,55,0,408,263,38,

39,55,0,406,263,38,

39,54,0,403,261,38,

39,54,0,399,259,42,

42,53,0,401,263,39,

42,53,0,398,263,42,

41,53,0,396,262,39,

41,52,0,393,260,39,

41,52,0,391,259,42,

41,83,0,388,257,39,

41,92,0,386,255,41,

40,91,0,384,254,41,

39,91,0,382,253,39,

39,90,0,379,252,40,

39,89,0,377,251,41,

39,89,0,375,253,39,

39,89,0,373,251,39,

39,88,0,371,251,39,

39,88,0,369,249,38,

39,88,0,367,247,37,

38,87,0,364,246,37,

38,86,0,363,245,36,

38,86,0,359,243,39,

38,86,0,359,243,36,

37,85,0,356,242,37,

37,84,0,355,240,42,

72,84,0,377,277,60,

73,83,0,435,275,69,

71,83,0,433,273,70,

71,83,0,430,271,67,

71,82,0,426,270,67,

71,81,0,423,268,70,

70,81,0,420,267,70,

70,81,0,418,265,70,

70,80,0,415,263,70,

69,79,0,413,262,69,

69,79,0,410,261,68,

76,79,0,412,295,83,

92,79,0,455,295,85,

91,78,0,451,295,88,

91,78,0,448,292,86,

90,77,0,444,291,87,

89,77,0,441,289,89,

89,79,0,439,287,86,

88,78,0,435,286,88,

88,78,0,433,284,84,

88,78,0,430,283,86,

101,77,0,427,281,119,

182,77,0,423,310,170,

187,76,0,455,322,176,

185,76,0,451,319,177,

184,76,0,448,318,177,

182,114,0,444,316,177,

181,201,0,440,313,176,

180,233,0,437,312,177,

179,231,0,434,309,173,

178,230,0,431,307,173,

177,228,0,428,305,174,

176,227,0,425,303,171,

175,225,0,422,301,172,

174,224,0,419,299,172,

172,222,0,415,297,167,

171,220,0,412,295,169,

170,219,0,409,294,165,

169,331,0,407,291,164,

167,344,0,403,290,163,

167,340,0,401,287,163,

166,338,0,398,286,163,

172,335,0,396,287,166,

171,332,0,415,286,167,

169,335,0,412,284,164,

167,334,0,408,283,164,

167,332,0,404,280,162,

167,329,0,402,280,161,

165,327,0,399,278,172,

202,399,0,396,275,192,

199,401,0,393,274,193,

198,398,0,391,271,194,

197,393,0,388,289,192,

195,391,0,395,287,192,

195,388,0,391,286,192,

193,385,0,389,284,188,

192,505,0,386,282,187,

191,568,0,384,280,186,

195,562,0,381,279,194,

203,557,0,379,277,199,

202,551,0,376,275,195,

199,547,0,374,273,197,

199,542,0,466,297,195,

198,537,0,483,295,192,

196,533,0,478,293,193,

195,606,0,475,291,190,

194,647,0,471,289,191,

193,755,0,467,287,188,

192,745,0,463,286,185,

201,737,0,460,284,229,

280,729,0,455,282,259,

278,721,0,453,281,278,

332,713,0,451,280,311,

327,706,0,447,278,313,

326,699,0,444,276,313,

323,692,0,441,275,309,

321,685,0,437,273,307,

319,679,0,434,271,300,

316,673,0,430,270,299,

314,667,0,428,268,297,

312,661,0,425,267,291,

344,655,0,422,314,325,

367,647,0,497,312,323,

364,643,1,493,309,316,

361,638,1,489,307,306,

359,632,0,486,305,301,

356,627,0,481,304,279,

353,622,0,477,301,268,

352,615,1,473,299,269,

348,611,1,470,297,255,

347,607,1,467,295,254,

344,601,1,463,305,271,

342,595,1,460,303,247,

339,591,1,455,300,242,

337,585,1,453,299,238,

335,582,1,449,297,236,

333,577,1,446,295,229,

331,572,1,443,293,212,

329,568,2,440,291,236,

326,563,2,436,289,242,

325,560,2,433,287,237,

323,556,2,441,287,235,

320,550,2,481,285,224,

318,546,2,478,283,215,

316,542,2,473,281,222,

314,538,3,470,280,222,

312,534,2,465,278,206,

311,530,3,462,276,211,

309,527,3,459,275,206,

307,523,3,455,273,197,

305,519,3,451,271,201,

304,515,3,483,314,207,

301,511,3,482,312,210,

300,507,3,478,310,206,

297,504,3,475,307,194,

295,500,3,472,305,199,

294,497,3,467,304,195,

293,494,3,463,302,193,

291,490,3,460,300,192,

289,487,3,455,297,189,

287,483,3,453,295,193,

286,480,3,450,294,195,

284,476,3,447,291,194,

283,473,3,444,290,195,

281,470,3,441,288,197,

280,467,3,437,287,197,

278,463,3,433,285,187,

276,461,3,430,283,188,

275,458,3,428,281,184,

273,455,3,423,280,184,

271,452,3,422,278,175,

270,450,3,419,281,169,

268,446,3,415,280,173,

267,443,3,413,278,179,

265,440,3,411,275,176,

263,438,3,408,274,180,

262,435,3,404,272,179,

261,432,3,401,271,170,

259,430,3,399,269,179,

258,427,3,396,268,176,

257,423,3,395,325,173,

255,422,3,409,325,167,

254,418,3,407,323,169,

252,415,3,403,321,173,

251,413,3,401,319,169,

249,411,3,398,316,167,

248,408,3,394,314,165,

247,406,3,391,312,164,

246,403,3,389,310,164,

243,401,3,387,308,167,

243,399,3,384,357,172,

241,396,3,382,353,165,

240,393,3,379,350,161,

239,391,3,377,348,163,

238,388,3,375,345,163,

236,386,3,371,344,163,

235,384,3,369,341,160,

233,382,3,367,339,166,

231,380,3,364,336,170,

231,377,3,362,334,170,

230,376,3,436,353,170,

229,373,3,440,349,166,

227,370,3,436,347,166,

226,368,3,433,344,167,

225,366,3,430,342,165,

224,364,3,427,339,163,

223,362,3,423,337,166,

222,359,3,419,335,162,

221,358,3,415,333,162,

219,355,3,414,332,163,

218,354,3,505,331,161,

217,352,3,500,327,159,

216,350,3,496,326,159,

215,348,3,492,323,163,

214,345,2,487,321,162,

213,344,2,483,319,159,

211,342,2,480,318,159,

210,339,2,476,316,153,

209,338,3,472,313,159,

207,335,2,469,312,156,

207,335,2,482,312,156,

206,333,2,478,310,151,

205,330,2,474,307,153,

204,327,2,471,306,156,

203,327,2,467,304,158,

201,325,2,463,302,158,

201,323,2,460,300,159,

199,321,2,455,299,154,

199,319,2,453,297,156,

198,318,2,466,295,153,

196,317,2,479,293,153,

195,315,2,475,291,158,

195,313,2,471,289,153,

194,312,2,467,287,155,

193,309,2,463,286,153,

192,307,2,459,284,152,

191,306,2,455,283,152,

190,305,2,453,281,149,

189,303,2,449,280,151,

188,302,2,497,297,147,

187,300,2,515,295,145,

186,298,2,510,292,147,

185,295,1,505,291,143,

184,295,2,502,289,143,

184,293,2,497,287,141,

182,291,2,492,285,143,

181,290,2,487,283,143,

180,289,1,485,281,143,

179,287,1,481,280,139,

178,286,2,478,278,139,

177,284,2,474,275,137,

177,283,1,470,274,140,

176,281,2,467,273,135,

175,280,2,463,271,135,

174,278,2,460,270,135,

173,277,2,455,268,135,

172,275,1,453,267,135,

172,274,1,449,265,133,

171,272,1,447,263,129,

169,271,1,527,301,129,

169,270,1,522,298,129,

167,268,1,518,295,129,

167,267,1,513,294,129,

166,265,1,509,292,133,

166,263,1,505,291,130,

165,263,1,499,289,132,

164,262,1,496,287,131,

163,260,1,492,285,130,

162,259,1,489,287,130,

161,257,1,510,292,131,

160,256,1,506,289,133,

159,254,1,502,287,131,

159,253,1,498,286,132,

158,252,1,494,284,129,

157,251,1,490,282,125,

157,249,1,486,280,127,

156,248,1,481,279,124,

155,247,1,478,277,124,

155,246,1,475,275,124,

154,245,1,471,273,123,

153,243,1,467,271,125,

152,242,1,463,270,121,

152,241,1,461,268,123,

151,240,1,457,267,121,

150,238,1,454,265,120,

149,237,1,450,263,120,

148,236,1,447,262,120,

147,235,1,444,260,118,

147,234,1,501,300,121,

146,233,1,504,298,117,

145,231,1,499,295,119,

145,230,1,495,294,115,

144,229,1,491,291,118,

143,228,1,487,290,113,

143,227,1,483,287,114,

142,226,1,479,286,113,

141,225,1,475,284,113,

140,224,1,472,283,113,

140,223,1,468,281,115,

139,222,1,464,279,111,

139,220,1,461,277,113,

138,219,1,458,275,112,

137,225,1,455,273,108,

137,310,1,451,271,108,

135,307,1,448,270,108,

135,305,1,444,268,109,

135,302,1,441,267,107,

134,300,1,438,265,107,

133,299,1,454,275,109,

133,297,1,451,273,106,

132,295,1,447,271,103,

131,292,1,444,269,106,

131,291,1,440,267,103,

130,288,1,437,265,106,

129,287,1,434,263,105,

129,285,1,430,262,105,

128,283,1,427,261,102,

127,281,1,423,265,103,

127,280,1,432,282,101,

127,278,1,429,280,102,

126,276,1,425,278,101,

126,275,1,423,276,103,

124,273,1,419,274,99,

124,271,1,417,272,98,

123,270,1,414,271,99,

123,268,0,412,269,100,

122,267,0,408,268,100,

122,265,1,406,274,97,

121,263,0,408,271,96,

121,262,1,405,271,97,

120,261,1,403,268,99,

120,259,1,399,268,99,

119,258,0,397,266,99,

119,255,0,395,263,97,

118,254,1,391,263,94,

117,253,0,390,261,96,

116,252,1,387,259,92,

116,250,1,385,257,95,

115,249,1,450,281,96,

115,248,1,448,279,96,

115,246,1,444,277,95,

114,245,0,441,275,92,

113,243,1,438,273,90,

113,242,1,435,271,93,

113,241,0,432,270,89,

112,240,0,428,268,88,

112,238,1,425,267,88,

111,237,0,422,265,86,

111,236,0,422,287,91,

110,234,0,419,286,90,

110,233,0,415,284,88,

109,231,0,412,282,89,

108,231,0,411,280,86,

108,229,0,408,278,86,

108,228,0,405,276,86,

107,227,0,402,275,84,

107,226,0,399,273,84,

106,224,0,396,271,88,

105,224,0,429,304,87,

105,222,0,455,301,85,

103,221,0,453,299,83,

103,220,0,449,297,83,

103,219,0,446,295,82,

103,217,0,443,293,81,

103,217,0,440,291,84,

102,216,0,435,289,81,

101,215,0,433,287,82,

101,214,0,430,286,81,

101,212,0,427,287,79,

100,211,0,476,285,82,

100,210,0,472,283,79,

99,209,0,468,282,79,

99,209,0,465,280,79,

98,207,0,462,278,82,

98,207,0,459,276,79,

98,206,0,455,275,79,

97,205,0,451,273,79,

97,204,0,448,271,78,

96,203,0,446,270,80,

96,202,0,443,282,77,

96,201,0,440,280,79,

95,199,0,436,279,76,

94,199,0,433,277,76,

94,199,0,431,275,76,

94,198,0,428,273,75,

93,197,0,425,271,76,

93,195,0,423,270,76,

92,195,0,419,269,75,

92,194,0,417,267,73,

92,193,1,414,265,74,

92,192,0,412,302,71,

91,192,0,409,300,74,

91,191,0,406,298,73,

90,190,0,403,295,76,

89,189,0,401,294,74,

89,188,0,399,292,74,

89,188,0,396,291,75,

88,187,0,393,289,73,

88,185,0,391,287,71,

88,185,0,389,285,71,

88,184,0,387,307,76,

87,184,0,455,308,71,

86,183,0,452,306,75,

86,182,0,448,304,71,

86,181,0,445,302,70,

85,180,0,441,300,73,

85,179,0,439,299,70,

84,178,0,435,295,73,

84,178,0,433,295,69,

83,177,0,430,294,72,

83,176,0,426,291,69,

83,176,0,447,327,70,

82,175,0,504,324,69,

82,174,0,499,322,67,

82,173,0,495,319,70,

81,172,0,492,318,70,

81,172,0,487,316,69,

81,171,0,484,314,67,

80,170,0,480,312,68,

80,169,0,478,310,70,

79,169,0,474,308,67,

79,167,0,471,307,66,

79,167,0,467,307,67,

79,167,0,463,305,65,

78,166,0,461,303,65,

78,165,0,457,302,67,

77,164,0,455,300,65,

77,163,0,451,297,65,

77,163,0,448,295,66,

76,162,0,445,295,63,

76,161,0,442,293,62,

76,161,0,440,291,64,

76,159,0,436,298,62,

75,159,0,433,295,63,

75,159,0,431,294,61,

75,158,0,428,292,61,

74,157,0,425,290,64,

74,157,0,423,289,63,

73,156,0,419,287,64,

73,155,0,417,286,61,

73,155,0,415,284,60,

71,154,0,412,282,60,

71,153,0,409,281,58,

71,153,0,407,300,62,

71,152,0,404,297,60,

71,152,0,402,295,62,

71,151,0,399,294,62,

71,150,0,397,292,61,

70,150,0,395,290,61,

70,149,0,391,289,58,

70,148,0,390,287,57,

69,147,0,387,285,57,

69,147,0,385,284,57,

68,146,0,383,281,57,

68,145,0,380,297,60,

67,145,0,385,295,60,

68,144,0,383,293,57,

67,143,0,380,291,58,

67,143,0,378,290,59,

66,143,0,376,287,56,

66,142,0,373,286,58,

66,141,0,371,284,56,

66,141,0,369,282,59,

65,140,0,367,281,56,

65,140,0,364,283,58,

65,139,0,363,295,58,

65,139,0,361,294,59,

64,138,0,359,292,57,

63,137,0,356,290,55,

63,135,0,355,288,54,

63,135,0,353,287,53,

63,135,0,350,285,53,

63,135,0,348,284,56,

62,135,0,347,281,54,

62,134,0,345,280,56,

62,133,0,350,305,56,

62,132,0,349,303,55,

62,132,0,347,301,56,

61,131,0,345,299,52,

61,131,0,343,297,51,

60,130,0,341,295,54,

60,130,0,339,294,51,

60,129,0,337,291,53,

60,129,0,335,290,54,

59,128,0,333,288,54,

59,127,0,332,286,50,

59,127,0,330,316,52,

59,127,0,343,314,49,

59,126,0,340,312,49,

58,126,0,338,310,50,

58,125,0,335,308,50,

57,124,0,334,306,49,

57,124,0,332,305,50,

57,123,0,330,303,50,

57,123,0,327,301,51,

57,122,0,327,299,51,

56,121,0,325,297,52,

56,121,0,339,318,48,

56,121,0,336,316,49,

56,120,0,334,313,47,

55,120,0,332,312,47,

55,119,0,330,310,50,

55,119,0,327,307,50,

55,118,0,326,305,50,

54,118,0,323,304,50,

54,117,0,322,302,49,

54,117,0,321,300,46,

53,116,0,323,347,48,

53,115,0,435,344,46,

53,115,0,430,341,45,

52,115,0,428,339,48,

52,114,0,423,336,45,

52,113,0,421,335,47,

51,113,0,418,332,47,

51,113,0,415,330,47,

51,112,0,413,327,44,

51,112,0,410,327,45,

51,111,0,407,324,43,

51,111,0,404,344,45,

50,110,0,402,341,46,

50,110,0,399,338,44,

50,109,0,397,337,43,

50,109,0,393,335,45,

49,108,0,391,332,43,

49,108,0,389,330,43,

49,108,0,387,327,43,

49,107,0,384,326,42,

49,106,0,382,324,45,

48,106,0,380,330,45,

48,106,0,381,363,41,

48,105,0,379,359,44,

48,105,0,376,357,44,

48,103,0,374,354,41,

47,103,0,371,352,41,

47,103,0,369,350,42,

47,103,0,368,348,41,

46,102,0,365,345,41,

46,102,0,363,344,43,

46,101,0,359,342,39,

46,101,0,359,369,44,

46,101,0,356,366,39,

45,100,0,354,363,39,

45,100,0,352,361,39,

45,99,0,351,358,42,

45,99,0,348,356,39,

45,99,0,347,354,39,

44,98,0,344,352,39,

44,98,0,343,350,39,

44,97,0,341,347,39,

44,97,0,339,345,39,

44,97,0,337,361,38,

44,96,0,339,361,38,

43,96,0,337,359,40,

43,96,0,335,356,41,

43,95,0,334,355,39,

43,95,0,332,352,39,

42,94,0,330,350,38,

42,94,0,327,348,39,

42,93,0,327,345,39,

42,93,0,325,344,38,

41,93,0,323,342,36,

41,93,0,321,340,35,

41,92,0,319,339,35,

41,92,0,319,335,36,

41,91,0,318,335,36,

41,91,0,316,332,35,

41,90,0,315,331,38,

39,90,0,313,329,34,

39,89,0,312,327,35,

39,89,0,310,326,37,

39,89,0,309,323,37,

39,89,0,307,322,36,

39,88,0,306,319,36,

39,88,0,337,358,35,

39,88,0,339,355,37,

39,87,0,338,352,37,

39,87,0,335,351,35,

38,87,0,334,348,35,

38,86,0,332,347,36,

38,86,0,330,344,33,

38,86,0,327,342,33,

38,85,0,326,339,33,

38,85,0,324,337,33,

37,85,0,322,335,35,

37,84,0,320,344,33,

37,83,0,318,343,33,

37,83,0,316,340,34,

36,83,0,315,338,31,

36,83,0,313,336,34,

36,82,0,312,334,33,

36,82,0,310,332,31,

36,81,0,307,330,31,

35,81,0,306,327,34,

35,81,0,305,327,33,

35,80,0,303,325,34,

35,80,0,319,366,37,

35,79,0,399,379,34,

35,79,0,396,376,33,

35,79,0,393,374,32,

34,79,0,391,371,30,

34,79,0,387,369,30,

34,78,0,385,366,29,

34,78,0,383,364,30,

34,78,0,380,362,32,

34,77,0,378,359,29,

34,77,0,376,358,31,

33,77,0,374,363,29,

33,76,0,371,364,31,

33,76,0,369,361,29,

33,76,0,367,359,31,

33,76,0,364,357,28,

32,75,0,363,355,31,

32,75,0,359,353,31,

31,75,0,358,351,31,

31,74,0,355,348,30,

31,74,0,353,347,30,

31,73,0,352,344,29,

31,73,0,350,343,27,

31,73,0,348,344,27,

31,72,0,345,342,28,

31,71,0,344,339,27,

31,71,0,342,337,27,

31,71,0,339,335,30,

31,71,0,338,334,27,

30,71,0,335,332,29,

30,71,0,334,330,29,

31,71,0,332,327,29,

30,70,0,331,326,25,

30,70,0,329,324,28,

30,70,0,327,349,27,

30,69,0,327,347,30,

30,69,0,324,344,28,

29,69,0,323,343,29,

29,68,0,321,340,29,

29,68,0,319,338,25,

29,68,0,318,335,27,

29,67,0,316,335,28,

29,67,0,314,332,25,

28,67,0,312,330,25,

29,67,0,311,327,25,

28,67,0,311,348,25,

28,66,0,332,346,28,

28,66,0,329,344,28,

28,66,0,327,342,27,

28,65,0,325,339,24,

27,65,0,323,337,26,

27,65,0,321,335,24,

27,64,0,319,333,26,

27,64,0,318,332,24,

27,63,0,316,329,24,

27,63,0,314,327,25,

27,63,0,327,359,25,

27,63,0,430,359,26,

27,63,0,425,356,25,

26,62,0,422,354,22,

26,62,0,419,352,23,

26,62,0,415,350,23,

26,62,0,414,347,24,

26,62,0,411,345,23,

25,61,0,408,344,24,

25,61,0,406,341,26,

25,61,0,403,339,22,

25,61,0,401,337,24,

25,60,0,398,335,25,

25,60,0,396,334,25,

25,60,0,393,332,22,

25,59,0,391,330,22,

25,59,0,389,327,22,

25,59,0,386,326,23,

24,59,0,384,324,24,

24,59,0,381,323,25,

24,58,0,379,321,21,

24,58,0,377,319,24,

24,57,0,374,317,21,

24,57,0,372,319,24,

24,57,0,370,318,20,

24,57,0,368,316,20,

24,57,0,366,315,21,

24,56,0,364,313,23,

24,56,0,362,312,24,

24,56,0,359,310,24,

23,56,0,358,307,23,

23,56,0,355,306,19,

23,56,0,353,305,20,

23,55,0,352,303,19,

22,55,0,350,302,19,

22,55,0,348,300,19,

22,55,0,345,299,22,

22,54,0,344,297,19,

22,54,0,342,295,20,

22,54,0,339,294,20,

22,54,0,339,293,22,

22,53,0,336,291,19,

22,53,0,334,289,19,

21,53,0,333,287,18,

21,52,0,331,287,20,

21,52,0,329,326,19,

21,52,0,327,324,19,

21,52,0,326,321,22,

21,51,0,324,319,18,

21,51,0,322,318,21,

20,51,0,321,316,19,

21,51,0,319,314,18,

20,50,0,317,312,18,

20,50,0,316,311,20,

20,50,0,313,308,17,

20,50,0,312,306,18,

20,50,0,321,336,19,

19,50,0,391,337,19,

20,49,0,387,335,18,

19,49,0,384,333,17,

19,49,0,382,331,17,

19,49,0,379,329,20,

19,49,0,377,327,17,

19,48,0,375,325,19,

19,48,0,373,323,17,

19,48,0,370,321,17,

19,48,0,368,319,19,

19,48,0,366,348,22,

19,47,0,399,354,20,

18,47,0,396,352,16,

19,47,0,393,350,19,

18,47,0,390,348,15,

18,47,0,388,345,16,

18,46,0,385,344,17,

18,46,0,384,341,19,

18,46,0,380,339,16,

18,46,0,379,337,16,

18,45,0,376,335,16,

18,45,0,373,334,21,

25,45,0,371,337,21,

25,45,0,369,335,24,

25,44,0,367,333,23,

25,44,0,365,331,22,

24,44,0,363,329,25,

24,44,0,359,327,25,

24,44,0,358,325,25,

24,44,0,356,323,22,

24,43,0,354,322,22,

24,43,0,352,319,24,

24,43,0,350,318,21,

24,43,0,419,336,22,

24,43,0,460,334,22,

24,43,0,455,332,21,

24,42,0,453,330,21,

23,42,0,450,327,21,

23,42,0,446,326,24,

23,41,0,444,323,21,

23,41,0,440,322,22,

22,41,0,438,319,20,

22,41,0,435,318,20,

22,41,0,432,317,22,

22,41,0,429,316,20,

22,40,0,426,314,23,

22,39,0,423,312,23,

22,39,0,421,311,20,

21,39,0,418,309,21,

21,39,0,415,307,22,

21,39,0,413,305,21,

21,39,0,411,304,18,

21,39,0,408,302,19,

20,39,0,406,300,18,

20,39,0,403,298,19,

20,39,0,400,315,19,

20,39,0,399,312,18,

20,39,0,396,311,21,

20,38,0,393,307,17,

20,38,0,391,306,18,

19,38,0,388,304,20,

19,38,0,387,303,20,

19,38,0,384,301,20,

19,37,0,382,299,17,

19,37,0,380,298,17,

19,37,0,377,295,19,

19,37,0,376,323,23,

20,37,0,405,337,20,

19,36,0,404,335,20,

19,36,0,401,333,20,

19,36,0,399,331,17,

19,36,0,396,327,17,

19,36,0,393,327,18,

19,35,0,391,324,17,

19,35,0,388,323,19,

18,35,0,386,321,16,

18,35,0,384,319,17,

18,35,0,381,317,20,

19,35,0,464,355,20,

18,35,0,487,353,19,

18,34,0,485,351,15,

18,34,0,481,349,15,

18,34,0,477,346,15,

18,34,0,474,344,18,

18,34,0,471,343,17,

17,34,0,468,339,19,

17,34,0,465,338,19,

17,33,0,462,335,18,

17,33,0,459,334,17,

17,33,0,455,359,15,

17,33,0,453,357,14,

17,33,0,449,355,15,

17,33,0,447,352,14,

17,32,0,444,351,16,

16,32,0,441,348,17,

16,33,0,439,346,17,

16,32,0,435,344,16,

16,31,0,433,342,14,

16,31,0,430,340,16,

16,31,0,427,338,14,

16,31,0,425,344,17,

16,31,0,422,342,14,

15,31,0,419,339,17,

16,31,0,417,338,17,

15,31,0,415,335,17,

15,31,0,412,334,16,

15,31,0,409,332,14,

15,31,0,408,329,16,

18,30,0,405,327,15,

18,30,0,403,326,14,

18,30,0,399,324,16,

18,30,0,397,327,15,

17,30,0,398,326,18,

18,30,0,395,324,18,

17,30,0,393,322,15,

17,29,0,391,319,17,

17,29,0,388,319,17,

17,29,0,386,317,17,

17,29,0,384,315,14,

16,29,0,382,313,17,

16,29,0,379,312,15,

17,28,0,377,310,18,

16,29,0,375,326,21,

25,28,0,404,335,22,

25,28,0,402,332,24,

24,28,0,399,331,21,

24,28,0,396,327,24,

24,28,0,393,327,24,

24,28,0,391,324,21,

24,28,0,389,323,24,

24,28,0,386,321,21,

23,27,0,384,319,21,

23,27,0,382,317,24,

23,27,0,379,316,24,

23,27,0,380,318,24,

23,27,0,384,316,22,

22,27,0,381,314,22,

23,26,0,379,313,19,

22,26,0,376,311,22,

22,26,0,374,309,19,

22,39,0,371,307,20,

22,39,0,370,306,21,

22,38,0,368,304,19,

21,38,0,366,302,21,

21,38,0,364,301,21,

21,38,0,361,338,19,

21,38,0,359,335,21,

21,37,0,358,333,19,

20,37,0,356,331,21,

20,36,0,354,329,19,

20,36,0,352,327,22,

20,37,0,351,325,22,

20,36,0,348,323,18,

20,36,0,347,321,19,

20,35,0,345,319,20,

19,35,0,344,318,20,

24,35,0,342,327,34,

53,35,0,339,327,44,

53,35,0,338,324,44,

51,35,0,335,322,46,

51,34,0,334,319,48,

51,34,0,332,318,49,

51,35,0,331,316,45,

51,35,0,329,315,47,

50,35,0,327,313,45,

49,34,0,326,311,44,

50,34,0,323,310,44,

