
107,121,0,227,219,0,

106,121,0,226,217,0,

106,120,0,225,216,0,

105,120,0,224,215,0,

105,119,0,223,214,0,

103,118,0,221,212,0,

103,117,0,220,211,0,

103,117,0,259,210,0,

103,116,0,255,209,0,

102,115,0,254,207,0,

101,115,0,253,207,0,

101,114,0,252,206,0,

101,135,0,250,205,0,

100,133,0,249,204,0,

99,132,0,248,203,0,

99,131,0,246,201,0,

98,131,0,244,199,0,

97,130,0,243,199,0,

97,129,0,267,198,0,

96,129,0,265,197,0,

96,128,0,263,196,0,

96,127,0,263,195,0,

96,127,0,261,195,0,

109,133,0,259,193,0,

157,140,0,258,192,0,

155,140,0,255,192,0,

155,139,0,255,191,0,

153,138,0,253,189,0,

152,137,0,252,189,0,

152,135,0,250,188,0,

150,135,0,249,186,0,

150,135,0,248,186,0,

148,134,0,246,185,0,

147,133,0,245,184,0,

147,201,0,243,183,0,

146,198,0,242,182,0,

145,197,0,240,181,0,

144,195,0,240,180,0,

143,194,0,238,179,0,

143,193,0,237,179,0,

142,192,0,235,177,0,

141,191,0,234,176,0,

141,190,0,233,176,0,

140,188,0,231,175,0,

139,187,0,230,174,0,

138,186,0,230,173,0,

137,185,0,228,172,0,

137,184,0,227,172,0,

135,184,0,226,171,0,

135,182,0,224,169,0,

135,181,0,240,169,0,

134,180,0,263,167,0,

133,179,0,263,167,0,

133,178,0,261,167,0,

131,177,0,259,166,0,

131,176,0,258,165,0,

131,176,0,255,164,0,

130,175,0,255,163,0,

129,173,0,253,162,0,

128,172,0,252,161,0,

127,172,0,250,161,0,

127,171,0,249,159,0,

126,169,0,248,159,0,

125,169,0,246,158,0,

125,167,0,245,157,0,

124,167,0,243,156,0,

124,166,0,242,156,0,

123,165,0,241,155,0,

123,164,0,239,155,0,

122,163,0,238,154,0,

121,163,0,237,153,0,

121,162,0,236,152,0,

120,161,0,234,152,0,

120,159,0,233,151,0,

119,159,0,231,150,0,

118,158,0,231,149,0,

117,158,0,229,149,0,

117,157,0,228,148,0,

116,156,0,227,147,0,

115,155,0,226,147,0,

115,154,0,224,147,0,

115,154,0,223,146,0,

114,153,0,222,146,0,

113,152,0,261,145,0,

113,152,0,259,144,0,

112,151,0,258,143,0,

112,150,0,255,142,0,

111,149,0,255,142,0,

110,148,0,253,141,0,

110,147,0,252,141,0,

110,146,0,250,140,0,

109,146,0,249,140,0,

108,145,0,248,139,0,

108,144,0,278,138,0,

107,143,0,275,137,0,

107,143,0,274,137,0,

106,142,0,272,135,0,

105,141,0,271,135,0,

105,141,0,269,135,0,

105,140,0,268,134,0,

103,139,0,265,134,0,

103,139,0,263,133,0,

103,137,0,263,132,0,

103,137,0,261,131,0,

102,135,0,282,131,0,

101,135,0,280,130,0,

101,135,0,278,130,0,

100,135,0,277,129,0,

99,134,0,275,129,0,

99,133,0,273,127,0,

99,132,0,271,127,0,

99,132,0,270,127,0,

98,131,0,269,126,0,

98,131,0,267,126,0,

97,130,0,266,125,0,

97,129,0,267,125,0,

96,129,0,265,124,0,

96,128,0,263,123,0,

95,127,0,263,123,0,

94,127,0,261,122,0,

94,127,0,260,121,0,

94,127,0,259,121,0,

93,126,0,257,121,0,

93,126,0,255,120,0,

92,125,0,255,120,0,

92,124,0,253,119,0,

92,124,0,285,119,0,

91,123,0,283,118,0,

91,123,0,281,118,0,

90,122,0,280,117,0,

90,122,0,278,117,0,

89,121,0,276,116,0,

90,121,0,275,115,0,

89,120,0,273,115,0,

89,120,0,271,114,0,

88,119,0,270,114,0,

88,119,0,269,113,0,

88,118,0,268,113,0,

88,117,0,266,112,0,

87,117,0,265,112,0,

87,116,0,263,112,0,

86,116,0,262,111,0,

86,115,0,260,110,0,

85,115,0,259,110,0,

85,114,0,258,109,0,

84,114,0,255,109,0,

84,113,0,255,108,0,

83,113,0,253,108,0,

83,112,0,285,108,0,

83,112,0,316,107,0,

83,111,0,313,107,0,

82,111,0,312,106,0,

82,110,0,310,106,0,

81,110,0,307,105,0,

81,109,0,306,103,0,

80,109,0,304,103,0,

80,108,0,303,103,0,

79,108,0,300,103,0,

79,107,0,300,103,0,

79,107,0,297,102,0,

79,106,0,295,102,0,

78,105,0,294,101,0,

78,105,0,292,101,0,

77,105,0,291,101,0,

77,103,0,289,100,0,

77,105,0,287,99,0,

76,105,0,286,99,0,

76,105,0,285,99,0,

76,103,0,284,99,0,

75,103,0,282,98,0,

75,103,0,280,97,0,

75,103,0,280,97,0,

74,102,0,278,96,0,

74,102,0,276,96,0,

73,101,0,275,96,0,

73,100,0,273,96,0,

73,100,0,273,95,0,

71,113,0,271,95,0,

71,112,0,270,102,0,

71,111,0,268,123,0,

71,110,0,267,121,0,

71,110,0,265,121,0,

71,110,0,263,120,0,

70,109,0,263,120,0,

70,108,0,262,119,0,

70,108,0,260,118,0,

69,107,0,259,118,0,

69,106,0,258,117,0,

69,113,0,255,116,0,

68,112,0,255,117,0,

67,112,0,254,127,0,

68,111,0,252,127,0,

67,110,0,251,126,0,

67,110,0,249,125,0,

67,109,0,261,124,0,

66,109,0,259,124,0,

66,108,0,257,123,0,

66,107,0,256,122,0,

65,107,0,255,122,0,

69,192,0,253,121,0,

69,190,0,252,121,0,

69,188,0,251,147,0,

68,187,0,249,156,0,

67,186,0,248,156,0,

67,185,0,247,154,0,

67,184,0,245,153,0,

66,183,0,245,153,0,

66,182,0,243,152,0,

66,181,0,242,151,0,

66,179,0,241,150,0,

71,179,0,240,149,0,

73,178,0,238,148,0,

71,177,0,237,147,0,

71,176,0,236,147,0,

71,175,0,235,146,0,

71,174,0,233,146,0,

70,173,0,233,144,0,

71,172,0,231,144,0,

70,171,0,231,143,0,

70,170,0,230,142,0,

69,170,0,228,142,0,

69,168,0,227,141,0,

68,167,0,226,140,0,

68,167,0,225,139,0,

68,167,0,224,139,0,

67,165,0,223,138,0,

67,164,0,222,137,0,

67,163,0,223,137,0,

66,162,0,251,135,0,

66,162,0,249,135,0,

65,161,0,248,134,0,

65,159,0,247,134,0,

65,159,0,245,134,0,

67,158,0,243,132,0,

67,158,0,242,132,0,

67,157,0,241,185,0,

66,156,0,240,188,0,

66,156,0,239,187,0,

65,155,0,237,185,0,

65,154,0,236,184,0,

65,153,0,235,184,0,

65,153,0,234,182,0,

64,152,0,231,181,0,

64,151,0,231,180,0,

84,151,0,230,179,0,

83,149,0,229,178,0,

83,149,0,227,177,0,

82,147,0,227,176,0,

81,147,0,225,176,0,

81,146,0,224,174,0,

81,145,0,223,173,0,

80,145,0,222,173,0,

79,144,0,221,172,0,

79,143,0,220,171,0,

79,143,0,219,170,0,

93,143,0,217,169,0,

103,143,0,217,169,0,

103,142,0,216,167,0,

103,141,0,215,167,0,

102,141,0,214,166,0,

101,140,0,212,165,0,

101,139,0,261,164,0,

100,139,0,259,163,0,

100,137,0,258,163,0,

99,137,0,255,161,0,

99,135,0,255,160,0,

100,135,0,253,159,0,

99,135,0,252,159,0,

99,135,0,250,158,0,

99,135,0,249,157,0,

98,134,0,248,157,0,

97,133,0,246,156,0,

97,132,0,245,155,0,

96,131,0,243,154,0,

96,131,0,242,153,0,

95,130,0,241,153,0,

95,129,0,240,152,0,

94,138,0,238,152,0,

94,137,0,237,151,0,

94,136,0,236,150,0,

93,135,0,235,159,0,

92,135,0,233,158,0,

92,134,0,231,157,0,

92,134,0,245,156,0,

91,133,0,243,155,0,

91,132,0,242,154,0,

90,131,0,240,153,0,

89,131,0,239,152,0,

89,133,0,238,152,0,

88,135,0,236,151,0,

88,134,0,235,150,0,

88,133,0,234,150,0,

88,133,0,231,149,0,

87,132,0,231,148,0,

87,131,0,243,147,0,

86,130,0,243,146,0,

86,130,0,241,146,0,

85,129,0,240,145,0,

85,128,0,239,144,0,

84,127,0,237,143,0,

83,127,0,236,143,0,

83,126,0,235,143,0,

83,126,0,234,142,0,

82,125,0,231,141,0,

82,125,0,231,140,0,

81,124,0,230,140,0,

81,124,0,229,139,0,

80,123,0,227,138,0,

80,122,0,227,137,0,

79,121,0,225,137,0,

79,121,0,224,135,0,

79,146,0,223,135,0,

79,145,0,222,135,0,

78,144,0,221,135,0,

78,143,0,220,134,0,

78,143,0,219,133,0,

78,142,0,217,133,0,

77,141,0,216,131,0,

76,141,0,215,131,0,

76,140,0,215,131,0,

76,139,0,213,130,0,

75,139,0,211,129,0,

81,137,0,211,129,0,

82,137,0,210,128,0,

81,135,0,209,127,0,

80,135,0,207,127,0,

79,135,0,207,126,0,

79,134,0,206,126,0,

79,133,0,205,125,0,

78,133,0,204,124,0,

78,132,0,204,124,0,

78,131,0,203,123,0,

77,131,0,201,123,0,

77,133,0,199,123,0,

77,131,0,199,121,0,

76,131,0,198,121,0,

76,131,0,198,121,0,

75,130,0,197,120,0,

75,129,0,196,120,0,

75,128,0,231,119,0,

74,127,0,230,119,0,

74,127,0,229,118,0,

73,126,0,227,117,0,

73,126,0,226,116,0,

73,126,0,225,116,0,

79,131,0,224,115,0,

79,131,0,223,115,0,

78,130,0,221,116,0,

78,129,0,220,115,0,

77,128,0,219,115,0,

78,127,0,245,115,0,

76,127,0,244,114,0,

76,126,0,243,113,0,

76,126,0,241,113,0,

75,125,0,240,112,0,

75,124,0,239,112,0,

77,127,0,238,111,0,

77,127,0,236,119,0,

76,126,0,235,121,0,

76,125,0,233,120,0,

76,124,0,231,120,0,

75,124,0,231,120,0,

74,123,0,230,119,0,

74,123,0,229,118,0,

73,122,0,227,118,0,

73,121,0,226,117,0,

73,120,0,225,116,0,

73,130,0,224,116,0,

73,129,0,223,127,0,

71,128,0,222,158,0,

71,127,0,221,157,0,

71,127,0,219,156,0,

71,126,0,218,155,0,

71,126,0,224,153,0,

70,125,0,222,153,0,

70,124,0,221,152,0,

70,124,0,220,152,0,

69,123,0,219,151,0,

69,124,0,218,150,0,

68,123,0,216,149,0,

68,123,0,216,149,0,

68,122,0,215,148,0,

67,121,0,214,147,0,

67,121,0,212,146,0,

67,120,0,211,146,0,

66,120,0,210,145,0,

66,119,0,209,144,0,

66,118,0,207,143,0,

65,118,0,207,143,0,

65,118,0,206,142,0,

65,117,0,205,141,0,

64,116,0,204,141,0,

63,116,0,203,140,0,

63,115,0,202,139,0,

63,115,0,201,139,0,

63,115,0,199,137,0,

63,114,0,199,137,0,

62,113,0,198,135,0,

62,113,0,197,135,0,

62,112,0,196,135,0,

62,112,0,195,134,0,

63,121,0,194,134,0,

63,121,0,194,133,0,

62,120,0,193,133,0,

62,120,0,192,132,0,

62,119,0,191,131,0,

62,118,0,204,131,0,

61,118,0,203,129,0,

60,117,0,201,129,0,

60,116,0,199,128,0,

60,116,0,199,127,0,

60,115,0,198,127,0,

66,116,0,197,127,0,

65,115,0,195,126,0,

65,115,0,195,125,0,

64,114,0,194,125,0,

63,113,0,193,124,0,

63,113,0,192,123,0,

63,112,0,269,123,0,

63,112,0,267,122,0,

62,111,0,265,121,0,

62,110,0,263,121,0,

62,110,0,262,121,0,

74,113,0,261,120,0,

73,112,0,259,120,0,

73,112,0,258,119,0,

72,111,0,257,118,0,

71,111,0,255,118,0,

71,110,0,253,117,0,

71,109,0,351,116,0,

70,109,0,347,115,0,

71,108,0,345,115,0,

70,108,0,342,115,0,

70,107,0,340,114,0,

69,113,0,338,114,0,

69,112,0,335,113,0,

69,111,0,334,113,0,

68,111,0,332,112,0,

67,110,0,330,112,0,

67,110,0,327,111,0,

67,109,0,326,110,0,

67,108,0,324,110,0,

66,108,0,322,110,0,

66,107,0,321,109,0,

66,107,0,319,108,0,

65,115,0,317,108,0,

65,115,0,315,107,0,

65,115,0,313,130,0,

64,114,0,312,151,0,

63,113,0,310,150,0,

63,113,0,308,149,0,

63,112,0,307,148,0,

63,112,0,304,147,0,

63,111,0,304,146,0,

62,110,0,302,146,0,

62,110,0,300,145,0,

62,109,0,299,144,0,

62,121,0,297,143,0,

61,121,0,295,143,0,

61,120,0,294,142,0,

60,120,0,292,141,0,

60,119,0,291,141,0,

60,118,0,289,140,0,

60,118,0,287,139,0,

59,117,0,286,139,0,

59,116,0,285,137,0,

59,116,0,284,137,0,

58,115,0,282,135,0,

61,143,0,280,135,0,

61,143,0,280,135,0,

60,142,0,278,139,0,

60,141,0,276,139,0,

60,140,0,275,138,0,

60,139,0,273,137,0,

59,139,0,305,135,0,

59,138,0,304,135,0,

58,137,0,302,135,0,

58,135,0,300,134,0,

58,135,0,298,134,0,

57,135,0,295,133,0,

57,135,0,295,145,0,

57,134,0,293,175,0,

57,133,0,291,173,0,

56,132,0,290,172,0,

56,131,0,288,171,0,

56,131,0,286,170,0,

56,130,0,285,169,0,

56,129,0,284,167,0,

55,129,0,282,167,0,

55,127,0,281,167,0,

55,127,0,280,166,0,

54,126,0,278,165,0,

54,126,0,276,163,0,

53,125,0,275,163,0,

54,125,0,273,162,0,

53,124,0,271,161,0,

53,123,0,270,160,0,

52,123,0,269,159,0,

52,122,0,268,159,0,

52,121,0,266,158,0,

51,121,0,265,157,0,

51,120,0,263,156,0,

51,120,0,262,156,0,

51,119,0,261,155,0,

51,118,0,260,154,0,

51,118,0,259,153,0,

51,117,0,257,152,0,

51,117,0,262,152,0,

50,116,0,260,151,0,

50,115,0,259,150,0,

50,115,0,258,149,0,

49,114,0,255,149,0,

51,114,0,255,147,0,

78,113,0,254,147,0,

77,113,0,252,146,0,

76,112,0,251,145,0,

76,112,0,249,145,0,

75,111,0,248,144,0,

75,111,0,248,143,0,

75,110,0,267,143,0,

75,109,0,266,142,0,

73,109,0,263,141,0,

73,108,0,263,141,0,

73,108,0,262,140,0,

74,115,0,260,139,0,

73,114,0,258,139,0,

73,114,0,257,138,0,

72,113,0,255,137,0,

71,112,0,254,137,0,

71,112,0,253,135,0,

71,111,0,268,135,0,

71,111,0,266,135,0,

71,110,0,263,134,0,

70,109,0,263,133,0,

70,108,0,262,133,0,

82,118,0,260,132,0,

82,117,0,259,131,0,

81,117,0,257,131,0,

80,116,0,255,130,0,

79,115,0,254,129,0,

79,115,0,253,129,0,

79,114,0,252,128,0,

79,113,0,250,127,0,

78,113,0,249,127,0,

78,112,0,248,126,0,

77,112,0,247,126,0,

87,113,0,245,125,0,

89,113,0,244,124,0,

89,112,0,243,124,0,

88,112,0,241,123,0,

88,111,0,241,123,0,

88,110,0,239,122,0,

88,110,0,248,121,0,

87,109,0,249,121,0,

86,109,0,248,121,0,

86,108,0,246,120,0,

85,108,0,245,120,0,

85,112,0,243,119,0,

85,112,0,242,118,0,

84,111,0,240,118,0,

83,111,0,240,117,0,

83,110,0,238,116,0,

83,109,0,237,115,0,

82,109,0,284,115,0,

82,108,0,315,115,0,

81,108,0,312,115,0,

81,107,0,310,113,0,

80,106,0,308,113,0,

80,107,0,307,113,0,

82,124,0,305,112,0,

81,123,0,303,113,0,

80,122,0,301,113,0,

80,121,0,299,112,0,

79,121,0,297,112,0,

79,120,0,295,111,0,

79,120,0,295,110,0,

79,119,0,292,110,0,

78,119,0,291,109,0,

78,117,0,289,109,0,

77,117,0,287,108,0,

77,116,0,286,108,0,

77,115,0,285,107,0,

76,115,0,284,112,0,

76,115,0,282,112,0,

76,114,0,281,112,0,

75,113,0,279,111,0,

75,112,0,278,110,0,

74,112,0,275,110,0,

74,112,0,274,109,0,

73,111,0,273,109,0,

73,110,0,271,108,0,

75,137,0,271,107,0,

74,135,0,269,107,0,

74,135,0,267,106,0,

73,135,0,266,105,0,

73,134,0,263,105,0,

73,133,0,263,105,0,

71,132,0,262,103,0,

71,131,0,261,103,0,

71,131,0,259,103,0,

71,130,0,258,103,0,

71,129,0,257,102,0,

71,129,0,255,102,0,

70,127,0,254,103,0,

70,127,0,252,103,0,

69,126,0,251,106,0,

69,126,0,250,105,0,

68,125,0,248,103,0,

68,124,0,248,103,0,

68,124,0,246,103,0,

67,123,0,245,103,0,

67,123,0,244,102,0,

67,122,0,243,102,0,

75,135,0,242,101,0,

78,133,0,240,101,0,

78,132,0,239,100,0,

78,131,0,238,100,0,

77,131,0,237,99,0,

77,131,0,236,99,0,

76,130,0,235,99,0,

76,129,0,271,98,0,

75,128,0,269,97,0,

75,127,0,268,97,0,

75,127,0,266,97,0,

74,126,0,263,96,0,

73,128,0,263,96,0,

73,127,0,262,96,0,

73,127,0,260,96,0,

73,126,0,259,95,0,

71,126,0,257,94,0,

71,125,0,257,94,0,

71,124,0,255,94,0,

71,124,0,254,93,0,

71,123,0,253,92,0,

70,123,0,251,92,0,

70,122,0,250,92,0,

69,121,0,249,92,0,

76,122,0,248,91,0,

76,121,0,246,91,0,

75,121,0,245,90,0,

75,120,0,243,90,0,

74,120,0,242,89,0,

74,119,0,241,89,0,

73,119,0,246,89,0,

73,118,0,244,88,0,

73,117,0,243,88,0,

71,117,0,242,88,0,

71,116,0,240,87,0,

71,116,0,239,87,0,

71,125,0,238,87,0,

71,124,0,237,86,0,

71,123,0,236,86,0,

70,123,0,235,86,0,

70,122,0,233,85,0,

70,121,0,231,85,0,

69,121,0,231,84,0,

69,120,0,231,84,0,

68,120,0,230,83,0,

68,119,0,228,83,0,

67,118,0,227,83,0,

67,126,0,226,82,0,

67,125,0,225,83,0,

67,124,0,224,135,0,

67,124,0,224,156,0,

66,123,0,222,155,0,

65,122,0,221,153,0,

66,121,0,220,153,0,

65,121,0,219,152,0,

65,120,0,218,151,0,

64,120,0,217,150,0,

64,119,0,216,149,0,

63,120,0,215,148,0,

66,135,0,214,147,0,

65,134,0,213,147,0,

64,133,0,212,146,0,

64,132,0,211,145,0,

63,131,0,210,144,0,

63,131,0,213,143,0,

63,130,0,254,143,0,

63,129,0,253,142,0,

62,129,0,251,141,0,

62,127,0,249,140,0,

62,127,0,249,140,0,

81,128,0,247,139,0,

80,127,0,246,138,0,

80,127,0,244,138,0,

79,127,0,243,137,0,

79,126,0,242,135,0,

79,125,0,240,135,0,

79,124,0,239,135,0,

78,124,0,238,134,0,

78,123,0,237,134,0,

77,123,0,235,133,0,

77,121,0,234,132,0,

77,127,0,233,131,0,

77,127,0,231,131,0,

76,126,0,231,130,0,

76,125,0,230,130,0,

75,124,0,227,129,0,

75,123,0,227,128,0,

75,123,0,277,127,0,

74,122,0,275,127,0,

73,121,0,273,126,0,

73,121,0,271,126,0,

73,120,0,270,125,0,

74,124,0,268,125,0,

74,123,0,267,124,0,

73,122,0,265,123,0,

72,121,0,263,123,0,

73,121,0,262,122,0,

71,120,0,261,121,0,

71,120,0,259,121,0,

71,119,0,258,120,0,

71,118,0,256,120,0,

71,118,0,255,119,0,

70,117,0,254,118,0,

70,118,0,253,118,0,

71,119,0,251,125,0,

71,118,0,250,133,0,

71,117,0,248,132,0,

70,116,0,248,131,0,

70,115,0,246,130,0,

69,115,0,254,130,0,

69,115,0,252,129,0,

68,114,0,251,128,0,

68,113,0,249,127,0,

67,113,0,248,127,0,

67,112,0,246,126,0,

67,115,0,245,126,0,

67,115,0,244,125,0,

66,115,0,242,124,0,

66,114,0,241,124,0,

66,113,0,240,123,0,

65,113,0,239,123,0,

65,112,0,238,122,0,

65,111,0,237,121,0,

64,111,0,235,120,0,

63,110,0,234,120,0,

63,110,0,233,120,0,

101,124,0,231,119,0,

101,124,0,230,119,0,

100,123,0,230,118,0,

99,122,0,228,118,0,

99,121,0,227,118,0,

98,121,0,226,116,0,

98,120,0,225,115,0,

97,120,0,224,115,0,

96,119,0,223,115,0,

96,118,0,222,114,0,

95,118,0,220,114,0,

95,118,0,219,113,0,

94,117,0,219,112,0,

94,117,0,217,112,0,

93,116,0,216,111,0,

93,115,0,215,111,0,

92,115,0,214,110,0,

92,114,0,213,110,0,

91,113,0,211,109,0,

91,113,0,211,109,0,

90,113,0,210,108,0,

90,112,0,209,108,0,

89,112,0,207,107,0,

89,111,0,207,107,0,

89,110,0,206,106,0,

88,109,0,205,106,0,

88,109,0,204,105,0,

87,108,0,204,105,0,

87,108,0,246,103,0,

86,108,0,243,103,0,

86,107,0,242,103,0,

86,105,0,241,103,0,

85,152,0,239,102,0,

88,280,0,238,102,0,

87,287,0,237,101,0,

87,286,0,235,101,0,

86,284,0,234,117,0,

86,282,0,233,117,0,

85,280,0,231,116,0,

85,279,0,231,115,0,

85,277,0,229,115,0,

84,275,0,227,114,0,

83,273,0,227,113,0,

83,271,0,226,113,0,

96,271,0,224,112,0,

109,269,0,223,112,0,

108,268,0,222,125,0,

108,265,0,221,131,0,

107,263,0,220,130,0,

106,263,0,219,129,0,

105,262,0,217,128,0,

104,259,0,216,127,0,

103,259,0,215,127,0,

103,257,0,214,127,0,

103,255,0,213,126,0,

103,254,0,211,125,0,

102,252,0,211,124,0,

102,251,0,209,124,0,

101,250,0,207,123,0,

100,248,0,207,122,0,

100,247,0,206,121,0,

99,246,0,240,121,0,

98,244,0,239,120,0,

99,243,0,237,120,0,

98,242,0,236,119,0,

97,241,0,235,118,0,

149,240,0,233,118,0,

197,266,0,231,117,0,

195,263,0,231,116,0,

193,263,0,230,115,0,

192,261,0,228,115,0,

191,259,0,227,114,0,

190,258,0,271,114,0,

189,255,0,269,113,0,

188,255,0,268,113,0,

187,278,0,266,112,0,

185,323,0,263,112,0,

184,321,0,263,111,0,

184,319,0,261,111,0,

182,317,0,259,110,0,

182,315,0,258,109,0,

180,313,0,257,108,0,

179,312,0,255,108,0,

179,309,0,253,108,0,

177,307,0,252,107,0,

176,305,0,251,106,0,

175,304,0,249,105,0,

233,365,0,248,105,0,

294,505,0,247,105,0,

290,501,0,245,105,0,

287,497,0,244,105,0,

286,493,0,243,103,0,

284,489,0,241,103,0,

283,485,0,240,103,0,

281,482,0,239,103,0,

280,478,0,237,102,0,

277,475,0,236,101,0,

280,472,0,235,101,0,

399,509,0,233,100,0,

421,505,0,231,119,0,

417,501,0,231,134,0,

414,496,0,230,133,0,

411,492,0,229,132,0,

408,489,0,227,131,0,

406,486,0,304,131,0,

403,482,0,301,130,0,

399,478,0,299,129,0,

397,476,0,297,129,0,

395,472,0,295,127,0,

391,469,0,293,127,0,

390,466,0,291,133,0,

387,463,0,290,166,0,

385,460,0,287,165,0,

382,457,0,286,163,0,

380,453,0,285,163,0,

377,451,0,283,162,0,

375,448,0,281,160,0,

373,445,0,280,159,0,

370,441,0,279,159,0,

368,440,0,277,158,0,

366,436,0,275,157,0,

364,433,0,273,190,0,

361,431,0,272,210,0,

359,428,0,271,208,0,

357,425,0,269,207,0,

355,423,0,312,206,0,

353,419,0,309,204,0,

351,417,0,307,204,0,

349,415,0,305,203,0,

347,413,0,303,201,0,

345,410,0,301,199,0,

344,408,0,300,214,0,

341,406,0,297,212,0,

339,403,0,295,211,0,

337,399,0,295,209,0,

335,397,0,292,207,0,

333,396,0,291,207,0,

331,393,0,289,206,0,

329,390,0,287,205,0,

327,388,0,286,204,0,

326,387,0,284,202,0,

324,384,0,282,201,0,

322,382,0,280,199,0,

320,379,0,280,199,0,

319,377,0,278,198,0,

317,376,0,276,197,0,

315,373,0,281,195,0,

313,371,0,312,195,0,

312,369,0,310,194,0,

310,367,0,307,193,0,

308,365,0,305,192,0,

307,363,0,304,191,0,

305,359,1,302,189,0,

304,359,0,300,189,0,

302,356,0,298,188,0,

300,355,1,297,186,0,

299,352,0,295,185,0,

297,351,0,322,185,0,

295,349,0,319,184,0,

294,347,0,318,183,0,

293,345,0,316,182,0,

291,344,0,313,181,0,

289,341,0,312,180,0,

287,339,0,310,179,0,

287,337,1,307,178,0,

285,335,0,306,177,0,

284,334,0,304,176,0,

282,332,1,302,176,1,

281,330,1,324,175,0,

280,329,1,321,173,1,

278,327,0,319,173,0,

276,325,1,317,172,0,

275,323,1,316,171,1,

273,322,1,313,170,0,

272,319,1,312,169,1,

271,318,1,310,167,0,

269,317,1,308,167,1,

268,315,1,306,167,0,

267,313,1,304,166,0,

265,312,1,302,165,1,

263,310,0,301,164,1,

263,308,1,299,163,1,

262,307,1,297,163,1,

260,314,1,295,162,1,

270,406,1,294,161,1,

269,403,1,292,159,1,

267,399,1,291,159,1,

265,397,1,289,159,1,

263,395,1,287,158,1,

262,391,1,286,157,1,

261,390,1,289,156,1,

259,387,1,287,156,1,

258,384,1,286,155,1,

257,381,2,284,154,1,

255,379,1,282,153,1,

254,377,1,280,152,1,

253,374,1,280,152,2,

251,371,1,278,151,1,

250,370,1,276,150,2,

249,368,2,275,150,1,

248,365,1,273,149,1,

246,363,1,271,148,1,

245,359,2,270,147,1,

243,359,1,268,146,2,

243,355,1,267,145,1,

241,354,2,266,145,1,

240,352,2,263,144,1,

239,350,2,263,143,1,

238,348,2,261,143,2,

237,345,1,260,143,1,

236,344,1,259,142,1,

235,342,2,272,141,2,

233,339,2,270,141,1,

231,337,2,269,140,1,

231,335,1,267,139,2,

230,334,2,266,138,1,

229,332,1,263,137,1,

228,330,1,263,198,1,

227,327,1,261,196,1,

226,327,1,259,195,1,

225,324,1,258,194,1,

224,323,1,257,193,1,

223,321,1,255,192,1,

222,319,1,254,191,1,

220,318,1,252,189,1,

219,316,1,251,189,1,

218,313,1,250,187,1,

217,312,1,249,187,1,

216,311,1,248,185,1,

216,309,1,246,184,1,

215,307,1,245,184,1,

213,305,1,243,182,1,

212,304,1,242,181,1,

211,302,1,241,180,1,

210,300,1,240,179,1,

209,300,1,239,178,1,

208,297,1,238,178,1,

207,295,1,236,176,1,

207,295,1,235,176,1,

206,293,1,234,174,1,

204,291,1,231,174,1,

204,290,1,231,173,1,

203,289,1,231,172,1,

201,287,1,253,171,1,

199,286,1,251,170,0,

199,284,1,249,169,1,

199,283,1,248,167,1,

198,281,1,247,167,1,

197,280,1,245,167,1,

195,279,1,243,166,1,

195,278,1,243,165,1,

194,275,1,241,164,1,

193,275,1,240,163,1,

192,273,1,238,163,1,

192,271,1,237,161,1,

190,271,1,236,160,0,

190,269,0,234,159,1,

189,268,1,233,159,0,

188,267,1,231,158,1,

187,265,1,231,158,1,

186,263,1,230,157,1,

185,263,1,228,156,1,

185,261,1,227,156,0,

184,260,1,226,155,0,

183,259,0,225,154,1,

182,257,0,224,153,0,

181,255,1,223,153,1,

180,255,1,222,152,1,

179,254,1,221,151,0,

179,252,1,219,151,1,

178,251,1,218,150,0,

177,250,1,217,148,1,

176,248,1,216,147,1,

176,248,1,215,147,0,

175,246,0,214,146,0,

174,245,0,241,146,1,

173,244,1,239,145,0,

172,243,0,237,144,0,

171,242,1,236,143,1,

170,241,1,235,143,0,

171,239,1,233,142,0,

170,238,0,231,141,0,

169,237,1,231,141,0,

167,236,1,229,140,0,

167,235,1,228,140,1,

167,233,0,227,139,1,

166,231,0,285,138,0,

165,231,0,283,137,0,

164,231,1,281,135,1,

163,230,1,280,135,0,

163,228,0,277,135,0,

162,227,0,275,135,0,

162,226,0,274,144,0,

161,225,0,272,155,0,

160,224,0,271,155,0,

159,223,0,269,153,0,

159,222,1,268,152,0,

158,221,0,266,152,0,

157,220,0,265,151,0,

157,219,1,263,150,0,

156,218,1,262,149,1,

155,217,1,260,148,0,

154,216,0,259,147,0,

154,215,0,257,147,0,

153,214,0,255,146,1,

152,213,0,254,145,0,

152,211,0,253,145,0,

152,211,0,287,143,0,

151,210,0,286,143,0,

150,209,1,285,142,0,

149,207,0,283,141,0,

148,207,0,281,141,0,

147,206,0,280,140,0,

147,205,0,278,143,0,

146,204,0,276,145,0,

146,203,0,275,144,0,

145,202,0,273,143,0,

145,201,0,271,142,0,

143,201,0,277,142,0,

143,199,0,275,141,0,

143,198,0,273,140,0,

142,197,0,271,140,0,

141,196,0,270,139,0,

140,196,0,269,138,0,

140,195,0,268,137,0,

140,194,0,265,135,0,

139,193,0,263,135,0,

138,192,0,263,135,0,

137,192,0,262,134,0,

137,190,0,261,134,0,

135,189,0,259,133,0,

135,189,0,258,132,0,

135,188,0,255,131,0,

134,187,0,255,131,0,

134,186,0,254,131,0,

133,185,0,252,130,0,

133,184,0,251,129,0,

132,184,0,249,129,0,

131,183,0,248,127,0,

131,182,0,268,127,0,

131,181,0,266,127,0,

130,180,0,263,126,0,

129,179,0,263,126,1,

128,179,0,262,125,0,

128,208,0,259,124,0,

127,207,0,258,124,0,

127,205,0,257,123,0,

126,205,0,255,123,0,

126,203,0,254,122,0,

125,202,0,252,121,0,

125,201,0,251,121,0,

124,199,0,249,120,0,

124,199,0,248,120,0,

123,197,0,247,119,0,

123,196,0,246,118,0,

122,195,0,244,118,0,

121,194,0,243,117,0,

121,193,0,241,124,0,

120,192,0,240,123,0,

120,191,0,239,122,0,

120,190,0,240,122,0,

119,189,0,268,121,0,

118,188,0,267,120,0,

118,187,0,265,120,0,

117,185,0,263,120,0,

117,185,0,262,118,0,

116,184,0,260,118,0,

115,183,0,259,117,0,

115,182,0,257,117,0,

115,181,0,255,116,0,

114,180,0,254,115,0,

114,179,0,253,115,0,

113,179,0,252,114,0,

112,177,0,250,113,0,

112,176,0,249,113,0,

112,176,0,248,112,0,

112,175,0,246,112,0,

111,174,0,244,121,0,

110,174,0,243,181,0,

110,173,0,242,179,0,

110,172,0,241,178,0,

109,171,0,239,177,0,

108,170,0,238,176,0,

108,169,0,237,175,0,

108,167,0,235,174,0,

107,167,0,235,173,0,

106,167,0,233,172,0,

105,166,0,231,171,0,

105,166,0,231,170,0,

105,165,0,229,169,0,

105,164,0,227,169,0,

103,163,0,227,167,0,

103,163,0,226,167,0,

103,162,0,225,166,0,

103,161,0,224,165,0,

102,160,0,222,163,0,

102,159,0,222,163,0,

101,159,0,220,162,0,

101,158,0,220,161,0,

100,158,0,217,160,0,

99,157,0,217,159,0,

99,156,0,216,159,0,

99,156,0,215,158,0,

99,155,0,230,157,0,

98,154,0,263,156,0,

98,153,0,262,155,0,

97,153,0,260,155,0,

97,152,0,259,153,0,

97,152,0,257,153,0,

96,172,0,255,152,0,

96,171,0,254,152,0,

96,169,0,253,151,0,

95,167,0,252,150,0,

94,167,0,250,149,0,

94,167,0,249,148,0,

93,166,0,249,148,0,

93,165,0,248,147,0,

93,163,0,247,146,0,

92,163,0,245,146,0,

92,162,0,243,145,0,

92,161,0,243,144,0,

91,161,0,241,143,0,

91,159,0,240,216,0,

91,159,0,239,214,0,

90,158,0,238,211,0,

90,158,0,236,211,0,

89,156,0,235,209,0,

89,156,0,234,207,0,

89,155,0,231,207,0,

89,154,0,231,206,0,

88,153,0,230,205,0,

88,156,0,229,204,0,

88,156,0,227,203,0,

87,155,0,227,201,0,

87,153,0,226,199,0,

86,153,0,224,199,0,

86,152,0,224,198,0,

85,152,0,290,198,0,

85,151,0,287,196,0,

84,150,0,286,195,0,

84,150,0,284,194,0,

83,149,0,282,193,0,

98,148,0,280,193,0,

97,147,0,280,192,0,

97,147,0,278,190,0,

96,146,0,275,189,0,

96,145,0,274,188,0,

95,145,0,272,188,0,

95,143,0,284,187,0,

94,143,0,300,185,0,

93,143,0,297,185,0,

93,142,0,295,184,0,

92,142,0,294,183,0,

92,141,0,292,182,0,

92,141,0,291,181,0,

91,140,0,289,180,0,

90,140,0,287,179,0,

90,139,0,286,178,0,

89,138,0,284,177,0,

89,137,0,282,177,0,

89,137,0,297,176,0,

88,135,0,295,175,0,

88,135,0,293,174,0,

88,135,0,291,173,0,

87,135,0,290,172,0,

86,134,0,289,171,0,

86,134,0,287,171,0,

86,133,0,285,172,0,

85,133,0,284,171,0,

85,132,0,282,169,0,

84,131,0,281,169,0,

84,131,0,280,167,0,

83,130,0,278,167,0,

83,130,0,276,166,0,

83,129,0,275,166,0,

82,129,0,273,165,0,

82,133,0,271,164,0,

81,132,0,270,163,0,

81,131,0,269,163,0,

81,130,0,268,162,0,

80,130,0,266,161,0,

79,129,0,265,159,0,

79,129,0,263,159,0,

79,127,0,262,159,0,

79,127,0,260,158,0,

79,127,0,259,157,0,

78,126,0,258,156,0,

78,126,0,257,156,0,

78,125,0,255,155,0,

77,124,0,254,154,0,

77,124,0,253,153,0,

76,124,0,251,152,0,

76,123,0,250,152,0,

76,123,0,249,152,0,

76,122,0,248,150,0,

76,121,0,246,150,0,

75,121,0,245,149,0,

75,120,0,243,148,0,

75,120,0,243,147,0,

74,131,0,241,147,0,

77,131,0,240,146,0,

77,130,0,239,146,0,

76,129,0,238,145,0,

76,128,0,236,143,0,

75,127,0,236,143,0,

75,127,0,235,143,0,

75,126,0,233,142,0,

74,126,0,231,142,0,

74,125,0,231,141,0,

118,131,0,230,140,0,

124,130,0,228,140,0,

123,129,0,227,139,0,

122,129,0,226,138,0,

121,127,0,225,137,0,

121,127,0,224,137,0,

120,126,0,225,135,0,

120,125,0,227,135,0,

119,125,0,226,135,0,

118,124,0,224,134,0,

117,123,0,223,134,0,

117,123,0,222,133,0,

116,122,0,221,132,0,

115,121,0,220,132,0,

115,121,0,219,131,0,

114,120,0,217,131,0,

113,120,0,216,130,0,

113,119,0,218,129,0,

112,119,0,217,129,0,

112,118,0,216,128,0,

111,118,0,214,127,0,

111,246,0,214,127,0,

157,327,0,212,126,0,

155,324,0,211,126,0,

154,321,0,210,126,0,

153,319,0,209,125,0,

152,316,0,207,124,0,

152,315,0,207,124,0,

150,313,0,207,123,0,

150,311,0,206,122,0,

149,309,0,205,122,0,

147,307,0,204,121,0,

147,305,0,203,121,0,

190,304,0,203,120,0,

188,301,0,201,156,0,

187,300,0,199,170,0,

185,298,0,199,169,0,

184,295,0,199,167,0,

184,294,0,243,167,0,

182,293,0,309,166,0,

182,291,0,306,165,0,

180,289,0,304,163,0,

179,287,0,302,163,0,

179,286,0,300,161,0,

177,285,0,298,161,0,

176,283,0,295,159,0,

175,281,0,295,159,0,

174,280,0,293,158,0,

173,278,0,291,158,0,

172,277,0,307,156,0,

171,275,0,306,156,0,

171,274,0,304,155,0,

169,272,0,302,154,0,

169,271,0,300,153,0,

167,269,0,299,152,0,

167,268,0,297,173,0,

166,266,0,295,174,0,

165,265,0,293,173,0,

164,263,0,291,172,0,

163,262,0,290,170,0,

162,261,0,287,169,0,

161,259,0,287,167,0,

161,257,0,285,167,0,

159,255,0,283,166,0,

159,255,0,281,166,0,

158,254,0,280,165,0,

158,252,0,279,163,0,

157,251,0,277,163,0,

156,249,0,275,162,0,

155,248,0,274,161,0,

154,247,0,271,160,0,

153,246,0,271,159,0,

152,244,0,269,158,0,

152,243,0,268,158,0,

152,242,0,267,157,0,

151,240,0,265,156,0,

150,240,0,263,155,0,

149,238,0,262,156,0,

147,237,0,260,158,0,

147,235,0,259,157,0,

147,235,0,258,156,0,

146,233,0,255,155,0,

145,231,0,255,154,0,

144,231,0,254,153,0,

143,230,0,252,153,0,

143,229,0,251,152,0,

142,227,0,250,151,0,

142,226,0,248,150,0,

141,225,0,247,149,0,

140,224,0,246,149,0,

139,223,0,245,148,0,

139,222,0,243,147,0,

138,220,0,242,146,0,

137,220,0,241,145,0,

135,219,0,239,145,0,

135,217,0,238,143,0,

135,216,0,237,143,0,

135,216,0,236,143,0,

134,214,0,235,142,0,

133,213,0,233,141,0,

133,211,0,231,140,0,

132,211,0,231,140,0,

131,210,0,230,139,0,

130,209,0,228,138,0,

130,207,0,227,137,0,

129,207,0,226,137,0,

129,206,0,225,135,0,

127,205,0,224,135,0,

127,204,0,223,135,0,

127,203,0,222,134,0,

126,202,0,220,133,0,

125,199,0,220,133,0,

125,199,0,219,132,0,

124,199,0,218,131,0,

124,198,0,216,131,0,

123,197,0,216,130,0,

122,196,0,214,129,0,

122,195,0,213,128,0,

121,194,0,212,127,0,

120,193,0,211,127,0,

120,192,0,210,127,0,

119,191,0,209,126,0,

119,190,0,207,126,0,

118,190,0,207,125,0,

117,188,0,233,124,0,

117,187,0,231,124,0,

116,187,0,230,123,0,

115,186,0,228,122,0,

115,185,0,227,122,0,

115,184,0,226,121,0,

114,183,0,225,120,0,

114,182,0,223,120,0,

113,181,0,222,120,0,

112,180,0,221,119,0,

112,179,0,220,118,0,

111,179,0,253,118,0,

111,178,0,251,117,0,

110,177,0,249,116,0,

110,176,0,248,116,0,

109,176,0,247,115,0,

109,174,0,245,115,0,

108,173,0,244,115,0,

108,173,0,243,114,0,

107,172,0,241,113,0,

107,171,0,240,113,0,

106,170,0,238,112,0,

105,169,0,237,112,0,

105,167,0,236,111,0,

105,167,0,235,111,0,

103,167,0,233,110,0,

103,167,0,231,110,0,

103,166,0,230,109,0,

102,165,0,229,109,0,

102,164,0,228,108,0,

101,163,0,227,108,0,

101,163,0,225,107,0,

101,162,0,255,107,0,

100,161,0,253,106,0,

99,159,0,252,105,0,

99,159,0,250,105,0,

98,158,0,248,105,0,

98,158,0,247,103,0,

98,157,0,246,103,0,

97,157,0,244,103,0,

97,156,0,243,103,0,

96,155,0,242,102,0,

96,154,0,240,102,0,

96,154,0,239,101,0,

95,153,0,238,101,0,

95,152,0,237,100,0,

94,152,0,236,100,0,

94,151,0,234,99,0,

93,150,0,233,99,0,

93,150,0,231,99,0,

92,149,0,231,98,0,

92,148,0,230,98,0,

91,148,0,228,97,0,

91,147,0,227,97,0,

90,147,0,226,96,0,

90,146,0,225,96,0,

90,145,0,224,96,0,

89,145,0,223,95,0,

89,143,0,222,94,0,

88,143,0,220,94,0,

88,146,0,220,94,0,

88,148,0,218,94,0,

88,147,0,217,112,0,

87,147,0,216,122,0,

87,146,0,216,121,0,

86,145,0,214,121,0,

86,144,0,214,120,0,

85,143,0,213,120,0,

85,143,0,211,119,0,

85,142,0,211,118,0,

84,141,0,210,118,0,

83,141,0,209,117,0,

84,140,0,207,116,0,

83,140,0,207,139,0,

83,139,0,206,140,0,

83,139,0,204,140,0,

82,137,0,204,139,0,

82,137,0,216,139,0,

81,135,0,225,137,0,

81,135,0,224,137,0,

81,135,0,222,135,0,

80,135,0,221,135,0,

79,135,0,220,135,0,

79,134,0,219,134,0,

79,133,0,217,133,0,

79,132,0,216,149,0,

78,131,0,216,147,0,

78,131,0,214,147,0,

78,131,0,213,146,0,

78,130,0,227,145,0,

77,129,0,225,144,0,

77,129,0,224,143,0,

76,128,0,223,143,0,

76,127,0,222,142,0,

76,127,0,220,141,0,

75,127,0,219,140,0,

75,126,0,218,140,0,

75,126,0,216,139,0,

74,125,0,216,138,0,

74,124,0,215,138,0,

73,124,0,214,137,0,

73,123,0,212,135,0,

73,123,0,211,135,0,

71,122,0,211,135,0,

71,121,0,209,134,0,

71,125,0,209,133,0,

71,124,0,207,133,0,

71,123,0,206,132,0,

71,123,0,205,131,0,

71,122,0,204,131,0,

70,121,0,203,130,0,

70,121,0,234,129,0,

69,120,0,231,128,0,

70,120,0,231,128,0,

69,120,0,230,127,0,

69,119,0,228,126,0,

68,118,0,227,126,0,

68,118,0,226,126,0,

68,117,0,225,125,0,

67,117,0,223,124,0,

67,116,0,222,124,0,

67,115,0,221,123,0,

67,115,0,220,123,0,

67,115,0,219,121,0,

66,114,0,217,121,0,

66,113,0,216,120,0,

65,113,0,216,120,0,

67,113,0,214,120,0,

77,112,0,213,119,0,

76,112,0,211,118,0,

76,111,0,211,118,0,

76,111,0,210,118,0,

75,110,0,208,117,0,

75,110,0,224,116,0,

74,109,0,230,115,0,

73,109,0,229,115,0,

73,109,0,227,115,0,

73,108,0,227,114,0,

73,134,0,225,113,0,

71,146,0,224,113,0,

71,145,0,223,113,0,

71,144,0,221,179,0,

71,143,0,220,178,0,

71,142,0,219,177,0,

70,142,0,217,176,0,

70,141,0,221,175,0,

70,140,0,220,174,0,

69,139,0,219,173,0,

68,139,0,217,172,0,

68,138,0,216,171,0,

68,137,0,215,169,0,

67,135,0,214,169,0,

67,135,0,213,167,0,

67,135,0,211,167,0,

67,135,0,211,167,0,

66,134,0,209,166,0,

66,133,0,226,164,0,

65,132,0,225,163,0,

65,131,0,224,163,0,

65,131,0,222,162,0,

65,130,0,221,161,0,

64,129,0,220,161,0,

63,129,0,218,159,0,

63,127,0,217,159,0,

63,127,0,216,158,0,

63,127,0,215,157,0,

63,126,0,214,156,0,

62,126,0,222,155,0,

62,125,0,220,155,0,

62,124,0,219,154,0,

62,124,0,218,153,0,

61,123,0,217,153,0,

69,122,0,216,152,0,

68,122,0,215,151,0,

68,121,0,213,150,0,

67,121,0,212,150,0,

67,120,0,211,149,0,

67,120,0,210,148,0,

67,119,0,212,147,0,

66,118,0,211,146,0,

66,117,0,210,146,0,

65,117,0,209,145,0,

65,116,0,207,144,0,

65,115,0,207,143,0,

74,115,0,206,143,0,

74,115,0,205,142,0,

73,114,0,204,142,0,

73,113,0,203,141,0,

72,113,0,202,140,0,

71,112,0,201,140,0,

71,112,0,199,139,0,

71,111,0,199,138,0,

71,111,0,198,137,0,

70,110,0,197,137,0,

70,110,0,196,137,0,

70,110,0,195,135,0,

70,109,0,194,135,0,

70,108,0,194,135,0,

69,108,0,193,134,0,

69,108,0,192,133,0,

68,107,0,191,133,0,

68,106,0,253,132,0,

67,106,0,251,131,0,

67,105,0,249,131,0,

67,105,0,248,130,0,

66,105,0,247,129,0,

66,103,0,245,129,0,

65,103,0,244,127,0,

65,103,0,243,127,0,

65,103,0,241,127,0,

64,102,0,240,126,0,

64,102,0,239,126,0,

63,101,0,237,125,0,

63,101,0,236,124,0,

63,100,0,235,124,0,

63,100,0,233,124,0,

63,99,0,233,123,0,

67,112,0,231,123,0,

74,123,0,230,123,0,

73,122,0,229,145,0,

73,121,0,227,144,0,

73,120,0,227,143,0,

71,120,0,225,143,0,

71,119,0,265,142,0,

71,119,0,263,141,0,

71,118,0,262,140,0,

70,117,0,261,140,0,

70,116,0,259,139,0,

70,116,0,258,138,0,

70,115,0,255,137,0,

69,115,0,254,137,0,

69,114,0,253,146,0,

69,113,0,252,146,0,

68,112,0,251,145,0,

68,112,0,249,143,0,

67,112,0,248,143,0,

67,111,0,247,142,0,

67,110,0,245,142,0,

66,110,0,243,141,0,

66,110,0,243,141,0,

67,138,0,241,140,0,

66,137,0,240,139,0,

66,135,0,239,152,0,

65,135,0,238,152,0,

65,135,0,236,151,0,

65,134,0,236,150,0,

65,133,0,291,148,0,

64,132,0,289,148,0,

63,131,0,287,147,0,

63,131,0,286,146,0,

63,130,0,284,146,0,

67,130,0,282,145,0,

67,129,0,280,144,0,

67,127,0,280,143,0,

67,127,0,277,143,0,

66,127,0,277,141,0,

66,126,0,275,141,0,

66,125,0,273,140,0,

65,124,0,271,139,0,

64,124,0,270,139,0,

64,124,0,269,138,0,

63,123,0,267,137,0,

70,122,0,266,137,0,

70,121,0,263,135,0,

69,121,0,263,135,0,

69,120,0,262,135,0,

68,120,0,260,134,0,

67,119,0,259,133,0,

67,118,0,257,133,0,

67,118,0,255,132,0,

67,117,0,255,131,0,

66,117,0,253,131,0,

66,115,0,252,130,0,

66,115,0,251,130,0,

65,115,0,250,129,0,

65,114,0,248,151,0,

65,114,0,247,150,0,

64,113,0,246,149,0,

63,112,0,244,148,0,

63,112,0,243,147,0,

63,111,0,242,146,0,

62,111,0,240,145,0,

