
92,86,4,373,210,79,
115,85,4,371,209,92,
114,85,4,369,207,97,
113,85,4,366,207,94,
113,83,4,364,206,92,
112,83,4,362,205,94,
112,83,4,359,204,92,
111,83,4,364,204,93,
110,83,4,361,202,91,
110,82,4,359,201,90,
109,83,4,357,199,89,
109,88,4,355,199,95,
121,87,4,352,199,101,
121,86,4,350,197,99,
120,86,4,348,196,103,
120,85,4,346,195,100,
119,85,4,344,194,101,
118,85,4,344,193,97,
117,83,4,359,193,96,
116,83,4,358,192,97,
115,83,4,356,191,96,
115,102,4,354,190,98,
120,101,4,352,189,96,
118,101,4,349,188,99,
117,100,4,347,187,96,
117,99,4,345,186,99,
116,99,5,342,185,97,
115,98,4,341,184,95,
115,98,4,339,183,98,
114,97,4,337,182,95,
114,96,4,335,182,96,
113,101,4,334,181,93,
113,103,4,332,179,96,
112,102,4,330,179,93,
112,102,4,327,182,94,
111,101,5,326,181,94,
110,100,4,324,179,94,
110,100,4,322,179,92,
109,99,4,319,178,89,
109,99,4,319,177,88,
108,98,4,317,176,88,
108,97,4,316,176,91,
107,108,5,313,174,90,
107,107,4,312,173,89,
106,107,4,310,173,92,
105,106,5,308,221,94,
105,105,4,306,246,92,
105,105,4,305,243,86,
103,103,4,303,242,88,
103,103,4,303,241,85,
103,103,4,300,239,88,
102,102,4,300,238,88,
102,103,4,297,236,88,
109,103,4,295,235,91,
109,103,4,295,233,90,
109,102,4,293,231,90,
108,102,4,291,231,92,
108,101,4,289,229,88,
107,100,4,287,228,89,
106,100,4,286,227,88,
105,99,4,285,225,88,
105,99,4,284,224,88,
103,99,5,282,223,88,
103,99,4,280,222,88,
103,98,4,279,221,85,
103,98,4,278,220,86,
103,97,4,276,219,86,
102,96,4,275,217,87,
101,96,4,273,216,86,
101,96,4,271,215,88,
100,95,4,271,214,85,
99,95,4,269,213,86,
99,94,4,268,211,83,
99,94,4,267,211,83,
98,94,4,265,210,86,
98,93,4,263,208,85,
98,93,4,263,207,88,
98,92,4,261,207,83,
97,91,4,260,206,83,
97,91,4,259,205,84,
96,91,4,258,204,85,
96,91,4,256,203,83,
95,89,4,255,201,82,
95,89,5,254,201,82,
94,92,4,253,199,81,
95,102,4,252,199,83,
105,101,4,250,198,88,
105,101,4,249,196,92,
103,99,4,248,195,91,
103,99,4,247,195,91,
103,99,4,246,194,89,
103,98,4,244,193,89,
102,97,4,301,192,87,
101,97,4,299,191,85,
100,97,4,297,190,85,
100,99,4,295,189,84,
100,99,4,294,188,86,
99,98,4,292,187,85,
99,98,4,291,187,86,
98,97,4,289,234,83,
97,97,4,287,231,84,
97,96,3,286,231,81,
97,96,4,285,230,83,
96,95,4,324,227,79,
96,95,3,321,227,80,
95,94,4,319,225,81,
95,95,4,318,224,79,
94,96,4,316,223,85,
102,96,4,314,222,87,
101,96,4,312,221,85,
100,94,4,310,219,85,
100,94,4,309,218,85,
99,93,4,307,217,84,
99,93,4,305,216,86,
98,93,4,338,215,87,
98,92,4,335,214,86,
97,92,4,333,212,82,
97,91,4,331,211,82,
96,91,4,329,211,85,
102,90,4,327,209,84,
101,89,4,325,207,85,
100,89,4,323,207,85,
100,88,4,321,206,85,
99,88,4,319,206,87,
99,88,5,318,214,86,
99,88,4,369,212,85,
98,87,4,367,211,83,
97,86,4,364,210,83,
97,95,4,362,209,83,
97,96,4,359,207,83,
103,95,4,357,207,88,
103,94,4,355,206,84,
102,94,4,353,205,84,
102,94,4,350,204,83,
101,93,4,348,203,88,
101,92,4,347,201,85,
100,92,4,344,199,83,
99,91,4,342,199,85,
99,91,4,340,198,83,
98,94,4,339,197,86,
103,100,4,335,196,86,
105,99,4,335,195,88,
103,99,4,333,194,89,
103,98,4,331,193,89,
103,98,4,329,192,85,
103,97,4,327,191,88,
102,97,4,326,190,85,
102,96,4,326,189,85,
101,96,4,323,188,85,
101,95,4,321,187,85,
99,95,4,319,187,88,
99,95,4,318,186,88,
99,94,4,317,185,88,
98,93,4,315,184,87,
98,93,4,313,183,86,
97,93,4,312,182,84,
97,92,4,309,182,81,
96,92,4,314,181,79,
96,91,4,332,179,78,
96,90,4,329,179,79,
95,90,4,327,178,79,
94,89,4,325,177,83,
99,89,4,323,176,85,
103,89,4,322,176,88,
103,88,4,319,174,87,
103,88,4,318,174,88,
102,87,4,316,173,85,
102,87,4,314,172,86,
101,87,5,359,172,84,
100,86,4,366,171,87,
99,85,4,363,170,84,
99,85,5,361,169,86,
99,89,4,359,167,84,
103,88,4,356,167,83,
102,88,5,354,167,86,
102,88,4,352,167,85,
101,87,4,350,171,88,
100,86,4,348,171,85,
99,86,4,345,169,88,
99,86,4,355,167,88,
99,85,4,354,167,87,
98,84,4,352,167,88,
98,84,4,350,167,88,
97,89,4,347,166,85,
109,88,4,345,164,90,
108,88,4,344,163,92,
108,88,4,341,163,92,
107,87,4,339,162,95,
106,86,4,337,161,94,
106,86,4,335,160,94,
106,86,4,363,160,93,
103,85,4,359,159,90,
103,84,4,358,158,91,
103,88,4,355,158,90,
103,100,4,353,157,87,
103,99,4,351,156,88,
102,99,4,348,156,88,
102,98,4,347,155,88,
102,97,4,345,155,88,
101,96,4,342,155,87,
100,96,4,340,154,84,
99,96,4,339,153,87,
99,96,4,337,153,86,
99,95,4,335,152,83,
98,106,4,334,152,84,
98,108,4,331,150,83,
97,107,4,329,150,83,
96,107,4,327,150,85,
97,106,4,326,216,88,
96,105,4,323,215,85,
95,105,4,321,214,83,
95,103,4,319,211,83,
94,103,4,319,210,79,
94,103,4,317,210,79,
93,103,4,316,207,78,
93,102,4,313,207,78,
92,102,4,312,206,79,
92,101,4,310,205,79,
92,101,4,309,204,76,
91,100,4,307,203,78,
90,99,4,305,201,76,
90,99,4,304,199,74,
89,99,4,302,199,74,
89,98,4,301,199,74,
89,98,4,299,198,75,
88,97,4,297,195,73,
88,97,4,295,195,71,
88,96,4,295,194,74,
94,96,4,293,193,75,
93,96,4,291,192,75,
93,95,4,290,201,77,
92,95,4,287,199,79,
92,94,4,287,199,79,
91,94,4,286,198,78,
91,93,4,309,197,76,
90,92,4,307,196,76,
89,92,4,305,195,78,
89,93,4,304,194,77,
89,97,4,302,194,77,
91,97,4,300,192,76,
91,96,4,298,191,76,
90,96,4,297,190,75,
89,96,4,295,189,75,
89,95,4,294,189,74,
88,94,4,292,187,74,
88,94,4,341,187,74,
88,93,4,339,185,73,
88,93,4,335,185,71,
87,92,4,334,184,73,
86,103,4,333,183,77,
105,103,4,330,182,86,
103,102,4,327,181,85,
103,102,4,326,180,86,
103,101,4,324,179,85,
102,101,4,322,178,85,
102,100,4,319,177,88,
101,99,4,318,176,85,
101,99,4,317,176,88,
100,98,4,315,175,85,
99,101,4,313,174,87,
105,100,4,311,173,87,
105,99,4,309,172,88,
103,99,4,307,171,88,
103,98,5,305,170,90,
103,98,4,304,169,88,
102,97,4,302,167,84,
102,96,4,305,167,86,
101,96,4,303,167,82,
100,96,4,301,166,83,
100,95,4,300,165,83,
99,95,4,298,164,89,
117,95,4,295,163,96,
116,94,4,295,163,97,
115,94,5,293,162,99,
115,93,4,291,171,96,
114,92,4,290,170,98,
114,92,4,287,169,95,
113,92,4,323,167,97,
112,91,4,321,167,94,
112,90,4,319,166,95,
111,90,4,317,165,95,
111,96,4,315,165,94,
110,95,4,313,163,94,
109,95,4,312,163,97,
109,94,5,310,252,98,
108,93,4,307,254,94,
108,93,4,306,252,93,
108,92,4,304,250,92,
107,92,4,304,249,92,
106,91,4,301,248,92,
105,91,4,300,246,95,
105,96,5,298,244,92,
105,96,4,295,242,91,
103,95,4,295,242,93,
103,94,4,293,243,93,
103,94,4,291,289,93,
103,93,4,290,286,88,
102,93,4,287,285,92,
101,93,4,315,283,88,
100,92,4,313,281,88,
100,92,4,311,280,87,
99,91,4,308,278,86,
99,91,4,307,275,85,
98,90,4,305,275,84,
98,89,4,304,273,83,
98,89,4,302,271,83,
97,88,4,300,270,85,
96,88,4,299,269,81,
96,88,3,295,267,83,
96,87,4,295,265,81,
96,87,4,294,263,81,
95,86,3,292,263,84,
94,86,4,291,262,81,
94,92,4,289,260,81,
93,92,4,287,259,83,
93,91,3,286,258,80,
93,91,4,285,255,79,
92,91,4,284,349,83,
91,90,4,282,365,79,
91,89,4,280,361,77,
91,89,4,290,359,79,
91,89,4,380,358,76,
89,88,3,376,355,76,
89,88,4,373,353,77,
88,88,4,371,351,75,
107,87,4,369,348,89,
109,87,4,366,346,92,
109,86,4,365,344,91,
108,86,5,362,342,92,
108,86,4,359,340,91,
107,85,4,358,338,88,
106,85,4,355,336,90,
106,84,4,353,334,88,
105,83,4,352,332,87,
105,83,4,349,331,88,
103,106,4,347,327,91,
103,105,4,345,327,92,
103,103,4,343,324,88,
103,103,4,340,323,90,
102,103,4,339,320,88,
101,102,4,335,318,86,
101,102,4,334,317,85,
100,101,4,332,315,84,
99,100,4,331,313,88,
99,100,4,327,312,84,
99,99,4,327,310,87,
98,101,4,325,308,84,
98,100,4,323,307,86,
98,99,4,321,305,83,
97,99,4,319,303,85,
96,99,4,318,302,84,
96,98,4,316,300,84,
96,97,4,315,299,83,
95,97,4,313,297,83,
94,96,4,312,295,81,
94,96,4,310,294,83,
94,96,4,308,293,83,
94,99,4,306,291,82,
99,99,4,305,289,82,
99,98,4,304,288,84,
98,98,5,302,287,84,
97,98,4,300,285,85,
97,97,5,299,284,84,
96,96,4,297,282,83,
96,96,4,295,281,86,
96,96,4,295,280,82,
95,95,4,293,278,82,
94,95,4,291,277,85,
94,95,4,290,275,85,
113,95,4,287,274,95,
112,94,4,287,273,94,
112,93,4,286,271,95,
111,93,4,284,270,98,
111,92,4,283,269,96,
110,92,4,281,268,95,
109,91,4,280,266,97,
109,91,5,278,263,95,
108,90,5,277,263,93,
108,91,4,275,263,92,
107,95,4,274,261,91,
106,94,4,273,259,94,
105,94,4,271,258,93,
105,93,4,270,257,93,
103,93,4,268,255,89,
103,92,4,267,254,90,
103,92,5,265,253,89,
103,91,4,327,252,88,
103,90,4,326,251,91,
102,90,4,323,249,88,
101,93,4,321,248,91,
101,93,4,319,247,90,
100,92,4,317,245,88,
99,92,4,316,243,88,
99,91,4,314,295,90,
99,91,5,312,292,89,
98,90,4,310,291,88,
98,90,4,315,289,84,
97,89,4,348,287,86,
97,89,4,344,286,83,
96,88,4,343,284,83,
96,96,5,341,282,86,
96,112,4,338,281,84,
97,111,4,336,280,87,
96,110,4,335,278,83,
96,110,4,332,275,83,
95,109,4,330,275,82,
95,108,4,327,273,85,
94,108,4,332,271,82,
94,107,4,406,270,81,
93,107,4,402,268,83,
93,105,4,399,267,81,
92,106,4,397,265,82,
98,105,4,394,263,81,
97,105,4,391,263,85,
96,103,4,389,261,82,
96,103,4,387,259,83,
95,103,4,384,258,83,
95,102,4,382,257,82,
94,102,4,380,255,85,
94,101,4,377,254,84,
93,101,4,375,253,83,
93,100,4,373,251,80,
103,103,4,371,250,95,
120,103,4,368,249,99,
118,103,4,366,248,101,
117,103,5,363,307,103,
117,102,4,361,305,101,
116,101,4,359,303,100,
115,101,4,356,301,100,
114,99,4,354,299,97,
114,99,4,352,297,95,
113,99,4,350,295,96,
113,110,4,348,294,97,
112,109,4,346,291,99,
112,108,4,344,290,96,
111,108,4,342,287,98,
111,107,4,339,286,96,
110,107,4,337,284,95,
109,106,4,335,283,93,
109,105,4,334,281,96,
108,105,4,332,280,92,
108,103,5,330,278,95,
107,110,4,327,276,92,
107,109,5,326,275,93,
107,108,4,323,273,93,
106,107,4,322,271,95,
105,107,5,321,270,95,
105,106,4,319,269,93,
105,105,4,317,267,94,
103,105,5,316,265,91,
103,103,4,313,263,91,
103,103,4,312,263,91,
102,103,4,310,261,92,
103,103,4,308,260,96,
107,103,5,306,258,96,
106,102,4,305,257,95,
105,102,4,303,255,91,
105,101,4,301,254,93,
103,101,4,300,253,89,
103,100,4,325,251,89,
103,99,4,323,249,91,
103,99,5,321,249,91,
102,99,4,319,248,90,
102,99,4,317,246,95,
123,98,4,316,245,99,
122,97,4,313,243,102,
121,96,4,312,242,101,
120,96,4,310,241,103,
120,96,4,307,240,102,
119,95,4,305,239,102,
118,94,4,306,238,101,
117,94,5,304,236,101,
117,93,4,303,235,103,
116,103,4,301,233,103,
115,103,4,299,233,102,
115,103,4,297,231,99,
114,103,4,295,280,106,
114,102,4,294,321,99,
113,101,4,292,319,101,
113,101,4,291,317,97,
112,99,4,289,315,98,
112,99,4,287,312,97,
110,99,4,286,311,96,
110,105,4,285,308,96,
110,103,4,283,307,92,
109,103,4,281,304,92,
108,103,4,280,303,95,
108,103,4,278,301,95,
107,102,4,276,300,95,
107,101,4,275,297,91,
106,101,4,293,295,91,
105,100,4,291,294,90,
105,99,4,289,292,92,
103,99,4,287,291,92,
103,99,4,285,289,89,
105,98,4,283,287,92,
103,97,4,283,286,92,
103,97,4,280,284,89,
103,96,4,279,283,88,
102,96,4,277,281,88,
102,96,4,275,280,88,
102,95,4,351,278,88,
101,94,4,348,277,89,
100,94,5,346,275,85,
100,94,4,344,274,85,
100,94,4,342,272,88,
100,93,4,339,271,89,
99,93,4,337,269,86,
99,93,4,335,268,88,
99,92,4,333,267,86,
98,92,4,332,265,85,
98,92,4,329,263,86,
97,91,4,381,263,87,
96,90,4,379,261,85,
96,89,4,376,260,84,
96,94,4,374,259,86,
96,97,4,371,258,89,
105,97,4,369,255,94,
105,96,4,367,255,91,
103,96,4,364,253,90,
103,95,4,362,252,90,
103,95,4,359,251,89,
103,94,4,358,249,89,
102,94,5,355,248,89,
101,93,4,353,247,91,
100,92,4,351,246,88,
100,93,4,350,245,89,
103,92,4,348,243,87,
102,92,4,345,242,88,
101,92,5,344,241,88,
100,91,4,341,240,89,
100,90,4,339,238,88,
99,90,4,337,237,86,
99,89,5,338,236,86,
99,89,4,341,235,87,
98,89,4,339,234,88,
98,88,5,337,231,85,
97,97,4,335,231,86,
97,96,4,334,231,86,
97,96,4,332,230,83,
96,95,4,329,228,82,
96,94,4,327,227,85,
96,94,4,326,226,84,
96,93,4,324,225,84,
95,93,4,323,225,83,
94,92,5,321,223,84,
94,92,4,319,222,83,
93,91,4,317,222,79,
93,95,5,316,220,79,
93,94,4,314,220,81,
95,94,4,313,218,79,
94,93,4,311,217,81,
93,93,4,309,216,83,
93,92,4,307,216,82,
92,92,4,306,215,81,
92,91,4,304,213,78,
92,91,4,303,213,79,
91,90,4,301,211,78,
91,89,4,300,211,80,
90,91,4,298,210,77,
91,101,4,297,209,82,
99,100,4,295,207,86,
99,99,4,294,207,85,
98,99,4,292,206,86,
98,98,4,290,205,85,
97,98,4,289,204,83,
97,97,4,287,203,82,
96,97,4,306,202,82,
96,96,4,305,201,82,
95,96,4,303,199,82,
95,95,4,301,199,82,
94,96,4,300,199,85,
94,95,4,297,198,83,
94,95,4,295,197,83,
93,94,4,295,216,84,
93,93,4,293,229,83,
92,93,4,291,227,79,
92,92,4,289,226,79,
92,92,4,315,225,79,
91,92,4,312,224,79,
90,91,4,311,222,80,
90,91,4,309,222,81,
90,99,4,307,220,77,
91,99,4,305,219,77,
91,98,5,303,217,77,
90,97,4,302,281,81,
90,97,4,300,304,78,
89,96,4,298,302,77,
88,96,4,295,300,76,
88,95,4,306,298,75,
88,95,4,304,295,77,
88,94,4,302,295,77,
87,94,4,301,292,77,
86,93,4,299,291,74,
88,93,4,297,290,77,
88,92,4,295,287,75,
88,92,4,294,307,77,
88,91,4,293,387,75,
86,91,4,291,384,76,
86,90,4,289,381,73,
86,90,4,295,377,74,
86,89,4,332,376,73,
85,89,4,331,373,73,
85,88,4,327,371,73,
84,90,4,326,368,71,
88,89,4,324,366,79,
101,89,4,322,364,86,
100,89,4,319,362,85,
99,88,4,319,359,88,
99,88,4,317,358,89,
98,87,4,316,355,88,
98,86,4,313,354,86,
97,86,4,330,352,88,
96,86,4,327,350,84,
96,85,4,326,348,83,
96,86,4,325,345,83,
96,87,4,322,344,83,
98,86,4,320,342,83,
97,86,5,319,339,83,
97,85,4,317,338,83,
96,85,4,315,335,82,
96,84,4,313,335,83,
95,84,4,312,332,81,
95,83,4,312,330,81,
94,83,4,309,329,82,
94,83,4,307,327,80,
94,82,4,306,326,82,
93,101,4,304,323,82,
92,100,4,303,322,79,
92,99,4,301,321,81,
91,99,4,300,319,82,
91,99,5,297,316,81,
91,98,4,295,316,78,
89,98,4,295,313,78,
90,97,4,299,312,77,
89,96,4,297,310,76,
88,96,4,295,309,77,
88,96,4,294,307,79,
88,97,5,292,305,80,
93,96,4,290,304,82,
92,96,4,289,302,79,
92,96,4,287,301,81,
91,95,4,286,299,79,
91,94,4,285,298,80,
91,94,4,283,295,78,
90,93,4,313,295,80,
89,93,4,310,294,79,
89,92,4,309,292,79,
89,92,4,307,290,79,
88,96,5,305,289,77,
88,95,5,303,287,79,
88,95,4,301,286,76,
88,94,4,300,285,76,
87,93,4,298,284,76,
86,93,4,295,282,74,
86,92,5,295,281,75,
86,92,5,293,280,76,
85,92,4,291,278,73,
84,91,4,290,277,75,
84,91,4,287,275,74,
84,103,4,287,274,76,
118,103,4,285,272,91,
117,102,4,284,271,98,
117,102,4,281,269,98,
115,101,4,280,268,99,
115,100,4,279,267,101,
114,100,4,277,265,98,
114,99,4,329,263,97,
113,99,4,326,263,99,
112,98,4,324,262,99,
112,108,4,322,259,98,
111,107,4,319,259,99,
112,107,4,318,257,97,
110,105,4,316,255,96,
110,105,4,313,254,99,
109,103,4,312,253,98,
109,103,4,310,252,98,
109,103,4,344,251,93,
108,103,4,342,249,96,
107,102,4,339,248,93,
106,102,4,337,247,93,
105,108,4,335,245,96,
106,107,4,333,244,96,
105,107,4,331,243,95,
105,106,4,329,241,91,
103,105,4,326,240,90,
103,103,4,324,239,92,
103,103,4,323,238,88,
103,103,5,320,237,88,
102,103,4,318,236,88,
101,102,4,317,235,87,
101,109,4,315,233,92,
118,108,4,312,231,102,
117,107,4,311,231,100,
116,107,4,309,230,103,
115,106,4,307,229,103,
115,105,4,305,227,99,
114,105,4,316,227,99,
113,103,4,373,225,101,
113,103,4,370,224,101,
112,103,4,368,223,101,
113,103,4,365,222,99,
115,103,4,363,220,99,
114,102,4,359,220,102,
113,102,4,358,219,99,
113,101,4,355,217,101,
112,101,4,353,216,98,
111,99,4,351,216,97,
110,99,4,349,214,99,
110,99,5,347,214,96,
109,98,3,345,212,96,
109,98,4,344,211,94,
109,97,4,341,210,98,
108,97,4,338,209,95,
108,96,4,337,208,95,
107,96,4,335,225,94,
106,96,4,333,224,93,
106,95,4,331,223,96,
105,94,5,358,221,95,
105,94,4,374,220,93,
103,93,4,371,219,91,
103,93,5,369,217,91,
103,96,4,367,217,88,
103,95,4,365,216,88,
103,94,3,362,215,88,
102,94,4,359,213,87,
101,93,4,358,211,87,
101,92,4,355,211,87,
100,92,4,353,210,88,
99,92,4,352,209,85,
99,91,4,350,207,87,
98,91,4,347,207,82,
98,90,4,345,206,85,
98,96,4,344,205,85,
120,96,5,341,204,97,
120,96,4,339,203,101,
119,95,4,337,202,100,
118,94,4,335,201,99,
117,93,4,333,199,99,
116,93,4,331,199,101,
116,92,4,331,198,97,
115,92,4,329,197,99,
114,92,4,327,196,96,
114,94,4,325,195,99,
113,96,4,323,195,95,
112,95,4,321,194,96,
112,94,4,319,193,93,
112,93,4,318,192,92,
111,93,4,316,191,95,
110,92,4,315,190,92,
110,92,4,313,189,94,
109,91,4,371,189,90,
109,91,4,369,188,94,
108,90,4,366,187,91,
108,92,4,364,186,93,
107,92,5,361,185,91,
106,91,4,359,184,88,
106,91,4,357,184,89,
105,90,4,355,187,88,
105,89,4,352,185,89,
103,89,4,350,185,86,
103,88,4,348,184,90,
103,88,4,346,183,88,
103,88,4,344,182,88,
102,88,4,342,181,87,
101,89,4,339,180,85,
101,88,4,338,179,86,
101,88,4,335,178,85,
100,88,4,334,191,89,
99,87,4,332,207,85,
99,86,4,331,206,85,
99,86,4,327,205,87,
98,85,4,327,204,88,
98,85,4,324,203,86,
97,84,4,323,201,86,
97,85,4,321,199,86,
96,87,4,319,199,83,
96,86,4,318,198,83,
96,86,4,316,197,82,
95,86,4,315,196,83,
95,84,4,313,196,82,
94,85,4,311,195,85,
94,84,4,310,194,82,
93,83,5,308,193,83,
93,83,4,307,192,80,
92,82,4,305,191,82,
92,82,4,304,190,79,
92,99,4,302,189,81,
94,99,4,300,188,79,
93,98,4,299,187,83,
93,98,4,297,186,82,
93,97,5,295,209,83,
92,97,4,294,207,82,
92,96,4,293,206,79,
91,96,4,291,205,81,
91,95,4,289,204,78,
90,95,4,288,203,78,
89,94,4,287,202,79,
89,96,4,285,199,78,
96,98,5,284,199,82,
98,97,4,283,199,85,
97,97,5,281,259,87,
97,97,4,280,326,87,
96,96,4,278,323,86,
96,96,4,277,321,85,
95,94,4,275,319,81,
94,94,4,300,317,83,
94,94,4,297,315,80,
93,93,4,295,313,83,
93,107,4,294,312,82,
93,107,3,292,310,83,
97,105,4,290,307,83,
96,105,4,288,306,85,
96,103,4,287,304,83,
96,103,4,285,302,83,
95,103,4,284,301,79,
94,103,4,317,299,79,
94,102,4,358,297,83,
93,102,4,355,295,84,
92,101,4,353,294,85,
92,107,4,351,292,81,
93,106,4,349,290,80,
93,105,4,346,289,79,
93,105,4,344,287,78,
92,104,4,342,286,80,
92,103,4,340,284,78,
91,103,4,338,283,80,
91,103,4,335,281,79,
90,102,4,334,280,79,
89,102,4,332,278,78,
89,101,4,331,276,76,
89,114,4,327,275,76,
97,113,4,327,273,82,
96,113,4,325,271,80,
96,112,4,323,270,83,
95,112,4,321,270,82,
94,111,4,319,268,81,
94,110,4,317,266,79,
93,110,4,316,265,79,
93,109,4,313,263,78,
92,108,4,312,262,78,
92,108,4,310,261,80,
92,109,4,308,259,79,
92,108,4,307,258,79,
92,108,4,305,257,79,
91,107,4,304,255,80,
90,107,4,302,254,80,
90,106,4,300,252,81,
89,105,4,298,251,79,
89,105,4,299,250,77,
88,103,4,297,249,76,
88,103,4,295,248,76,
88,103,5,294,247,75,
88,103,4,292,245,78,
87,102,4,291,243,75,
86,102,4,289,243,78,
86,101,4,287,250,77,
85,100,4,286,249,75,
85,99,4,284,247,74,
84,99,4,313,246,74,
84,99,4,355,244,71,
83,98,4,353,243,71,
83,98,4,351,242,70,
83,100,5,349,240,70,
83,99,4,347,240,71,
82,98,4,344,238,69,
81,98,4,343,273,73,
81,97,4,339,295,68,
81,97,4,338,294,69,
80,97,4,335,292,67,
80,96,4,335,291,69,
80,96,4,349,289,66,
79,95,4,347,287,69,
79,94,4,345,286,69,
79,99,4,343,285,67,
79,99,4,341,282,70,
83,99,4,338,281,71,
82,99,4,336,280,69,
82,98,4,335,278,69,
81,97,4,332,276,69,
81,97,4,331,275,70,
80,96,4,329,273,70,
80,96,4,327,272,71,
79,95,4,326,271,71,
79,95,4,323,269,71,
79,94,4,322,268,70,
80,95,4,319,267,70,
84,95,4,318,265,73,
83,94,4,316,263,71,
83,94,4,315,262,71,
83,93,4,313,260,69,
82,93,4,312,259,70,
82,92,4,310,258,71,
81,92,4,332,257,71,
81,91,4,330,255,68,
80,91,4,327,254,68,
80,90,5,327,253,68,
82,134,4,324,252,71,
103,133,4,322,250,82,
103,132,4,319,249,89,
102,131,4,318,248,87,
101,131,4,316,246,89,
100,130,4,314,245,87,
99,129,4,312,243,85,
99,128,4,323,242,86,
99,127,4,322,241,85,
98,127,4,319,240,85,
98,126,4,318,239,89,
117,125,4,316,237,99,
120,124,4,313,236,101,
119,124,5,312,235,100,
118,124,4,310,233,101,
117,123,4,307,231,102,
116,121,4,306,231,100,
115,121,4,327,230,99,
115,120,4,326,228,98,
114,120,4,323,227,97,
114,120,4,322,226,97,
113,118,4,319,225,99,
120,118,4,318,224,103,
120,117,4,316,222,103,
119,116,4,313,221,103,
118,115,4,312,220,100,
117,115,4,310,219,102,
117,114,4,308,218,102,
115,114,4,305,217,98,
115,113,4,304,216,98,
115,127,4,303,214,98,
114,126,4,300,214,97,
113,125,4,299,213,98,
112,125,4,297,211,98,
112,124,4,295,211,98,
111,124,4,294,209,95,
110,123,4,291,208,94,
110,122,4,323,207,93,
110,121,4,322,206,93,
109,120,4,319,205,93,
108,146,5,317,205,97,
114,167,4,316,204,103,
122,165,4,313,202,103,
121,165,4,312,224,106,
120,163,5,310,350,106,
120,162,4,307,345,103,
119,161,4,305,342,105,
118,159,4,312,339,102,
117,159,4,310,337,103,
117,158,4,307,335,103,
116,167,4,305,333,103,
118,167,4,303,331,118,
151,166,4,301,327,126,
149,165,4,300,327,128,
147,164,4,297,324,130,
147,163,4,295,322,130,
146,161,3,294,319,129,
145,161,5,295,318,125,
144,159,4,293,316,124,
143,159,4,291,314,126,
143,158,4,289,312,124,
160,157,4,287,310,135,
159,156,4,286,308,137,
158,155,4,284,306,137,
157,154,4,283,305,135,
156,153,4,281,302,138,
155,152,4,280,301,135,
154,152,5,297,299,131,
153,151,4,295,297,130,
152,150,4,294,295,132,
152,159,4,291,294,129,
152,159,4,290,291,130,
151,158,4,287,290,130,
151,157,4,286,288,129,
150,156,4,284,287,127,
148,155,4,283,285,131,
147,154,4,281,283,130,
147,153,5,280,281,126,
146,152,4,278,280,127,
145,152,5,276,278,125,
144,151,4,274,277,121,
145,150,4,272,275,121,
144,149,4,271,274,119,
143,147,4,270,273,118,
142,147,4,268,271,120,
141,146,4,267,269,117,
141,145,4,310,268,117,
140,145,4,344,266,116,
139,143,4,340,265,119,
139,224,5,339,263,132,
179,270,4,335,262,145,
178,268,4,333,260,146,
177,266,4,331,259,145,
176,263,4,329,257,145,
175,263,4,327,255,147,
174,261,4,325,254,143,
172,259,4,323,253,143,
171,257,4,321,252,145,
170,255,4,319,251,146,
169,254,5,317,249,151,
188,254,4,315,248,154,
186,252,4,312,247,158,
185,251,4,311,245,153,
184,249,4,309,243,152,
183,248,4,307,243,156,
181,247,4,305,241,153,
181,245,4,303,240,152,
179,243,4,301,238,152,
178,242,4,300,237,152,
177,263,4,298,236,149,
242,262,5,295,235,192,
252,259,4,294,233,203,
250,258,5,292,231,201,
248,255,4,291,231,201,
247,254,4,289,230,201,
245,253,4,287,229,199,
243,251,4,327,227,199,
241,249,4,326,226,198,
240,248,4,323,225,195,
239,306,4,322,224,195,
238,320,4,319,223,192,
236,318,4,317,221,192,
235,315,4,315,220,193,
231,313,4,313,219,195,
231,311,4,311,218,194,
230,309,4,309,217,192,
229,307,4,316,216,189,
227,305,4,313,215,190,
227,303,4,312,214,188,
225,301,5,310,212,193,
249,299,4,307,211,207,
248,297,4,306,285,210,
246,295,4,304,333,206,
244,294,5,302,330,206,
243,291,4,300,327,206,
241,290,4,312,325,203,
240,287,4,309,323,204,
239,286,4,307,321,206,
237,358,4,305,319,203,
236,354,4,303,316,202,
234,352,4,301,314,202,
233,349,4,299,312,198,
231,347,4,297,311,199,
230,344,4,295,309,198,
229,342,4,294,307,195,
227,340,4,361,304,194,
226,337,4,363,302,194,
225,335,5,361,302,197,
224,334,5,359,300,206,
249,331,5,355,297,210,
248,329,5,353,295,211,
246,327,5,351,294,207,
244,326,5,348,292,211,
243,323,5,346,291,207,
241,321,5,344,289,207,
240,319,5,342,287,208,
239,317,5,339,286,204,
237,315,5,337,284,206,
236,313,5,335,282,205,
234,311,6,333,281,201,
233,309,6,331,280,199,
231,307,6,329,359,201,
231,305,6,327,373,199,
229,304,6,324,370,195,
227,302,7,323,368,196,
226,300,7,321,364,196,
225,298,7,319,361,192,
224,295,7,318,359,191,
223,295,7,316,357,189,
221,293,7,313,355,189,
220,291,7,312,352,189,
219,290,7,310,350,189,
217,287,7,307,348,185,
216,287,7,306,345,184,
215,285,7,304,343,183,
214,284,7,308,340,184,
213,281,7,306,339,182,
211,280,7,305,335,183,
210,278,7,302,335,188,
293,277,8,300,332,231,
289,275,9,299,330,241,
287,274,7,295,327,243,
285,271,8,295,327,238,
283,271,7,294,324,237,
281,269,9,323,322,237,
280,268,9,334,319,234,
278,266,9,332,318,233,
276,263,9,329,316,231,
275,263,9,327,314,233,
273,261,9,325,312,236,
271,260,9,323,311,233,
270,259,9,321,395,234,
268,258,9,319,390,226,
266,255,9,317,387,225,
265,255,9,366,384,227,
263,253,9,364,381,223,
262,252,9,361,378,225,
259,251,9,359,376,224,
259,318,9,356,373,222,
257,315,9,353,371,224,
255,313,9,351,368,219,
254,311,9,348,366,214,
252,309,9,347,364,215,
251,307,9,344,361,212,
249,305,9,355,359,214,
248,302,9,353,355,210,
247,300,9,350,354,211,
245,299,9,348,352,210,
244,295,9,345,349,207,
243,294,9,343,347,206,
241,293,9,340,345,205,
240,291,9,339,343,204,
238,289,9,336,341,204,
237,287,9,335,339,201,
236,286,9,359,335,202,
234,284,9,357,334,198,
233,282,9,355,332,199,
231,280,9,352,330,194,
231,279,9,350,327,192,
229,277,9,347,326,192,
228,275,9,345,324,192,
227,274,9,342,322,191,
225,272,9,340,319,196,
224,271,9,338,319,194,
223,269,9,337,316,195,
221,268,8,335,314,193,
220,266,9,333,312,190,
220,263,8,332,311,191,
218,263,7,329,309,190,
217,262,7,327,307,190,
216,259,8,325,305,188,
215,259,8,323,304,187,
214,257,8,321,302,188,
212,255,9,333,300,184,
211,254,7,344,298,183,
210,252,7,341,295,185,
209,251,8,339,295,182,
207,249,8,336,294,184,
207,248,8,334,291,184,
206,247,7,332,290,184,
205,246,7,329,289,179,
204,244,7,327,287,178,
202,243,7,325,285,177,
201,242,7,331,284,176,
199,240,7,327,282,176,
199,239,7,327,280,177,
199,238,7,324,279,174,
198,237,7,323,277,174,
196,235,7,320,276,174,
195,234,7,318,274,172,
195,233,7,316,326,167,
193,231,7,314,323,167,
192,231,7,312,321,166,
192,230,7,382,319,166,
190,227,7,378,316,167,
189,227,7,375,314,165,
188,225,7,372,312,161,
187,224,7,370,311,163,
186,223,7,367,308,163,
185,222,7,365,307,159,
184,221,7,362,304,156,
184,220,7,359,303,156,
183,219,7,358,301,155,
182,218,7,427,299,156,
181,217,7,423,295,158,
179,215,7,419,295,157,
179,219,7,415,293,155,
178,218,7,413,291,154,
177,217,7,411,290,157,
176,216,7,407,287,153,
175,214,7,404,287,152,
174,213,7,401,284,153,
173,212,7,399,283,152,
172,211,7,396,281,152,
172,210,7,393,279,152,
171,209,7,391,278,151,
170,207,7,388,276,148,
169,207,7,385,274,148,
167,205,7,384,273,147,
167,204,7,380,271,143,
167,204,7,377,270,143,
166,203,7,376,269,142,
165,201,7,381,268,141,
164,199,7,391,266,143,
163,199,7,389,263,141,
163,198,7,387,263,141,
161,197,7,384,261,140,
161,196,7,381,259,142,
159,195,7,379,259,142,
159,194,7,376,257,138,
158,193,7,373,255,137,
158,192,7,370,254,135,
157,192,7,368,253,135,
156,191,7,366,252,137,
156,189,7,363,250,135,
154,188,6,361,248,134,
153,187,6,359,248,135,
152,186,6,356,246,135,
152,185,6,354,245,135,
151,184,6,352,243,130,
150,184,6,349,242,133,
149,183,6,348,241,131,
149,182,6,396,240,129,
148,181,6,393,238,133,
147,179,6,390,237,129,
147,179,6,387,236,128,
146,178,6,385,235,129,
145,177,6,382,233,129,
144,176,6,380,231,127,
143,175,6,376,231,126,
143,175,6,374,230,127,
143,174,6,371,229,124,
142,173,6,369,227,126,
141,172,6,366,226,125,
140,171,6,364,225,120,
140,170,6,361,224,119,
139,169,6,359,223,122,
138,167,6,358,222,120,
137,167,6,355,239,122,
137,167,6,352,370,124,
135,166,6,350,376,123,
135,165,6,348,372,120,
135,164,6,364,369,121,
134,163,5,361,368,121,
133,163,6,359,364,119,
133,162,5,356,361,118,
135,161,6,355,359,120,
134,160,6,352,357,117,
133,159,6,349,354,117,
132,159,5,347,352,118,
131,158,5,345,350,119,
131,157,6,345,348,115,
130,157,5,347,345,117,
129,156,5,344,344,115,
129,155,5,342,340,112,
139,179,5,340,338,120,
138,177,5,338,335,123,
137,176,5,335,334,123,
135,175,5,334,332,121,
135,174,5,332,330,121,
135,173,5,329,327,120,
134,172,5,332,326,119,
133,171,5,329,324,116,
132,170,5,327,322,117,
131,169,5,326,319,115,
131,167,5,323,318,116,
130,167,5,321,316,119,
129,166,5,319,314,118,
129,165,5,318,312,112,
127,164,5,316,311,114,
127,163,5,314,309,112,
127,162,5,332,307,114,
126,161,5,329,305,111,
125,160,5,327,304,111,
125,159,5,325,301,112,
124,163,5,323,300,109,
124,161,5,321,297,110,
123,160,5,319,295,108,
122,159,5,316,294,103,
122,158,5,315,293,107,
121,158,5,312,291,103,
120,157,5,312,289,106,
120,156,5,311,287,103,
120,155,5,309,286,102,
119,155,5,307,284,103,
118,153,5,305,283,102,
118,153,5,304,281,103,
118,152,5,302,280,101,
117,152,5,300,278,101,
117,150,5,298,276,103,
116,150,5,295,275,103,
115,149,5,297,274,100,
115,148,5,295,271,100,
114,147,5,294,270,99,
114,147,5,293,269,100,
113,146,5,291,267,97,
113,145,5,289,266,100,
112,145,5,287,263,98,
112,144,5,286,263,99,
111,143,5,284,262,100,
111,143,5,283,261,98,
110,142,5,369,259,97,
110,141,5,366,258,97,
109,140,5,364,257,97,
109,140,5,361,255,94,
108,139,5,359,254,96,
108,139,5,356,252,92,
107,138,5,353,251,95,
107,137,4,352,249,96,
106,135,5,349,248,95,
105,135,4,347,247,94,
105,135,4,356,245,92,
103,134,4,353,244,94,
103,134,5,352,243,93,
103,134,5,349,242,89,
103,133,5,347,241,98,
122,132,5,344,239,103,
121,131,5,342,238,103,
120,131,5,339,237,106,
120,130,4,337,236,103,
119,129,4,335,235,103,
118,129,5,334,233,102,
117,128,4,332,231,101,
116,127,4,329,231,105,
116,127,5,327,230,127,
195,167,4,325,228,156,
192,167,4,323,227,162,
191,166,5,321,226,161,
190,165,5,319,225,162,
188,163,5,318,224,159,
188,162,5,316,223,161,
186,162,4,376,221,159,
185,160,4,371,220,159,
184,159,5,369,219,161,
183,159,4,366,218,160,
182,158,4,364,217,155,
180,157,4,361,216,152,
179,156,4,359,215,153,
179,155,5,357,213,151,
178,154,4,355,213,151,
177,153,5,352,211,151,
176,153,4,369,210,149,
175,152,5,366,209,150,
174,151,5,364,208,149,
172,150,4,361,207,149,
172,149,4,359,207,146,
170,148,4,356,205,145,
169,147,5,354,204,147,
169,146,4,352,203,145,
167,145,5,349,202,147,
167,145,4,347,201,147,
166,144,5,345,199,143,
164,143,5,342,199,142,
163,142,5,339,198,140,
163,141,5,338,198,139,
162,141,4,335,196,137,
161,140,5,334,195,135,
161,139,4,332,194,137,
159,138,5,330,193,135,
159,137,5,327,192,135,
158,137,5,326,192,135,
157,135,4,323,191,131,
156,135,5,322,190,130,
155,210,5,319,189,129,
154,208,5,318,188,129,
153,207,4,316,187,132,
153,205,5,314,186,131,
152,204,5,312,185,131,
151,203,5,311,184,127,
150,201,4,308,183,129,
150,199,4,327,183,126,
148,199,4,325,182,125,
147,198,4,323,181,123,
147,196,4,319,179,123,
149,195,4,318,179,126,
153,194,5,316,178,130,
153,194,5,315,255,129,
152,192,4,312,258,129,
151,190,4,310,255,126,
150,190,5,308,254,124,
149,189,4,307,252,124,
148,188,4,305,251,124,
147,187,4,302,249,126,
147,185,4,301,248,123,
146,184,5,299,246,120,
145,184,5,297,244,122,
143,182,4,295,243,121,
143,182,4,294,323,120,
142,180,4,292,321,120,
142,179,4,290,319,118,
141,178,4,327,317,117,
140,177,4,325,315,120,
140,176,4,322,312,119,
139,176,4,319,311,115,
141,174,4,318,308,114,
140,174,4,315,306,115,
139,173,4,314,305,114,
138,172,4,312,302,113,
137,171,4,310,300,113,
137,169,4,307,299,111,
135,167,4,332,295,113,
135,167,4,329,295,112,
135,167,4,327,293,111,
134,166,4,325,291,108,
133,165,4,323,289,109,
132,164,4,321,287,109,
131,163,4,319,286,110,
131,162,4,317,284,112,
130,161,4,315,282,112,
129,160,5,321,281,107,
129,159,4,319,280,108,
127,159,4,318,278,109,
127,158,4,315,276,108,
127,157,4,313,275,107,
126,157,4,312,273,106,
125,155,4,309,271,105,
125,155,4,307,270,105,
124,153,4,305,268,107,
123,153,4,304,267,105,
123,152,4,357,265,101,
122,151,4,354,263,103,
121,150,4,352,262,103,
121,150,4,348,261,101,
120,149,5,347,259,102,
122,148,4,344,258,103,
121,147,4,342,255,102,
121,146,4,339,255,101,
120,146,4,337,253,103,
120,145,4,335,252,102,
119,143,4,355,251,99,
118,143,4,352,249,101,
118,142,4,350,248,102,
117,142,4,348,246,100,
117,141,4,345,244,105,
132,140,4,343,243,110,
131,139,4,340,242,110,
130,139,4,338,241,108,
129,138,4,335,240,105,
129,137,4,334,238,106,
127,137,5,332,237,103,
127,135,4,329,236,106,
126,135,4,327,234,107,
125,134,4,326,233,106,
125,134,4,323,231,101,
124,133,4,321,230,103,
123,132,4,319,229,102,
123,131,4,317,228,106,
121,131,4,315,227,103,
121,131,4,313,226,103,
120,130,4,322,224,105,
120,129,4,319,223,102,
120,128,4,318,222,103,
119,127,4,316,220,101,
118,127,4,313,220,99,
117,126,4,312,219,99,
117,126,4,310,217,101,
116,125,4,308,216,97,
115,124,4,306,215,99,
115,124,4,304,215,97,
114,123,4,357,213,96,
113,122,4,354,211,94,
113,122,4,352,211,97,
113,121,4,349,210,93,
112,121,4,347,209,93,
112,120,4,344,207,93,
111,120,4,342,207,93,
110,120,4,340,206,95,
110,119,4,338,205,95,
109,119,4,335,204,90,
108,118,4,334,203,93,
108,117,4,332,201,91,
108,117,4,330,201,91,
107,137,4,327,199,91,
107,135,4,326,199,89,
106,135,4,323,198,92,
105,135,4,322,197,92,
105,134,5,319,195,91,
103,133,5,318,195,88,
103,133,4,316,195,88,
103,132,4,315,194,88,
103,131,4,312,193,88,
103,130,4,311,192,87,
102,129,4,309,192,89,
102,129,4,307,191,88,
103,127,4,306,189,88,
103,127,4,304,189,88,
103,127,4,302,188,87,
102,126,5,300,187,88,
102,125,4,299,185,85,
101,125,4,316,185,88,
101,124,4,313,184,84,
100,124,4,312,183,84,
99,123,4,309,182,86,
99,122,4,307,182,83,
99,121,4,306,181,85,
98,121,4,304,179,81,
98,120,4,302,179,83,
97,120,5,300,178,79,
97,119,4,299,177,79,
96,118,5,297,177,79,
96,118,5,335,176,79,
96,117,4,333,175,83,
95,116,4,331,174,79,
95,116,4,329,174,82,
98,115,4,327,173,79,
97,115,5,324,172,79,
97,114,4,323,171,79,
96,114,4,321,170,79,
96,113,4,319,169,78,
95,113,5,317,169,79,
94,113,5,316,167,76,
94,112,4,318,167,79,
94,112,4,316,167,78,
93,111,4,314,166,79,
93,111,4,312,166,79,
92,110,4,311,165,76,
92,110,4,308,163,76,
92,109,4,306,163,78,
92,109,4,305,236,82,
91,108,4,303,234,77,
90,107,4,301,233,78,
90,107,4,332,231,77,
89,107,5,330,230,74,
89,106,4,327,229,75,
89,105,4,326,227,73,
88,105,4,323,227,75,
89,105,4,321,225,73,
88,103,4,319,224,73,
88,103,4,318,222,71,
88,103,5,316,221,71,
87,103,4,314,220,74,
87,103,4,312,219,74,
86,102,4,335,217,73,
86,102,4,334,217,71,
85,101,4,331,216,70,
85,101,4,329,214,70,
85,100,4,327,213,71,
84,99,4,325,211,71,
84,99,4,323,211,71,
83,99,4,322,211,71,
83,99,4,319,237,70,
83,98,4,318,236,70,
82,97,4,316,235,71,
82,97,4,323,231,68,
82,97,4,320,231,69,
81,96,4,319,230,69,
81,113,4,317,229,68,
81,121,4,315,227,70,
80,121,4,313,227,69,
80,120,4,312,225,66,
79,119,4,309,224,67,
79,118,4,307,223,67,
79,118,4,306,221,66,
78,117,4,304,220,67,
78,116,4,326,219,64,
78,115,4,323,217,68,
77,115,4,321,217,66,
77,114,4,319,216,67,
77,114,4,318,215,69,
77,113,5,316,213,68,
76,112,4,314,212,67,
76,112,4,312,211,65,
76,111,4,310,210,66,
75,111,4,308,209,63,
75,110,4,308,207,64,
75,110,4,312,207,66,
74,109,4,311,206,63,
74,108,4,309,204,66,
74,108,4,307,204,66,
83,107,3,305,203,71,
83,107,4,304,201,69,
82,107,4,302,199,69,
82,105,4,300,199,69,
81,105,4,298,198,69,
81,105,4,295,198,71,
80,103,4,295,195,71,
79,103,4,294,195,70,
79,103,4,292,195,69,
79,103,5,291,193,69,
91,102,4,289,192,71,
90,102,4,287,192,75,
90,101,4,286,190,74,
89,100,4,284,189,75,
89,99,4,283,188,77,
88,99,4,281,188,75,
88,99,4,280,187,76,
88,99,4,284,186,75,
88,98,4,283,185,75,