
88,103,4,410,166,83,

88,105,4,408,165,81,

88,105,4,406,164,83,

88,105,4,403,163,80,

88,103,3,400,163,83,

88,103,4,397,162,80,

87,103,4,396,161,80,

86,103,4,393,160,79,

86,102,5,437,159,78,

85,101,4,463,158,80,

84,101,4,460,158,79,

84,100,4,457,157,79,

84,102,4,454,156,77,

84,101,4,450,156,78,

84,100,4,448,155,79,

83,100,4,444,154,79,

83,99,4,441,153,76,

82,99,4,439,153,76,

82,99,4,435,152,76,

82,98,4,475,152,78,

81,97,4,472,151,75,

81,97,4,468,150,77,

80,97,4,465,149,74,

80,103,4,462,148,77,

85,102,4,459,147,79,

84,102,4,455,147,79,

83,101,4,453,159,81,

83,100,4,449,192,79,

83,99,4,446,192,78,

82,99,4,444,190,76,

82,99,4,492,190,75,

81,98,4,489,188,74,

81,97,4,485,187,75,

80,97,4,481,186,77,

87,105,4,479,185,77,

88,105,4,475,184,81,

87,103,4,472,183,79,

87,103,4,467,182,79,

86,103,4,465,181,78,

86,103,5,462,179,81,

85,102,4,459,179,78,

85,101,4,455,179,79,

83,101,4,453,177,77,

84,100,4,450,176,79,

83,99,4,447,176,79,

83,101,4,444,174,79,

83,101,4,441,174,78,

83,100,4,438,172,75,

82,99,4,435,172,77,

82,99,4,433,171,73,

81,98,4,430,170,75,

81,97,4,428,169,76,

80,98,4,426,169,76,

79,97,4,423,167,73,

79,96,4,421,167,73,

79,96,4,418,166,73,

81,98,4,416,165,74,

81,97,4,414,164,74,

81,96,4,411,163,76,

81,96,4,408,163,75,

80,96,4,407,165,74,

79,96,4,404,164,76,

79,95,4,402,163,76,

79,95,4,434,163,76,

79,94,4,431,162,73,

78,93,4,428,161,72,

78,93,4,425,159,71,

92,101,4,423,159,87,

111,100,4,419,159,97,

110,99,4,417,158,100,

109,99,4,414,157,103,

108,98,5,411,157,100,

108,98,4,408,156,101,

107,97,4,406,155,99,

107,97,4,468,153,100,

106,96,4,463,153,98,

105,96,4,460,152,96,

105,96,4,457,152,96,

103,96,4,455,151,96,

103,96,4,451,150,98,

103,96,4,448,150,95,

102,95,4,445,149,96,

102,94,4,443,148,96,

102,94,4,440,147,93,

101,93,4,451,147,93,

100,93,5,448,146,92,

99,92,4,446,145,92,

99,92,5,443,145,92,

99,99,4,440,143,91,

98,98,5,437,143,91,

98,97,4,434,143,92,

97,97,4,432,142,89,

97,96,5,429,174,93,

97,96,4,426,172,91,

96,95,4,423,172,88,

95,95,4,420,170,87,

95,94,4,418,169,89,

94,94,4,415,167,89,

94,93,4,413,167,89,

93,100,4,411,167,88,

93,112,4,408,166,88,

93,111,4,405,165,85,

92,110,4,403,164,85,

92,110,4,400,214,87,

92,109,4,398,212,85,

91,109,4,395,211,86,

90,108,4,402,209,83,

90,107,4,459,207,86,

89,107,4,455,207,86,

89,106,4,451,206,82,

89,106,4,448,204,84,

89,105,4,446,204,81,

88,103,4,442,202,80,

88,103,4,439,201,79,

88,103,4,437,199,79,

87,103,4,433,199,79,

87,103,4,431,198,83,

86,102,4,433,197,82,

86,101,4,432,195,79,

85,100,4,428,195,80,

85,100,4,425,194,79,

86,103,4,422,193,79,

86,103,4,419,192,82,

85,102,4,417,191,79,

85,102,4,414,190,82,

84,101,4,412,189,79,

84,100,4,408,188,79,

83,100,4,407,188,79,

83,99,4,428,187,79,

83,99,4,425,185,76,

82,98,4,422,184,77,

82,98,4,419,184,76,

81,98,4,417,182,75,

81,97,4,414,182,75,

81,96,4,411,181,74,

80,96,4,408,180,75,

79,96,4,406,179,76,

79,95,4,403,178,73,

79,95,4,401,177,75,

79,94,4,467,176,71,

78,94,4,467,176,71,

78,93,4,463,175,71,

78,93,4,461,174,74,

94,106,4,457,173,83,

94,105,4,454,173,88,

94,103,4,451,171,88,

93,103,4,448,170,88,

93,103,4,445,169,84,

92,103,3,441,169,84,

92,102,4,440,167,83,

92,101,4,436,167,83,

91,101,4,433,166,86,

90,100,4,430,166,86,

90,101,4,428,165,83,

92,103,5,425,163,86,

92,103,4,422,163,86,

91,102,4,419,162,83,

90,102,5,417,188,87,

90,101,4,414,187,83,

89,100,4,412,185,82,

89,100,4,409,185,82,

88,99,4,420,184,81,

88,99,4,417,183,83,

88,98,4,414,182,83,

87,99,4,412,180,83,

91,99,4,409,179,85,

91,98,4,407,179,83,

90,98,4,403,178,83,

90,97,5,402,177,83,

89,97,4,399,176,82,

89,96,4,397,175,84,

89,96,4,395,174,81,

88,96,5,463,173,80,

88,95,4,461,172,79,

88,94,4,457,171,79,

86,93,4,454,171,82,

87,93,4,451,169,82,

87,92,4,448,169,81,

87,92,4,446,167,81,

86,92,4,442,169,79,

86,91,4,439,179,80,

85,91,4,436,178,80,

85,90,4,433,178,79,

84,89,4,431,177,79,

83,89,4,428,176,78,

83,89,4,426,175,76,

83,91,5,423,174,76,

87,110,4,419,173,81,

88,109,4,417,172,79,

88,109,4,415,171,79,

87,108,4,412,205,83,

87,107,4,409,210,80,

86,107,4,407,209,82,

86,106,4,405,207,78,

85,105,4,402,206,78,

85,105,4,399,205,79,

84,105,4,397,204,79,

83,105,4,395,203,78,

85,106,4,391,201,78,

85,106,4,390,199,80,

84,105,4,387,199,80,

83,105,4,385,199,79,

83,103,4,383,197,79,

82,103,4,380,196,79,

82,103,4,379,195,76,

82,102,4,385,194,77,

82,102,4,382,193,75,

81,101,4,379,192,75,

80,102,4,377,191,78,

85,102,4,375,190,78,

83,102,4,372,189,79,

83,101,4,370,188,79,

83,100,4,368,187,79,

83,100,4,366,186,76,

82,99,4,364,185,75,

82,99,4,361,184,75,

81,98,4,359,184,75,

81,98,4,358,182,74,

80,98,4,356,181,74,

80,100,4,355,180,74,

86,99,4,352,179,77,

85,99,4,351,179,77,

85,98,4,349,178,77,

84,98,4,347,177,79,

83,97,4,345,176,79,

83,97,4,344,176,78,

83,96,4,342,174,75,

83,96,4,369,174,75,

82,96,4,366,173,77,

81,95,4,365,172,77,

81,97,4,362,171,78,

84,99,4,359,170,76,

84,98,4,358,169,77,

83,98,4,355,169,77,

83,97,4,354,167,77,

82,96,4,352,167,79,

82,96,4,349,166,76,

81,96,4,347,165,75,

82,95,4,414,164,74,

81,94,4,409,163,74,

79,94,4,407,163,76,

79,94,4,405,162,73,

80,93,4,402,162,76,

82,93,4,399,161,75,

82,92,5,397,159,75,

81,92,4,394,167,77,

81,91,4,391,174,78,

81,91,4,389,173,77,

80,90,4,387,172,76,

79,91,4,426,172,76,

79,89,4,423,171,73,

79,89,4,420,169,73,

79,89,4,417,169,75,

79,103,4,415,167,76,

92,103,4,412,167,82,

92,103,4,409,166,86,

91,102,4,406,165,86,

91,102,4,403,164,85,

90,101,4,401,163,82,

89,101,4,399,163,81,

89,100,4,461,162,81,

88,99,4,457,160,81,

88,99,4,454,159,81,

88,100,4,451,159,83,

87,102,4,448,158,81,

88,101,4,444,157,82,

88,100,4,441,157,83,

87,99,4,439,156,80,

87,99,4,435,156,82,

86,99,4,432,154,79,

85,98,4,430,154,81,

85,98,4,470,153,78,

84,97,4,467,152,80,

84,96,4,463,152,79,

83,96,4,460,151,79,

83,103,4,457,150,80,

87,103,4,454,150,79,

87,103,4,451,149,79,

86,102,4,448,148,78,

85,101,4,445,147,78,

85,101,4,441,146,77,

85,100,4,439,146,80,

84,99,4,435,145,79,

83,99,4,433,144,77,

83,99,4,430,144,78,

83,98,4,428,143,79,

82,100,4,425,142,78,

82,99,4,422,142,77,

82,99,4,420,141,75,

81,99,4,417,141,74,

81,98,4,415,141,74,

80,97,4,412,141,74,

79,97,4,409,140,76,

79,97,4,415,140,73,

79,96,4,413,139,75,

79,96,4,411,138,73,

78,95,4,408,138,75,

88,99,4,406,137,82,

96,98,3,403,135,88,

96,97,4,401,135,86,

95,97,4,399,151,90,

95,96,4,396,166,90,

94,96,4,394,165,90,

94,96,4,391,164,88,

93,95,4,505,163,88,

92,95,4,501,162,88,

92,94,4,496,162,84,

92,93,4,494,161,84,

91,103,4,489,159,85,

91,103,4,486,158,84,

90,102,4,482,158,84,

89,101,4,480,158,86,

89,101,4,476,163,86,

89,100,4,472,162,85,

88,99,4,468,162,85,

88,99,4,487,160,83,

88,98,4,483,159,80,

87,98,4,480,159,80,

86,97,4,476,158,80,

86,110,4,473,157,79,

86,109,4,470,156,79,

86,108,5,467,155,79,

85,108,4,463,156,81,

85,107,4,460,159,81,

84,107,4,457,158,80,

83,106,4,454,157,77,

83,105,4,451,157,79,

83,105,4,448,156,76,

82,103,4,446,155,79,

82,103,4,443,154,76,

86,103,4,440,153,86,

96,103,4,436,152,88,

96,102,4,433,152,87,

95,102,4,431,199,91,

94,101,4,428,198,87,

94,100,4,425,197,89,

93,100,4,455,195,85,

93,99,4,477,194,85,

92,99,4,473,193,84,

92,98,4,470,192,88,

92,98,4,466,192,84,

91,99,4,463,190,86,

91,98,4,460,189,83,

90,98,4,457,188,85,

89,98,4,455,188,82,

89,97,4,451,187,84,

89,96,4,449,186,81,

88,96,4,446,185,81,

88,96,4,477,184,83,

88,95,4,474,183,83,

87,94,4,471,182,82,

86,94,4,468,181,81,

86,94,4,464,180,81,

86,93,4,461,179,79,

85,93,4,459,178,81,

85,93,4,455,177,78,

85,92,4,453,176,78,

84,92,4,449,176,77,

83,91,4,447,175,79,

83,91,4,478,174,77,

83,91,4,474,173,79,

82,90,4,472,172,75,

82,89,4,467,172,77,

84,102,4,463,171,79,

86,101,4,462,169,77,

85,100,4,458,169,80,

85,99,4,455,167,79,

84,99,4,453,167,80,

84,99,4,449,166,79,

83,98,4,447,166,79,

82,98,4,444,165,78,

82,97,4,440,164,77,

82,97,4,438,163,75,

82,96,4,435,163,74,

83,97,4,433,162,75,

83,96,4,430,161,76,

83,96,4,427,159,78,

83,96,5,425,215,81,

83,95,4,422,216,78,

82,94,4,419,215,77,

81,94,5,417,214,77,

81,94,4,415,212,74,

81,93,4,412,211,76,

80,92,4,409,210,73,

79,92,4,408,208,75,

79,95,4,405,207,75,

81,94,5,403,206,76,

81,94,4,400,205,73,

80,94,4,398,204,73,

79,93,4,396,214,75,

79,93,4,393,213,71,

79,92,4,391,211,71,

79,91,4,405,210,71,

78,91,3,404,209,70,

78,90,4,402,207,70,

78,90,4,399,207,72,

77,94,4,397,206,70,

77,93,4,394,204,71,

76,93,4,391,203,71,

76,92,4,390,202,71,

76,92,4,387,201,69,

76,91,4,385,199,71,

75,91,4,383,199,68,

75,90,4,381,198,71,

75,89,4,379,197,70,

74,89,4,376,196,68,

74,89,4,374,195,70,

73,89,4,372,195,69,

89,105,4,370,193,77,

89,103,4,368,192,82,

89,103,4,366,192,81,

88,102,4,364,191,81,

88,102,4,361,190,83,

87,101,4,359,189,83,

87,101,4,358,188,83,

87,99,4,355,187,82,

86,99,4,354,186,82,

85,99,4,352,185,81,

85,99,4,351,184,78,

85,98,4,348,183,79,

85,98,4,347,182,78,

84,97,4,345,181,77,

84,97,4,343,181,77,

83,96,4,341,179,77,

83,96,4,339,179,77,

83,95,4,338,178,78,

82,94,4,368,177,76,

82,94,4,365,177,78,

81,94,5,364,175,78,

81,96,4,361,175,75,

82,105,4,359,174,76,

82,103,4,357,173,78,

81,103,4,355,172,77,

81,103,4,352,172,77,

80,103,4,350,171,74,

79,102,4,348,169,76,

79,101,4,347,169,73,

79,101,5,408,167,75,

78,100,4,404,167,72,

78,99,5,402,166,71,

78,102,4,399,165,76,

84,102,4,396,165,79,

83,101,4,393,163,79,

83,101,4,391,163,78,

83,100,4,389,197,79,

82,100,4,386,195,75,

81,99,4,384,195,75,

81,98,4,382,193,74,

81,98,4,379,192,76,

80,97,4,377,192,73,

80,97,4,375,191,76,

79,102,4,372,190,86,

103,102,4,369,188,93,

102,101,4,368,187,94,

102,101,5,365,186,94,

101,100,4,363,185,94,

100,99,4,359,184,92,

99,99,4,358,183,93,

99,98,5,361,182,91,

98,98,4,358,181,93,

98,97,4,356,179,93,

97,97,4,354,179,90,

97,99,4,352,178,92,

98,98,3,350,177,89,

97,98,4,348,176,89,

97,97,4,346,176,89,

96,97,4,344,175,91,

96,96,4,342,174,87,

95,96,4,341,173,87,

95,96,5,395,173,86,

94,95,4,395,172,89,

94,94,4,391,171,86,

93,94,4,388,170,85,

93,99,4,386,169,85,

94,98,4,384,167,89,

94,98,4,382,167,86,

94,97,4,379,166,88,

93,97,4,377,166,85,

93,96,4,375,165,84,

92,96,4,372,164,87,

92,95,4,370,163,86,

91,94,4,390,162,86,

91,94,4,387,162,85,

90,93,4,385,161,83,

89,93,4,382,160,81,

91,93,4,381,159,82,

91,92,5,377,159,82,

90,92,4,376,158,85,

89,92,4,374,157,82,

88,91,4,371,157,82,

88,90,4,369,156,81,

88,90,5,368,156,80,

88,89,5,444,154,79,

88,89,4,440,153,81,

87,88,4,437,153,79,

87,179,4,433,152,82,

103,183,4,431,152,95,

108,182,4,427,151,98,

107,181,4,423,150,97,

107,179,5,421,180,97,

105,178,5,418,179,96,

105,177,4,415,178,98,

105,176,4,435,177,95,

103,175,4,432,176,97,

103,174,4,429,175,94,

103,173,4,427,174,94,

103,172,4,423,173,96,

115,171,4,420,172,102,

114,170,4,417,171,105,

113,169,4,414,170,105,

112,167,4,411,169,102,

112,167,4,408,167,101,

111,167,4,439,167,101,

110,165,4,448,166,101,

110,165,4,443,165,103,

109,163,4,440,163,103,

120,169,4,436,163,108,

121,167,4,433,162,112,

120,167,4,430,161,112,

120,166,4,426,159,110,

120,165,4,423,159,109,

118,163,4,420,158,108,

118,162,4,417,157,108,

117,162,4,415,157,108,

116,161,4,412,155,110,

115,159,4,409,155,108,

115,159,4,406,153,105,

114,158,4,403,153,103,

113,158,4,401,152,106,

113,157,4,397,152,103,

112,156,4,395,151,102,

112,155,4,391,150,102,

111,154,4,438,149,101,

110,153,4,435,148,100,

110,153,4,432,147,102,

133,272,4,429,146,137,

178,319,4,425,146,152,

177,317,4,422,145,157,

176,315,4,419,143,159,

175,312,4,415,169,157,

173,310,4,412,167,156,

173,308,4,409,167,155,

171,306,4,452,165,154,

170,304,4,449,164,156,

169,313,5,446,163,171,

217,415,4,441,162,185,

215,412,4,438,161,188,

214,409,4,435,160,191,

212,406,4,432,202,192,

211,403,4,428,199,187,

209,399,4,425,199,188,

207,398,4,423,197,184,

207,395,4,419,196,182,

206,391,4,417,195,183,

240,390,4,414,194,226,

359,521,4,412,193,271,

359,662,4,408,192,280,

355,653,4,406,190,276,

353,647,4,403,189,274,

350,639,4,399,188,267,

348,634,4,397,187,265,

345,629,4,462,186,262,

343,623,4,478,185,262,

340,617,4,473,184,265,

338,611,4,471,182,249,

335,605,4,467,181,247,

333,600,4,463,180,243,

332,595,4,460,179,243,

329,590,4,455,178,240,

327,585,4,452,177,222,

325,581,4,449,176,222,

323,575,4,502,176,221,

321,572,4,497,174,222,

319,568,4,493,173,223,

317,562,4,489,172,224,

315,557,4,485,171,219,

313,553,4,481,170,221,

312,550,5,480,172,219,

311,547,5,476,224,217,

309,542,5,472,222,211,

307,538,5,468,221,216,

305,534,5,492,220,214,

303,530,5,487,218,214,

301,526,5,484,217,214,

300,523,5,480,216,210,

298,518,5,477,214,207,

295,515,6,473,212,211,

294,510,6,470,211,211,

293,507,6,466,210,209,

291,504,6,462,209,211,

289,499,7,459,207,206,

287,496,7,457,207,205,

286,493,7,454,206,207,

284,489,7,451,204,207,

283,487,7,448,203,205,

282,482,7,445,201,207,

284,479,7,442,199,211,

282,476,9,439,199,207,

280,472,9,436,199,205,

279,470,9,432,198,203,

277,467,9,459,197,199,

275,463,10,513,196,204,

274,461,10,508,195,201,

272,457,10,503,193,199,

271,454,10,499,193,201,

269,451,10,495,191,198,

268,448,11,491,190,195,

266,445,11,487,189,193,

263,441,11,483,188,192,

263,440,11,480,187,192,

261,435,11,508,186,192,

259,433,11,503,185,191,

259,431,11,499,184,194,

257,428,11,495,183,195,

255,423,11,491,182,194,

254,422,12,487,181,193,

252,419,11,483,179,190,

251,415,12,479,179,188,

249,413,12,475,177,183,

248,411,12,526,177,185,

247,408,12,536,176,185,

245,405,11,530,174,184,

244,403,12,525,174,178,

243,401,12,521,173,179,

241,398,11,516,172,176,

240,395,12,512,171,179,

239,393,12,507,190,176,

237,391,12,504,189,175,

236,387,11,499,187,176,

235,385,12,537,186,176,

233,384,12,533,185,177,

231,381,11,528,184,174,

231,378,12,524,183,172,

230,376,12,519,181,174,

228,374,12,515,180,172,

227,371,11,511,179,169,

226,369,12,507,179,167,

225,367,11,503,177,167,

224,365,12,506,176,169,

223,363,11,502,175,167,

221,359,11,497,174,167,

220,359,11,494,173,163,

219,356,11,489,172,163,

218,354,11,486,171,162,

217,352,11,482,170,163,

216,350,12,479,169,159,

214,348,11,475,167,162,

213,346,12,472,167,159,

212,344,11,493,167,161,

211,342,11,489,165,158,

210,340,11,486,164,157,

209,338,11,481,163,156,

207,335,11,477,163,156,

206,334,11,474,166,155,

205,332,11,471,243,159,

204,330,11,467,241,155,

203,327,11,463,240,154,

203,327,11,558,237,152,

201,324,11,553,236,152,

199,323,11,547,234,150,

199,321,11,543,231,150,

198,319,11,538,231,148,

197,317,11,533,230,147,

195,316,11,528,228,150,

195,314,11,524,227,149,

194,312,11,520,225,146,

193,310,11,556,224,146,

192,307,10,555,222,145,

190,306,10,550,220,145,

189,304,10,545,219,143,

188,302,10,540,218,141,

187,301,9,536,217,143,

186,300,10,531,216,145,

185,297,9,527,214,143,

184,295,10,523,213,140,

184,295,9,518,211,137,

183,293,9,513,211,139,

182,291,10,509,209,135,

180,290,9,505,208,142,

180,288,10,502,207,141,

179,287,9,498,206,137,

178,285,9,494,205,135,

177,284,9,490,206,135,

176,283,9,487,206,136,

176,281,9,483,205,134,

174,280,9,480,204,134,

174,278,9,529,203,135,

173,277,9,524,201,132,

172,275,9,519,199,131,

187,274,9,515,199,144,

190,271,9,511,198,145,

189,271,9,507,197,143,

188,270,9,503,195,143,

187,268,9,499,195,143,

185,267,9,495,194,141,

184,265,9,499,193,143,

184,263,9,527,192,143,

182,263,9,522,190,140,

181,261,7,518,189,139,

180,259,9,513,188,142,

179,258,7,509,187,137,

178,257,8,505,186,137,

177,255,7,501,188,141,

176,255,7,497,187,140,

175,254,7,493,186,135,

174,252,7,505,185,139,

173,251,7,501,184,137,

172,249,7,497,183,135,

172,248,7,493,182,135,

171,247,7,489,181,137,

169,246,7,486,179,137,

169,245,7,482,179,134,

167,243,7,478,178,135,

167,242,7,475,177,135,

166,241,7,472,190,135,

166,240,7,485,188,132,

164,239,7,481,187,131,

164,238,7,478,186,131,

163,236,7,475,185,131,

162,235,7,471,184,135,

161,234,7,467,182,133,

161,231,7,463,182,130,

159,231,7,460,181,132,

159,231,7,457,179,130,

158,230,7,454,179,132,

157,229,7,451,178,129,

157,227,7,448,177,127,

156,226,7,445,176,130,

156,225,7,443,175,126,

155,224,7,440,173,127,

154,223,7,436,172,127,

153,221,7,433,172,125,

152,220,7,430,171,127,

152,220,7,427,170,125,

151,219,7,423,169,124,

150,217,7,471,167,121,

149,216,7,467,167,121,

149,216,7,463,167,123,

147,215,7,460,166,120,

147,213,7,457,164,119,

147,212,7,454,163,118,

146,211,7,449,163,118,

145,210,7,446,163,119,

144,209,7,443,162,118,

143,207,7,462,161,116,

143,207,7,543,159,114,

142,206,7,539,159,112,

142,205,7,535,159,115,

141,204,7,530,158,112,

140,203,7,526,157,111,

140,203,7,521,156,110,

139,201,7,516,155,110,

138,199,7,512,154,112,

137,199,7,508,153,111,

137,199,7,555,153,109,

135,198,7,568,152,109,

135,197,6,563,151,110,

135,195,6,558,150,107,

135,195,6,553,149,127,

189,193,6,547,148,142,

187,192,6,543,147,143,

186,191,6,538,147,146,

185,191,6,534,146,145,

184,189,6,530,145,144,

183,189,6,526,145,141,

181,188,6,521,143,142,

180,187,6,518,143,143,

179,186,6,514,142,140,

181,185,6,510,142,142,

179,184,6,505,141,139,

178,184,6,502,140,137,

177,183,6,497,139,137,

176,182,6,494,139,135,

175,181,6,490,138,135,

174,180,6,530,137,135,

173,179,6,525,137,135,

172,178,6,521,135,137,

171,177,6,516,135,135,

170,176,6,512,135,135,

169,176,5,508,134,133,

167,175,5,504,134,130,

167,174,6,499,133,131,

167,173,6,496,132,131,

165,172,6,492,131,129,

164,172,5,575,131,129,

163,171,5,569,130,127,

162,169,5,564,129,129,

161,169,5,560,129,126,

183,167,6,555,127,140,

183,167,5,551,127,139,

182,167,5,547,127,139,

181,166,5,541,127,138,

179,166,6,536,126,139,

178,165,6,532,125,137,

177,164,5,528,125,139,

176,163,5,524,124,135,

175,163,5,519,124,137,

175,162,6,516,123,139,

181,161,5,512,122,137,

179,159,5,508,121,140,

179,159,5,505,122,138,

178,159,5,499,123,145,

177,158,5,496,122,144,

176,157,5,503,121,143,

175,157,5,504,121,145,

174,156,5,499,120,142,

173,155,5,496,120,141,

172,155,5,492,119,148,

186,153,6,487,118,149,

185,153,6,485,118,150,

184,152,5,481,121,152,

183,152,5,477,120,151,

182,151,5,473,120,147,

180,151,5,473,119,147,

179,150,5,472,119,146,

178,149,5,469,118,145,

177,148,6,465,117,162,

233,147,5,462,117,187,

243,147,5,459,116,189,

243,146,5,455,118,192,

240,145,5,453,155,192,

239,145,5,449,154,190,

237,143,5,446,153,185,

236,143,5,443,152,184,

234,143,5,440,152,183,

233,142,5,437,150,183,

237,142,5,435,149,199,

262,141,5,432,148,203,

259,140,5,429,147,199,

258,140,5,426,147,199,

255,139,5,423,147,201,

254,138,5,419,146,198,

253,137,5,417,145,198,

252,137,5,415,144,195,

249,135,5,412,143,195,

248,135,5,409,143,194,

247,135,5,407,142,195,

245,135,5,404,141,193,

243,134,5,402,140,191,

243,133,5,399,140,192,

241,133,5,397,139,191,

240,132,5,394,138,185,

238,131,5,391,137,188,

237,131,5,403,136,185,

235,130,5,399,135,182,

233,130,5,397,135,181,

231,129,5,394,134,184,

231,128,5,391,133,184,

230,127,5,389,133,179,

229,127,5,387,132,179,

227,127,5,384,131,180,

226,126,5,381,131,177,

225,125,5,379,130,179,

223,125,5,377,129,175,

222,124,5,375,128,175,

221,124,5,372,127,183,

281,124,5,370,127,221,

316,123,5,368,126,231,

313,123,5,366,125,230,

312,122,5,364,125,231,

309,121,5,361,124,229,

307,121,5,359,124,223,

305,120,5,384,123,224,

303,120,5,389,122,220,

301,120,5,386,121,219,

299,120,5,384,121,221,

297,143,5,381,120,217,

295,142,5,378,120,217,

293,142,5,376,119,218,

291,141,5,373,118,218,

289,140,5,371,118,218,

287,139,5,368,117,214,

286,138,5,365,116,212,

285,137,5,363,116,216,

283,136,5,359,115,211,

281,135,5,358,115,211,

280,135,5,356,114,207,

278,134,5,354,113,207,

276,134,5,352,113,209,

274,133,4,350,113,209,

273,132,5,348,112,206,

271,131,4,345,111,199,

270,131,5,344,111,201,

268,130,4,341,110,201,

266,129,4,339,110,202,

265,128,5,338,109,203,

263,127,5,335,109,198,

262,126,5,334,122,198,

260,126,5,332,167,201,

259,125,5,330,166,194,

257,124,5,327,165,195,

255,124,5,326,164,191,

254,123,5,325,163,193,

253,123,4,323,162,192,

252,122,5,321,161,194,

250,131,4,319,160,193,

249,130,5,317,159,185,

248,129,5,316,158,183,

246,128,5,314,157,182,

245,127,5,312,156,179,

243,127,5,311,155,182,

242,126,5,309,154,182,

241,125,4,307,153,179,

239,125,4,305,153,178,

238,124,5,304,152,179,

236,124,5,303,152,180,

235,123,4,301,150,177,

234,122,4,300,149,176,

233,121,5,298,148,177,

231,121,5,295,147,177,

230,120,4,295,147,177,

229,120,5,293,146,172,

227,119,4,291,145,173,

227,119,5,290,144,175,

225,121,5,289,143,174,

224,164,5,287,143,173,

223,163,5,286,142,173,

222,161,5,284,141,174,

221,159,5,283,140,173,

219,159,5,281,140,176,

218,158,5,280,139,169,

217,157,4,278,137,170,

216,156,5,277,137,166,

215,156,5,275,137,169,

213,155,5,274,135,167,

212,154,5,273,135,166,

211,153,5,271,134,167,

210,152,4,270,133,164,

209,151,5,268,133,166,

207,150,5,267,131,167,

207,149,5,265,131,166,

206,148,5,263,131,159,

205,147,4,263,130,159,

204,146,4,262,129,161,

203,146,4,260,129,159,

202,145,4,259,127,159,

199,144,4,257,127,159,

199,143,4,256,126,157,

198,142,4,255,125,158,

197,141,5,254,124,154,

196,140,4,252,124,156,

195,140,4,251,123,156,

194,139,4,250,123,154,

193,138,5,249,122,152,

192,140,4,248,121,149,

191,139,4,247,120,147,

190,138,4,245,120,149,

189,137,4,243,120,146,

188,136,4,243,119,146,

187,135,4,241,118,145,

187,135,4,240,118,146,

185,134,5,239,117,149,

184,133,4,238,116,147,

184,133,4,237,115,143,

183,131,5,236,115,141,

182,131,4,235,114,142,

181,130,4,233,114,139,

179,130,4,231,114,138,

179,129,5,231,113,139,

178,127,4,230,112,138,

177,127,4,229,112,142,

176,127,4,227,111,141,

175,126,4,227,111,141,

174,125,4,226,110,137,

173,125,5,225,109,135,

172,124,4,224,109,137,

172,123,4,223,108,134,

171,123,4,221,108,135,

170,122,4,220,107,135,

169,121,4,220,107,132,

167,120,5,218,106,134,

167,120,4,217,105,132,

167,120,4,216,105,131,

166,134,4,216,105,131,

165,152,5,214,103,131,

164,151,4,213,103,132,

163,149,5,212,103,128,

162,149,5,211,103,131,

162,147,4,210,102,127,

161,147,4,209,102,127,

159,146,4,207,101,127,

159,145,4,207,100,126,

158,144,5,206,100,125,

158,143,5,205,99,128,

157,143,5,204,99,126,

156,142,4,203,99,125,

155,141,4,203,99,126,

155,140,4,201,99,124,

154,139,4,201,99,126,

153,139,4,199,98,123,

152,138,4,199,98,122,

152,137,4,198,97,122,

151,135,4,197,97,123,

150,135,4,197,97,127,

150,135,4,195,96,127,

149,134,4,194,96,123,

148,134,4,193,95,122,

147,132,4,193,95,121,

147,131,4,192,94,121,

146,131,3,191,94,121,

145,130,4,190,94,123,

145,129,4,189,93,124,

143,129,4,188,92,121,

143,127,4,188,92,115,

143,127,4,187,92,114,

142,126,4,186,91,117,

141,126,4,185,91,114,

140,125,4,184,90,114,

140,125,4,184,89,115,

139,124,4,183,90,118,

139,124,4,182,89,117,

138,123,4,181,89,113,

137,122,4,180,88,112,

136,121,4,179,88,114,

135,121,4,179,88,113,

135,120,4,178,88,110,

135,120,4,177,87,111,

134,119,4,176,87,110,

134,118,4,176,86,110,

133,117,4,175,85,112,

132,117,4,174,85,110,

131,116,4,174,85,107,

131,115,4,173,84,107,

131,115,4,172,84,107,

130,115,3,171,84,111,

129,114,4,171,83,107,

128,114,4,169,83,109,

128,113,4,168,83,105,

127,113,4,167,82,105,

127,112,4,167,82,105,

126,111,4,167,82,105,

126,111,4,166,81,107,

125,111,4,165,81,103,

124,110,4,165,81,103,

124,110,4,163,80,103,

124,109,4,163,79,102,

123,109,4,162,79,105,

122,108,3,162,79,105,

121,108,4,161,79,105,

121,107,4,159,78,103,

120,107,4,159,78,103,

120,106,3,159,77,101,

120,105,3,158,77,101,

119,105,4,158,77,99,

119,105,4,157,77,101,

118,103,4,156,76,101,

118,103,4,156,76,102,

117,103,4,155,75,99,

116,103,4,154,75,99,

115,102,4,153,75,100,

115,102,4,153,75,98,

115,101,3,152,75,99,

114,101,4,152,74,97,

114,101,4,151,73,98,

113,100,4,150,73,99,

113,99,4,150,73,99,

112,99,4,150,73,95,

112,99,4,149,71,98,

112,98,4,148,71,97,

111,98,4,147,71,95,

110,98,4,147,71,94,

110,97,4,146,71,94,

109,97,4,146,71,94,

109,97,4,146,71,96,

109,96,4,145,71,93,

108,96,4,143,71,94,

108,96,4,143,70,92,

108,96,4,143,70,94,

107,95,4,143,69,90,

106,94,4,142,69,92,

106,94,4,142,69,90,

105,94,4,141,69,91,

105,93,4,141,68,91,

103,93,4,140,68,92,

103,93,4,139,67,91,

103,92,4,139,67,91,

103,92,4,138,67,90,

103,91,4,138,67,88,

102,91,4,137,67,88,

102,90,4,137,66,89,

102,90,4,135,66,88,

101,90,4,135,67,88,

100,89,4,135,67,90,

101,89,4,135,66,88,

100,89,4,134,66,89,

99,88,3,134,66,86,

99,88,4,133,65,88,

98,88,4,133,65,85,

98,88,4,132,65,88,

98,91,4,131,64,84,

98,91,3,131,64,88,

98,90,3,131,64,84,

97,90,4,130,64,86,

97,89,4,130,70,85,

96,89,4,129,69,85,

96,88,4,128,68,85,

96,88,4,128,68,85,

95,88,3,127,67,82,

95,88,4,127,67,81,

95,87,3,127,67,79,

94,87,4,126,67,83,

94,88,3,126,66,79,

93,88,3,125,66,82,

93,87,4,125,66,79,

93,86,3,125,67,81,

92,86,4,125,70,80,

92,86,3,124,69,80,

92,85,3,123,69,79,

91,85,4,123,69,81,

91,85,4,122,69,78,

90,84,3,122,68,79,

90,84,3,121,68,77,

89,83,4,121,68,79,

89,83,4,121,67,79,

90,83,3,120,67,79,

90,83,3,120,67,77,

89,82,4,119,69,79,

89,82,3,119,70,76,

88,82,4,119,69,76,

88,81,4,118,69,76,

88,81,4,118,69,78,

88,81,4,117,68,79,

87,79,4,117,67,76,

87,79,3,116,67,75,

86,79,4,116,67,77,

86,79,4,115,67,74,

86,79,4,115,66,73,

86,79,3,115,66,71,

85,78,3,114,66,74,

85,78,4,114,66,71,

85,78,3,114,66,71,

84,78,4,113,66,74,

83,77,3,113,65,75,

83,77,4,112,65,75,

83,76,4,112,65,71,

83,76,3,111,64,71,

83,76,3,111,64,71,

88,76,4,111,63,76,

88,76,4,110,63,77,

88,76,3,110,63,77,

87,75,3,110,64,80,

87,75,4,109,63,79,

86,75,4,109,63,77,

86,74,3,108,63,77,

85,74,4,108,63,77,

85,74,4,107,63,76,

85,73,4,107,62,76,

84,73,4,107,62,73,

83,75,4,106,62,73,

85,75,3,106,61,73,

85,74,4,106,61,74,

84,74,4,105,87,78,

84,73,3,105,91,77,

83,73,4,103,90,74,

83,73,3,103,89,71,

83,71,4,103,89,73,

82,71,3,103,89,71,

82,71,4,103,88,70,

81,71,4,103,88,71,

81,71,3,102,88,69,

81,73,4,102,87,71,

81,71,3,101,86,73,

81,71,3,101,86,71,

81,71,4,101,94,74,

81,71,3,100,101,70,

80,71,3,99,100,71,

79,70,4,99,100,71,

79,70,3,99,99,68,

79,70,3,105,99,70,

79,70,3,104,98,67,

79,70,4,103,98,67,

78,71,4,103,97,69,

79,74,4,103,97,71,

89,74,4,103,96,76,

89,73,3,102,96,74,

88,73,4,102,96,77,

87,73,4,101,95,73,

87,71,4,101,94,73,

87,71,3,101,94,76,

87,71,4,100,94,71,

86,71,4,99,93,73,

86,71,4,99,93,74,

85,71,4,99,92,75,

85,74,4,99,92,75,

84,73,4,99,91,75,

84,73,4,97,91,71,

84,73,3,98,91,74,

83,71,4,97,91,71,

83,71,3,97,91,74,

83,71,3,96,90,71,

82,71,3,96,90,70,

82,71,3,96,89,70,

81,70,4,96,89,73,

81,70,4,96,89,70,

81,70,4,95,88,70,

80,70,4,95,88,70,

80,70,4,94,88,69,

80,70,4,94,87,71,

79,69,4,94,87,69,

79,68,4,94,87,70,

79,69,4,93,98,69,

79,68,4,93,98,71,

78,67,4,92,97,71,

78,67,4,92,97,71,

78,67,4,92,96,70,

77,67,3,92,96,67,

77,67,3,91,96,66,

77,66,4,91,95,69,

76,67,4,91,95,65,

77,66,4,90,94,65,

76,66,3,90,93,68,

76,65,3,89,93,66,

76,65,3,89,96,65,

75,65,4,89,99,67,

75,65,3,88,99,66,

75,65,3,88,98,66,

74,64,3,88,98,63,

74,64,4,96,97,63,

73,64,4,96,97,65,

73,63,3,95,96,62,

73,65,4,95,96,64,

73,68,4,94,96,63,

75,68,4,94,96,65,

75,67,4,93,95,63,

74,67,4,93,99,65,

73,67,4,93,108,66,

73,67,3,92,108,66,

73,66,3,92,107,66,

73,66,3,91,106,63,

73,66,3,101,105,63,

71,65,3,101,105,62,

71,65,3,101,103,63,

71,65,4,100,103,62,

74,66,4,99,103,67,

80,66,4,99,103,69,

80,66,3,99,102,69,

79,65,3,98,112,71,

79,65,4,98,111,68,

79,65,3,97,111,71,

78,64,3,97,110,69,

78,63,3,97,109,69,

78,63,3,96,109,67,

77,63,4,96,108,67,

77,63,3,96,108,67,

76,65,4,95,107,67,

76,65,4,95,107,66,

76,64,4,94,106,67,

76,64,4,94,105,65,

76,63,4,93,106,68,

75,63,4,93,105,65,

74,63,4,92,103,66,

74,63,4,92,103,64,

73,62,4,92,103,64,

73,62,4,103,103,66,

73,62,4,103,102,63,

71,62,4,103,102,66,

73,77,4,103,101,65,

78,77,3,102,101,70,

77,76,4,101,100,67,

77,76,4,101,100,69,

77,76,4,100,99,67,

76,75,4,99,99,70,

76,75,3,99,99,66,

75,74,3,99,99,69,

75,73,3,99,98,66,

75,73,4,98,97,67,

74,73,4,97,97,65,

74,73,4,97,97,66,

75,76,4,97,97,67,

78,76,4,96,96,67,

78,76,4,96,96,69,

78,75,4,95,96,68,

77,75,4,95,103,71,

77,74,3,95,102,67,

77,74,4,94,102,67,

76,73,3,94,101,66,

76,73,4,98,101,68,

76,73,4,97,100,65,

75,71,3,97,99,68,

75,71,4,97,99,66,

75,78,4,96,99,68,

83,78,3,96,98,69,

82,78,4,96,98,71,

82,77,4,95,120,70,

81,77,3,94,121,73,

81,76,3,94,120,71,

80,76,3,93,119,68,

79,76,4,93,118,70,

79,75,3,96,118,70,

79,75,3,96,117,67,

78,75,3,96,117,67,

79,82,4,96,116,67,

79,89,4,95,115,71,

80,88,3,94,115,68,

80,88,3,94,114,71,

79,88,3,93,115,69,

79,87,3,93,119,70,

79,87,4,93,118,70,

78,86,3,92,117,67,

78,86,4,92,116,67,

78,85,4,97,116,67,

77,85,3,96,115,66,

77,84,4,96,115,67,

77,84,3,95,114,67,

81,84,4,95,114,72,

83,83,3,94,113,71,

83,83,4,94,124,71,

82,83,4,93,135,71,

81,82,3,93,135,73,

81,82,4,93,134,70,

81,81,4,92,134,69,

80,81,4,92,133,69,

79,81,4,92,132,71,

79,80,3,91,131,67,

79,79,4,91,131,67,

79,100,4,90,130,70,

102,99,4,89,130,82,

103,99,4,89,129,84,

103,98,3,89,128,89,

102,98,4,89,127,88,

102,97,3,88,127,88,

101,97,3,88,126,89,

100,96,3,88,125,88,

99,96,3,89,125,88,

99,95,4,89,124,85,

99,94,4,89,124,88,

99,94,4,88,123,85,

98,94,3,88,123,88,

97,93,3,88,122,85,

97,93,4,87,121,87,

96,92,4,87,153,83,

96,92,4,87,153,83,

95,92,4,86,151,82,

95,91,3,86,151,84,

94,91,4,85,150,81,

94,90,4,113,149,83,

93,89,4,113,148,79,

93,89,4,112,147,82,

93,89,4,111,147,79,

93,88,4,111,145,79,

92,88,3,110,145,78,

92,88,4,109,145,78,

92,87,4,109,146,78,

91,87,4,108,145,77,

91,86,4,108,145,77,

90,86,4,107,143,77,

90,85,4,125,143,75,

89,85,3,126,142,78,

89,84,4,126,142,76,

89,85,4,125,141,76,

88,85,4,125,140,80,

91,85,4,124,140,78,

91,84,4,123,139,79,

91,83,3,122,151,77,

90,83,3,121,150,75,

89,83,4,121,149,78,

89,82,4,121,147,75,

89,82,4,120,147,75,

88,82,4,120,146,75,

88,81,4,119,145,74,

88,81,3,118,145,74,

88,88,4,118,143,76,

89,88,4,117,143,77,

88,87,4,116,142,76,

88,87,4,115,142,75,

88,86,4,115,141,75,

88,85,4,115,140,76,

87,85,4,114,140,77,

86,85,4,115,139,77,

86,84,4,127,138,76,

86,83,3,127,137,75,

85,83,4,126,137,73,

85,85,4,125,136,80,

99,84,3,125,135,84,

98,84,4,124,135,84,

98,83,4,124,135,82,

97,83,4,123,134,82,

96,83,4,122,134,82,

96,82,4,121,132,82,

96,82,4,121,132,83,

95,81,4,127,131,79,

94,81,4,127,131,79,

94,80,4,126,130,79,

94,94,4,125,129,79,

103,94,4,125,129,88,

103,93,4,124,127,88,

103,92,4,124,127,90,

102,92,3,123,127,88,

101,91,4,123,126,89,

100,91,4,121,125,85,

100,91,4,121,125,86,

99,90,4,132,124,84,

99,89,4,131,124,83,

99,89,4,131,123,83,

98,97,4,130,122,85,

103,97,4,130,122,87,

103,96,3,129,121,90,

103,95,3,127,121,89,

103,95,3,127,120,89,

102,94,4,127,120,87,

101,94,4,126,119,88,

101,93,3,127,119,84,

100,93,3,134,118,83,

99,92,3,134,117,86,

99,92,4,133,117,83,

99,93,4,132,115,84,

108,93,4,131,115,89,

108,92,4,131,115,92,

107,92,4,130,132,91,

106,91,3,129,131,92,

105,91,3,129,130,92,

105,91,4,128,129,91,

103,90,4,129,129,91,

103,89,3,131,127,89,

103,89,4,130,127,88,

103,89,4,129,127,88,

102,89,4,129,126,88,

102,88,3,127,125,89,

101,88,4,127,125,89,

101,87,4,127,152,89,

100,87,4,126,152,89,

99,86,4,126,150,85,

99,86,3,124,149,85,

98,86,4,167,148,85,

98,85,4,166,147,85,

97,84,4,165,147,83,

97,85,4,164,146,83,

96,85,4,163,145,83,

96,84,3,162,144,84,

96,83,4,161,143,82,

95,83,4,160,143,83,

95,83,4,159,142,80,

95,82,4,159,142,79,

94,82,3,158,140,79,

93,82,3,159,140,83,

93,81,4,159,140,81,

92,81,4,159,139,82,

92,81,4,157,138,81,

92,81,4,157,137,81,

92,81,4,156,135,80,

92,80,3,155,135,77,

91,80,4,155,167,78,

91,79,4,154,167,77,

90,79,4,153,167,77,

89,79,4,152,166,77,

89,78,3,155,165,79,

88,78,4,162,163,79,

88,77,4,161,163,78,

88,77,3,159,162,75,

88,85,4,159,161,77,

87,85,4,158,159,75,

87,83,4,158,159,76,

86,83,4,157,162,73,

86,83,3,156,165,76,

85,82,4,155,165,74,

85,82,4,155,163,75,

84,82,4,154,163,74,

83,81,4,165,162,75,

83,81,4,165,161,75,

83,80,4,163,160,71,

83,101,4,162,159,77,

99,99,4,162,158,83,

99,99,4,161,158,83,

98,98,4,159,158,85,

97,98,4,159,157,85,

97,97,4,158,156,83,

97,97,4,157,155,85,

96,96,3,157,155,84,

95,96,4,159,154,83,

95,96,4,159,153,79,

94,94,4,158,152,82,

94,99,4,158,152,79,

109,98,4,157,151,88,

108,98,4,156,150,89,

108,97,3,155,149,90,

106,96,4,154,148,89,

105,96,4,153,147,89,

105,95,4,153,147,91,

105,95,3,152,146,90,

103,94,4,153,145,89,

103,94,4,152,144,86,

103,93,3,152,143,89,

103,98,4,151,143,88,

105,97,3,150,142,89,

103,97,3,149,142,86,

103,96,3,148,141,85,

103,96,4,148,140,85,

103,95,3,147,140,85,

102,95,4,146,139,86,

102,94,4,158,138,83,

101,94,4,160,137,84,

100,93,4,159,137,85,

100,94,4,159,135,83,

99,94,4,158,135,85,

103,94,4,157,135,89,

103,93,4,156,134,88,

103,93,4,155,167,88,

103,92,3,154,173,89,

102,92,4,153,172,89,

102,91,4,152,171,88,

101,91,4,161,170,85,

100,90,3,163,169,82,

99,89,4,162,167,83,

99,90,3,161,167,83,

99,93,4,161,166,90,

114,93,4,159,165,94,

113,93,3,159,164,91,

113,92,3,158,163,92,

112,91,4,157,162,89,

111,91,4,156,161,89,

111,90,3,155,161,92,

110,89,4,161,159,92,

110,89,4,159,159,89,

109,89,4,159,158,89,

108,89,4,159,158,88,

110,89,4,158,157,89,

109,88,4,156,156,90,

109,88,4,156,155,89,

108,88,3,155,155,92,

108,87,4,154,155,88,

107,86,4,153,153,89,

106,85,4,153,153,88,

105,85,4,153,152,89,

105,85,3,153,152,88,

105,84,4,152,151,86,

103,87,4,152,150,87,

103,86,4,150,149,87,

103,85,3,149,148,88,

103,85,3,149,147,89,

102,85,3,148,147,89,

102,84,3,147,146,88,

101,83,3,146,145,86,

101,83,3,155,145,84,

100,83,4,167,143,83,

99,82,4,166,143,84,

99,82,4,165,142,82,

99,82,4,164,142,86,

101,82,3,163,141,88,

101,81,4,162,140,86,

100,81,4,162,140,88,

99,80,4,161,139,85,

99,79,3,159,139,85,

99,79,3,159,138,85,

98,79,3,163,137,85,

98,78,3,164,136,83,

97,78,4,163,135,87,

96,78,4,162,135,83,

96,83,3,162,135,86,

96,82,4,161,134,82,

95,81,3,159,133,84,

95,81,4,159,133,82,

94,81,3,158,132,81,

94,79,3,157,132,79,

93,79,4,156,131,82,

93,79,4,156,131,78,

93,79,4,179,130,81,

92,79,4,179,129,81,

91,78,4,177,129,78,

92,89,4,177,128,82,

99,89,4,176,127,85,

98,89,4,174,127,83,

98,88,4,174,126,83,

97,88,3,173,126,85,

97,88,3,172,125,81,

96,87,4,171,124,81,

96,87,3,170,124,81,

95,86,4,196,123,83,

95,86,4,194,123,80,

94,85,3,193,123,79,

94,87,4,193,122,79,

97,87,4,191,121,83,

99,86,4,190,121,83,

99,86,4,189,140,87,

97,85,4,188,139,83,

97,85,4,187,138,83,

96,84,4,186,137,85,

96,83,3,185,137,83,

96,83,4,186,135,83,

96,83,3,185,135,81,

95,82,3,184,135,83,

94,83,4,183,134,81,

96,86,4,182,133,84,

102,85,4,181,133,86,

101,85,4,180,131,86,

100,83,4,179,131,86,

100,83,4,178,130,88,

99,83,4,177,130,87,

99,82,4,176,129,84,

98,82,4,176,129,87,

97,82,4,175,127,83,

97,81,4,174,127,85,

97,92,4,173,126,81,

97,95,4,172,126,85,

99,94,4,171,125,84,

99,93,4,171,125,85,

99,93,4,170,124,83,

98,93,3,169,124,82,

97,92,4,167,123,84,

97,91,3,167,123,81,

97,91,4,175,122,81,

