
21,35,0,241,231,19,

21,35,0,248,255,24,

21,35,0,271,255,19,

21,34,0,270,254,19,

21,34,0,268,253,20,

21,34,0,266,251,19,

20,34,0,265,249,19,

21,34,0,263,248,23,

21,34,0,262,247,23,

21,33,0,261,245,22,

21,33,0,259,243,22,

21,33,0,257,243,22,

21,32,0,263,242,19,

21,33,0,307,255,22,

21,32,0,304,253,19,

20,32,0,303,252,23,

20,31,0,300,250,21,

20,31,0,299,249,22,

19,32,0,297,247,22,

19,31,0,295,246,18,

19,31,0,294,244,21,

19,31,0,291,243,21,

19,31,0,290,242,19,

19,31,0,289,240,21,

19,31,0,298,251,18,

19,31,0,297,249,18,

19,30,0,295,248,20,

19,30,0,293,247,21,

19,30,0,291,245,21,

18,30,0,289,243,17,

18,31,0,287,243,19,

19,30,0,286,241,17,

19,30,0,285,240,20,

19,30,0,284,238,16,

18,30,0,281,237,17,

18,30,0,291,238,19,

18,29,0,291,236,17,

18,29,0,289,235,19,

18,29,0,287,234,19,

17,29,0,286,231,17,

18,31,0,284,231,16,

18,38,0,283,230,17,

17,38,0,281,229,16,

17,38,0,280,227,15,

17,37,0,278,227,19,

17,37,0,276,225,19,

16,37,0,280,252,17,

16,37,0,279,251,18,

17,36,0,277,249,15,

16,36,0,275,248,18,

16,36,0,274,246,15,

16,35,0,273,245,15,

16,35,0,271,243,15,

17,35,0,270,242,15,

17,35,0,268,241,19,

17,35,0,267,240,19,

17,35,0,265,238,16,

17,35,0,265,248,16,

17,34,0,270,248,16,

16,34,0,269,246,18,

17,34,0,268,244,15,

17,34,0,265,243,16,

16,33,0,263,241,16,

16,33,0,263,240,15,

17,33,0,262,239,18,

17,33,0,260,238,16,

17,33,0,259,236,19,

17,32,0,257,235,15,

17,32,0,259,234,16,

17,31,0,303,233,16,

16,31,0,301,231,15,

16,31,0,299,231,15,

17,31,0,297,230,19,

16,31,0,295,229,15,

16,31,0,294,227,16,

16,31,0,291,226,16,

18,31,0,291,225,16,

18,31,0,289,224,17,

18,31,0,287,223,16,

18,31,0,285,227,17,

18,30,0,313,268,17,

17,30,0,312,266,16,

17,30,0,309,265,17,

17,30,0,308,263,19,

17,30,0,306,261,17,

17,30,0,304,260,19,

17,29,0,303,259,16,

17,29,0,300,257,16,

17,29,0,299,255,17,

17,29,0,297,254,19,

17,29,0,295,253,15,

17,29,0,318,255,19,

17,29,0,316,255,16,

17,28,0,313,253,17,

17,28,0,312,252,16,

16,28,0,310,251,15,

16,28,0,308,249,16,

16,28,0,306,248,19,

19,28,0,305,246,18,

20,27,0,303,245,18,

19,27,0,301,243,19,

19,27,0,299,242,18,

19,27,0,343,276,23,

19,27,0,340,274,22,

19,26,0,337,272,21,

19,26,0,335,271,18,

19,26,0,333,269,20,

19,25,0,331,268,16,

18,27,0,329,266,18,

23,28,0,327,265,21,

22,28,0,326,263,21,

22,28,0,323,262,21,

22,27,0,322,260,22,

22,27,0,322,271,22,

22,27,0,380,271,24,

21,27,0,378,269,19,

21,27,0,375,268,19,

21,26,0,373,267,21,

21,26,0,370,263,20,

21,26,0,368,263,23,

21,26,0,366,262,24,

21,25,0,363,260,24,

21,26,0,361,259,21,

21,25,0,359,258,19,

20,25,0,357,255,22,

20,25,0,355,256,19,

20,25,0,353,255,19,

20,25,0,351,253,19,

20,25,0,349,253,19,

19,25,0,347,251,19,

19,25,0,345,249,19,

19,26,0,343,248,19,

20,25,0,341,247,18,

19,25,0,339,246,20,

19,25,0,337,244,18,

19,25,0,335,243,19,

19,25,0,367,266,22,

19,25,0,364,263,22,

19,24,0,362,263,21,

19,24,0,359,261,19,

19,24,0,358,259,18,

19,25,0,355,258,18,

19,31,0,353,256,21,

19,31,0,351,255,21,

19,30,0,349,254,18,

19,30,0,347,253,18,

19,30,0,345,251,18,

19,30,0,362,260,19,

19,30,0,359,259,19,

19,29,0,358,257,18,

19,29,0,355,255,20,

18,29,0,353,254,17,

18,29,0,351,253,18,

18,29,0,348,252,20,

19,29,0,347,250,21,

19,28,0,345,249,21,

19,28,0,343,248,18,

19,28,0,341,246,18,

19,28,0,375,245,20,

19,28,0,372,243,21,

19,28,0,369,243,19,

19,27,0,368,241,20,

18,28,0,365,240,21,

18,27,0,363,239,18,

18,31,0,361,238,18,

21,30,0,359,237,21,

22,30,0,357,235,19,

22,30,0,354,234,23,

21,30,0,352,231,19,

21,29,0,350,231,21,

21,30,0,348,231,23,

21,29,0,346,230,23,

21,29,0,344,229,22,

21,29,0,343,227,19,

21,29,0,340,226,19,

20,28,0,338,225,19,

20,28,0,336,224,22,

20,28,0,335,223,22,

20,28,0,333,222,22,

20,28,0,331,221,22,

19,27,0,329,220,22,

20,27,0,327,218,21,

19,27,0,325,217,18,

19,27,0,323,216,17,

19,27,0,322,216,17,

19,27,0,319,214,18,

19,36,0,319,213,19,

19,39,0,316,211,21,

19,38,0,315,211,18,

19,38,0,313,210,20,

19,38,0,312,209,17,

19,38,0,310,208,19,

19,38,0,309,246,19,

19,37,0,307,243,21,

18,37,0,305,243,17,

18,36,0,304,241,20,

18,36,0,302,240,20,

18,36,0,301,239,21,

18,39,0,299,237,19,

19,39,0,297,236,20,

19,39,0,295,234,19,

19,39,0,295,233,17,

19,39,0,293,231,16,

19,38,0,294,295,20,

18,38,0,292,292,18,

18,38,0,291,290,20,

18,38,0,289,289,20,

18,37,0,287,287,17,

18,37,0,287,285,19,

17,37,0,285,284,19,

18,37,0,284,281,19,

18,36,0,282,280,16,

18,36,0,281,279,19,

17,36,0,280,277,16,

17,36,0,280,295,21,

17,35,0,305,292,18,

17,35,0,304,291,19,

17,35,0,301,289,18,

17,35,0,300,287,15,

16,35,0,298,286,18,

16,35,0,295,284,18,

16,34,0,295,283,15,

17,34,0,293,281,15,

16,34,0,291,280,16,

16,34,0,289,278,15,

16,34,0,287,276,17,

16,33,0,321,276,18,

16,33,0,319,275,17,

15,33,0,317,273,17,

15,33,0,316,271,16,

15,32,0,313,270,14,

15,35,0,312,269,17,

15,35,0,310,268,14,

16,35,0,307,266,16,

17,35,0,306,263,17,

17,34,0,304,263,16,

17,34,0,303,262,18,

17,34,0,304,275,18,

16,34,0,301,273,14,

16,34,0,300,271,15,

16,34,0,298,270,15,

16,33,0,297,268,15,

16,33,0,295,267,15,

16,35,0,293,265,18,

16,35,0,291,263,19,

16,35,0,290,262,15,

16,35,0,289,261,17,

16,34,0,287,259,15,

16,34,0,286,271,18,

16,34,0,284,270,14,

16,33,0,283,269,15,

16,33,0,281,268,14,

15,33,0,280,266,15,

15,33,0,278,263,17,

15,33,0,277,263,18,

15,33,0,275,261,15,

15,33,0,274,259,14,

15,33,0,273,259,14,

15,33,0,271,257,16,

15,32,0,281,257,14,

15,32,0,280,255,13,

15,31,0,278,254,15,

14,31,0,276,252,16,

15,31,0,275,251,16,

15,31,0,273,250,14,

14,31,0,271,248,16,

15,31,0,270,248,14,

15,31,0,269,246,14,

15,31,0,268,245,14,

15,31,0,266,243,16,

15,30,0,265,271,15,

14,31,0,309,269,17,

14,30,0,307,267,14,

14,30,0,306,265,17,

14,30,0,304,263,14,

14,30,0,302,263,13,

14,39,0,300,261,13,

14,38,0,297,259,13,

17,38,0,297,258,15,

16,38,0,295,257,15,

16,38,0,294,255,15,

16,37,0,291,254,15,

16,37,0,297,254,18,

16,37,0,295,252,15,

16,36,0,294,252,17,

15,36,0,293,250,17,

15,36,0,291,249,15,

15,35,0,289,248,15,

16,35,0,287,247,18,

17,35,0,286,245,16,

17,35,0,284,243,19,

17,35,0,283,243,16,

17,35,0,281,241,17,

17,35,0,280,261,17,

16,34,0,278,259,15,

17,34,0,277,258,16,

16,34,0,275,257,15,

16,34,0,274,255,15,

16,33,0,272,254,15,

16,33,0,271,252,15,

16,33,0,269,251,15,

16,33,0,268,249,18,

16,33,0,267,248,18,

15,33,0,265,247,17,

15,32,0,321,277,16,

15,32,0,326,275,17,

15,31,0,323,273,14,

15,31,0,322,271,14,

15,31,0,319,270,14,

15,31,0,318,268,15,

15,31,0,316,268,15,

15,31,0,314,265,15,

15,30,0,312,263,15,

15,31,0,310,263,18,

15,31,0,309,261,13,

15,30,0,307,260,13,

15,30,0,305,258,14,

15,30,0,304,257,14,

15,29,0,302,255,17,

15,29,0,300,254,17,

15,29,0,298,253,17,

15,29,0,297,252,14,

15,29,0,295,250,15,

15,29,0,293,249,16,

15,29,0,292,248,14,

15,29,0,290,246,13,

15,28,0,289,245,16,

14,28,0,303,243,14,

14,28,0,301,243,14,

14,28,0,299,241,14,

14,28,0,297,240,15,

14,28,0,295,238,14,

14,28,0,294,238,15,

21,28,0,293,236,19,

24,28,0,291,235,22,

24,28,0,289,233,24,

24,27,0,287,231,25,

23,28,0,286,231,26,

23,27,0,310,245,22,

23,27,0,307,243,23,

23,27,0,305,242,24,

23,27,0,304,240,24,

23,27,0,302,240,24,

22,44,0,300,238,22,

22,56,0,299,237,22,

22,56,0,297,236,21,

22,55,0,295,234,22,

22,55,0,293,233,24,

22,55,0,291,231,21,

22,54,0,290,249,24,

21,54,0,289,248,20,

22,53,0,287,246,21,

21,53,0,285,245,23,

21,53,0,284,243,23,

21,53,0,283,242,22,

21,53,0,281,241,20,

22,52,0,280,240,22,

22,52,0,278,238,24,

22,52,0,277,237,24,

22,51,0,275,236,23,

22,51,0,287,257,24,

21,51,0,284,255,24,

21,51,0,283,254,21,

21,50,0,281,252,20,

21,50,0,280,252,21,

21,50,0,278,249,19,

21,50,0,276,249,22,

22,49,0,275,248,20,

22,49,0,273,246,21,

22,49,0,271,244,24,

22,48,0,270,243,21,

22,48,0,269,243,23,

21,48,0,268,243,22,

21,48,0,267,242,20,

21,48,0,265,240,20,

21,47,0,263,239,23,

21,47,0,263,238,22,

21,56,0,262,236,23,

22,56,0,260,236,24,

22,55,0,259,233,24,

22,55,0,257,231,24,

22,54,0,255,231,21,

22,54,0,255,265,23,

22,54,0,271,265,20,

22,54,0,270,263,20,

22,53,0,268,262,21,

21,53,0,266,260,24,

21,52,0,265,259,21,

21,52,0,263,257,24,

24,51,0,262,255,24,

24,51,0,260,254,25,

24,51,0,259,253,23,

24,51,0,258,251,25,

24,51,0,255,250,24,

24,50,0,333,285,25,

23,50,0,332,283,25,

23,50,0,331,281,26,

23,50,0,327,280,21,

23,49,0,326,278,21,

23,49,0,324,276,24,

23,49,0,322,275,20,

22,48,0,320,273,21,

22,48,0,318,271,22,

22,48,0,316,270,20,

22,48,0,315,269,20,

22,47,0,313,268,24,

21,47,0,312,266,20,

21,47,0,310,265,23,

21,47,0,307,263,24,

21,46,0,306,262,23,

21,46,0,304,260,19,

21,46,0,303,259,22,

21,46,0,301,258,20,

21,45,0,300,255,23,

21,45,0,298,255,21,

21,45,0,295,253,23,

21,45,0,308,252,21,

20,44,0,318,251,19,

20,44,0,316,249,21,

20,44,0,314,249,21,

20,44,0,312,247,18,

19,44,0,310,246,21,

19,43,0,308,244,19,

19,43,0,307,243,19,

19,43,0,305,242,21,

19,42,0,303,241,21,

19,42,0,301,239,21,

19,42,0,300,238,17,

19,42,0,298,237,19,

19,41,0,295,236,17,

19,41,0,295,235,20,

18,41,0,293,233,17,

18,41,0,291,231,18,

18,40,0,290,231,19,

18,39,0,287,230,18,

18,39,0,287,229,19,

18,39,0,285,227,19,

18,39,0,284,226,16,

17,39,0,283,225,19,

17,39,0,281,225,17,

17,39,0,280,224,16,

17,39,0,278,223,15,

17,39,0,276,222,18,

17,38,0,275,220,19,

17,38,0,273,220,15,

18,39,0,272,219,19,

20,38,0,271,217,18,

20,38,0,270,216,21,

19,38,0,268,216,18,

19,37,0,267,214,19,

19,37,0,278,235,18,

19,37,0,275,233,19,

19,37,0,274,231,21,

19,36,0,272,231,22,

19,36,0,271,229,18,

19,36,0,269,227,20,

19,35,0,268,227,18,

19,35,0,267,225,20,

20,35,0,265,224,18,

19,35,0,263,223,18,

19,35,0,262,222,18,

19,35,0,305,241,18,

19,35,0,303,240,21,

19,34,0,301,239,18,

19,34,0,300,237,21,

19,34,0,297,236,18,

18,34,0,295,235,17,

18,34,0,294,233,17,

18,34,0,292,231,17,

18,34,0,291,231,17,

18,34,0,289,230,20,

18,33,0,287,228,17,

18,34,0,302,263,19,

18,33,0,300,262,18,

18,33,0,299,260,17,

17,33,0,295,258,16,

17,33,0,295,257,16,

17,32,0,294,255,16,

17,39,0,291,254,18,

19,39,0,290,253,16,

19,39,0,287,251,18,

19,39,0,287,250,21,

19,39,0,285,248,18,

19,39,0,284,252,20,

18,38,0,282,251,21,

18,38,0,280,249,17,

18,38,0,280,248,17,

18,38,0,277,247,20,

18,38,0,275,245,17,

17,38,0,275,243,17,

18,37,0,273,243,17,

18,37,0,271,241,20,

18,37,0,270,240,17,

18,36,0,268,239,16,

18,36,0,268,259,18,

17,36,0,291,258,17,

17,36,0,289,255,17,

18,35,0,287,255,17,

17,35,0,286,253,16,

17,35,0,284,252,16,

17,35,0,282,251,19,

17,35,0,281,249,17,

17,35,0,280,248,19,

17,34,0,278,247,16,

17,34,0,275,245,19,

17,34,0,274,243,15,

16,34,0,273,243,18,

17,34,0,271,241,15,

17,33,0,270,240,16,

16,33,0,268,239,15,

16,33,0,268,237,16,

16,33,0,266,236,15,

16,34,0,263,235,19,

17,34,0,263,233,15,

17,34,0,262,233,15,

17,34,0,261,231,15,

17,33,0,259,230,15,

17,33,0,335,247,19,

16,33,0,344,245,19,

17,33,0,341,243,19,

16,33,0,339,242,19,

17,32,0,336,241,16,

16,32,0,334,240,18,

15,32,0,333,238,17,

16,31,0,330,237,15,

15,31,0,327,235,16,

16,31,0,327,234,15,

15,31,0,325,233,15,

15,31,0,323,263,16,

15,31,0,321,261,18,

15,31,0,319,259,14,

15,31,0,317,258,16,

15,30,0,316,255,13,

15,30,0,314,255,14,

15,32,0,312,253,17,

15,31,0,310,252,15,

15,31,0,309,251,17,

15,31,0,307,249,17,

15,31,0,305,248,15,

15,31,0,304,246,17,

15,31,0,302,245,17,

15,31,0,300,244,15,

15,30,0,299,243,14,

15,31,0,297,241,14,

14,30,0,295,240,14,

14,30,0,294,239,14,

17,30,0,292,237,16,

17,30,0,291,236,16,

17,30,0,289,235,19,

17,29,0,287,233,15,

17,29,0,287,235,16,

16,29,0,363,234,18,

16,29,0,359,231,18,

17,29,0,358,231,17,

16,28,0,355,230,15,

16,28,0,353,229,15,

16,28,0,351,227,17,

16,28,0,349,227,18,

16,28,0,347,225,17,

16,28,0,345,224,18,

16,28,0,343,224,18,

15,28,0,341,222,15,

15,27,0,339,246,15,

15,27,0,337,245,16,

15,27,0,335,243,15,

15,27,0,333,242,17,

15,27,0,331,240,15,

15,26,0,329,239,15,

17,27,0,327,238,18,

18,26,0,326,236,16,

18,26,0,323,235,19,

18,26,0,322,233,16,

18,25,0,319,233,15,

17,26,0,321,267,17,

17,25,0,319,263,19,

17,25,0,317,263,18,

17,25,0,316,261,19,

17,25,0,314,260,19,

16,25,0,313,259,19,

17,27,0,311,257,22,

25,27,0,309,255,25,

25,27,0,307,254,23,

25,27,0,306,253,23,

25,27,0,304,251,24,

25,26,0,303,250,27,

24,26,0,301,249,27,

24,26,0,300,247,23,

24,26,0,297,246,25,

24,25,0,295,244,22,

24,25,0,295,243,25,

24,25,0,293,242,23,

24,25,0,291,240,24,

24,25,0,290,239,22,

23,25,0,288,238,25,

23,25,0,287,237,25,

23,25,0,286,263,28,

23,25,0,342,302,25,

22,24,0,339,300,22,

22,24,0,337,299,23,

22,24,0,335,297,20,

22,24,0,333,295,20,

22,24,0,331,293,21,

21,24,0,327,291,20,

22,24,0,327,290,23,

22,24,0,325,287,24,

21,24,0,323,286,23,

21,24,0,322,285,22,

21,24,0,319,283,22,

21,24,0,318,282,22,

21,23,0,316,280,18,

20,23,0,315,279,21,

20,23,0,312,277,19,

20,27,0,311,275,23,

20,31,0,309,274,22,

23,31,0,307,273,25,

22,31,0,306,271,23,

23,31,0,304,270,21,

23,31,0,303,268,24,

22,31,0,327,267,24,

22,30,0,331,265,21,

22,30,0,329,263,22,

22,30,0,327,263,22,

22,30,0,326,261,24,

21,29,0,323,260,24,

22,31,0,321,259,24,

21,31,0,319,257,23,

21,31,0,318,255,19,

21,31,0,316,255,22,

21,31,0,315,253,19,

21,31,0,313,252,22,

21,31,0,311,251,18,

20,30,0,309,249,20,

21,30,0,307,248,22,

20,30,0,305,247,19,

19,30,0,304,246,21,

20,35,0,302,245,22,

20,35,0,300,243,18,

19,35,0,299,242,21,

19,34,0,297,241,19,

19,34,0,295,240,18,

19,34,0,294,239,18,

19,34,0,292,238,21,

19,34,0,291,236,21,

19,33,0,289,236,20,

19,33,0,287,234,20,

18,33,0,286,233,18,

18,33,0,285,231,20,

20,33,0,284,231,18,

20,32,0,282,230,19,

20,31,0,281,228,19,

20,32,0,279,227,19,

19,31,0,278,248,23,

19,31,0,331,261,23,

19,31,0,327,259,19,

19,31,0,327,257,18,

19,31,0,324,255,19,

19,31,0,323,254,18,

19,31,0,319,253,18,

19,30,0,318,252,17,

18,30,0,317,250,18,

18,30,0,315,249,19,

18,30,0,313,248,19,

18,30,0,312,246,17,

18,30,0,310,245,19,

18,29,0,307,243,16,

18,29,0,306,242,16,

18,29,0,305,241,17,

18,29,0,303,240,17,

17,29,0,302,238,16,

19,28,0,300,237,21,

20,28,0,297,236,19,

20,28,0,295,235,19,

20,28,0,295,233,19,

19,28,0,294,231,19,

20,28,0,337,268,20,

19,27,0,335,266,19,

19,27,0,333,263,18,

19,27,0,331,263,18,

19,27,0,329,261,17,

19,27,0,327,260,18,

19,45,0,325,259,22,

19,45,0,323,257,19,

20,45,0,321,255,21,

19,44,0,319,254,21,

19,44,0,317,253,18,

19,44,0,329,263,19,

19,44,0,337,268,21,

19,43,0,334,266,17,

19,43,0,333,263,20,

19,43,0,330,263,19,

19,43,0,327,261,19,

18,43,0,327,259,18,

19,43,0,324,258,17,

19,42,0,323,255,18,

18,42,0,319,255,21,

19,42,0,319,254,17,

19,42,0,317,253,17,

18,41,0,316,251,18,

19,41,0,313,249,17,

18,41,0,312,249,20,

18,40,0,310,247,18,

18,40,0,308,246,20,

18,69,0,307,244,19,

19,69,0,305,243,20,

18,69,0,303,242,16,

18,69,0,302,240,17,

18,68,0,300,240,17,

18,67,0,299,271,20,

18,67,0,299,291,18,

17,67,0,297,289,18,

17,66,0,295,287,17,

17,66,0,294,286,17,

17,65,0,293,284,16,

17,65,0,291,283,16,

17,65,0,289,281,17,

20,64,0,287,279,19,

23,64,0,286,278,24,

23,63,0,285,276,25,

22,63,0,284,275,26,

22,63,0,333,311,23,

22,63,0,330,309,22,

22,62,0,327,307,24,

22,62,0,327,304,21,

22,62,0,324,304,21,

22,61,0,323,301,21,

22,61,0,320,300,23,

26,61,0,319,297,25,

26,60,0,317,295,25,

26,60,0,315,295,25,

26,60,0,313,292,24,

26,60,0,333,291,26,

25,59,0,332,289,24,

25,59,0,329,287,24,

25,59,0,327,286,27,

25,58,0,325,284,24,

25,58,0,323,284,27,

25,57,0,321,281,24,

25,57,0,319,280,25,

26,57,0,317,279,28,

26,56,0,316,277,28,

26,56,0,313,275,26,

26,56,0,312,274,24,

25,56,0,310,273,25,

25,56,0,309,271,25,

25,55,0,307,270,25,

25,55,0,305,269,28,

25,54,0,304,267,24,

25,54,0,302,265,27,

25,54,0,300,263,24,

25,53,0,299,263,24,

24,53,0,295,262,25,

24,53,0,295,260,23,

24,53,0,295,259,25,

24,52,0,300,257,25,

24,52,0,298,255,24,

24,52,0,295,254,25,

24,51,0,295,253,25,

24,51,0,292,252,25,

24,51,0,291,251,25,

23,51,0,290,250,25,

23,50,0,288,248,22,

23,50,0,286,247,22,

23,50,0,285,246,23,

23,50,0,284,244,22,

23,49,0,282,243,24,

23,49,0,281,242,21,

22,49,0,280,241,22,

22,49,0,278,240,24,

22,48,0,276,239,21,

22,48,0,275,238,35,

53,48,0,273,236,46,

52,48,0,271,236,48,

51,48,0,271,234,48,

51,48,0,270,233,52,

51,48,0,268,231,53,

51,47,0,345,285,53,

50,47,0,348,284,51,

50,46,0,346,281,51,

50,46,0,344,280,50,

49,46,0,342,278,47,

49,46,0,339,277,46,

49,65,0,337,275,46,

48,64,0,335,273,46,

48,63,0,334,271,47,

48,63,0,331,270,49,

48,63,0,330,269,46,

48,63,0,330,304,49,

47,63,0,327,302,48,

47,62,0,326,300,47,

47,61,0,324,297,45,

46,61,0,323,295,47,

46,61,0,319,294,44,

46,75,0,319,292,47,

45,75,0,317,291,47,

45,74,0,316,289,47,

45,73,0,313,287,45,

45,73,0,312,286,42,

44,73,0,323,284,44,

44,71,0,326,284,41,

44,71,0,325,281,41,

44,71,0,323,280,43,

43,71,0,319,278,41,

43,71,0,319,277,41,

43,70,0,317,275,44,

43,70,0,316,274,41,

43,70,0,313,272,43,

43,69,0,312,271,44,

42,69,0,310,270,43,

42,68,0,307,268,39,

41,68,0,307,267,41,

41,67,0,305,265,39,

41,67,0,303,263,42,

41,67,0,302,262,41,

41,66,0,300,261,42,

41,67,0,299,259,41,

41,67,0,295,259,38,

41,117,0,295,257,60,

133,239,0,293,255,126,

193,295,0,291,254,174,

191,291,0,337,253,180,

189,289,0,362,252,185,

188,287,0,359,250,182,

187,285,0,357,249,181,

185,291,0,354,247,182,

184,420,0,352,246,179,

183,415,0,349,244,178,

182,412,0,347,243,176,

181,409,0,344,241,178,

179,406,0,342,240,184,

235,403,0,355,239,218,

231,399,0,353,238,223,

230,397,0,350,236,223,

228,395,0,348,235,221,

226,391,0,345,233,223,

225,388,0,344,231,220,

223,386,0,341,231,219,

273,445,0,339,230,280,

378,598,0,336,228,359,

405,739,0,334,227,263,

401,729,0,332,226,237,

397,721,0,330,225,226,

394,713,0,327,224,212,

391,706,0,326,222,204,

388,699,0,323,221,230,

450,690,0,322,220,231,

445,684,0,319,219,207,

441,678,0,318,217,211,

438,671,0,316,216,214,

435,665,0,313,215,214,

432,659,0,332,243,216,

428,653,0,329,242,209,

425,647,0,327,240,210,

422,643,0,325,239,206,

419,636,0,323,237,195,

415,630,0,321,236,204,

413,625,0,319,234,207,

410,620,0,317,233,199,

408,615,0,315,231,196,

404,609,0,312,230,204,

402,605,0,311,229,195,

399,600,0,309,227,195,

396,595,1,307,226,178,

393,590,0,305,224,199,

391,583,0,304,223,207,

388,579,0,301,222,213,

386,575,0,300,221,203,

384,571,1,298,219,192,

381,566,1,295,218,184,

378,562,1,307,217,185,

376,558,1,305,216,188,

373,553,1,303,214,191,

371,550,1,301,213,190,

368,545,1,300,212,190,

366,540,1,297,211,196,

364,536,1,295,209,195,

361,533,1,294,207,185,

359,529,1,292,207,184,

357,525,1,290,206,189,

355,522,1,367,257,179,

353,518,1,384,255,179,

350,514,1,381,253,179,

349,510,2,379,251,177,

346,507,1,376,249,181,

344,503,1,373,248,181,

342,499,2,371,246,179,

339,496,2,368,244,179,

338,492,2,366,243,177,

335,489,2,363,241,188,

334,486,2,359,258,184,

332,482,2,358,255,179,

329,479,3,355,254,184,

327,476,2,353,253,176,

326,472,2,351,251,181,

324,469,3,349,249,179,

322,466,3,346,248,177,

319,463,3,344,246,179,

318,460,3,342,245,179,

316,457,3,339,243,184,

315,454,3,404,257,177,

313,451,3,401,255,179,

311,448,3,398,253,179,

309,445,3,395,252,182,

307,442,3,391,250,176,

306,440,3,390,248,176,

304,436,3,387,247,172,

302,433,3,384,245,177,

300,431,3,381,244,176,

299,428,3,379,289,176,

297,425,3,391,349,171,

295,423,3,388,345,169,

294,420,3,385,343,167,

292,417,3,384,341,161,

290,415,3,380,338,162,

289,412,3,377,335,161,

287,409,3,376,333,153,

286,408,3,373,331,156,

284,405,3,370,329,155,

283,402,3,368,327,153,

281,399,3,365,325,152,

280,398,3,363,323,153,

278,395,3,359,321,144,

276,393,3,358,319,147,

275,390,3,355,316,151,

273,387,3,353,315,148,

271,385,3,352,312,146,

270,383,3,349,311,145,

269,381,3,347,308,144,

268,379,3,347,307,140,

266,376,3,345,305,139,

263,374,3,343,303,140,

263,371,3,340,301,135,

262,370,3,338,300,140,

260,368,3,335,297,142,

259,365,3,334,295,141,

257,363,3,332,294,140,

255,361,3,330,291,138,

255,359,3,327,291,143,

253,357,3,326,289,135,

252,355,3,323,287,135,

251,353,3,322,285,135,

249,351,2,319,284,134,

248,349,3,318,282,135,

247,347,3,316,280,135,

246,345,3,315,279,137,

244,343,3,313,277,137,

243,341,2,311,275,134,

241,339,2,309,274,135,

240,337,3,364,342,131,

239,335,3,361,339,131,

238,334,2,359,336,130,

237,332,2,356,334,122,

236,330,2,353,332,127,

234,327,2,351,329,124,

233,326,2,349,327,120,

231,324,2,347,325,121,

231,323,2,344,323,120,

229,321,2,342,321,122,

228,319,2,369,321,119,

227,318,2,366,319,120,

226,316,2,364,318,120,

224,314,2,361,315,115,

224,312,2,359,313,127,

222,311,2,357,311,126,

221,309,2,354,309,126,

220,307,2,352,307,125,

219,305,2,350,305,120,

218,304,2,347,303,120,

217,302,2,344,301,121,

216,300,2,342,300,115,

214,299,2,339,297,111,

213,297,2,338,295,114,

212,295,2,335,294,115,

211,295,2,334,292,113,

210,292,2,331,290,114,

209,291,2,329,289,116,

207,289,1,327,287,113,

207,287,2,350,327,116,

206,286,1,371,325,116,

205,285,2,368,323,117,

204,284,2,366,321,118,

203,282,2,363,319,115,

202,280,1,359,316,111,

201,280,1,358,314,107,

199,277,1,355,312,105,

199,276,2,353,310,108,

198,275,1,351,308,110,

197,274,2,403,354,115,

196,271,1,399,351,112,

195,270,1,396,348,111,

194,269,2,391,346,109,

193,268,1,390,344,109,

192,266,1,387,341,110,

192,265,1,384,338,105,

190,263,1,382,335,103,

190,262,1,379,334,107,

189,261,1,376,332,107,

188,259,1,421,382,103,

187,258,1,415,379,108,

185,257,1,413,376,106,

185,255,1,410,373,105,

184,255,1,407,370,101,

183,253,1,404,368,99,

182,252,1,401,365,96,

181,251,1,398,363,98,

180,249,1,396,359,98,

179,248,1,393,358,97,

179,247,1,390,355,96,

178,246,1,387,353,91,

177,244,1,385,351,92,

176,243,1,384,349,93,

176,242,1,380,347,92,

175,241,1,378,344,93,

174,240,1,376,342,94,

173,239,1,373,340,89,

172,238,1,371,338,92,

171,237,1,368,335,91,

170,236,1,369,334,96,

169,235,1,366,332,88,

169,233,1,364,331,89,

167,231,1,361,327,85,

167,231,1,359,326,82,

167,230,1,357,324,83,

166,229,1,355,323,86,

165,227,1,353,320,88,

164,227,1,351,319,85,

163,226,1,349,317,88,

163,224,1,348,327,86,

162,224,1,350,326,83,

161,223,1,348,323,84,

161,222,1,345,321,85,

159,221,1,344,319,89,

159,219,1,341,318,88,

158,218,1,339,316,88,

158,217,1,337,314,85,

157,216,1,335,312,88,

156,216,1,333,310,83,

155,214,1,331,308,82,

155,213,1,329,307,84,

154,212,1,327,305,86,

153,211,1,326,303,86,

152,210,1,323,301,81,

152,209,1,322,300,83,

152,208,1,319,298,83,

151,207,1,318,295,83,

150,207,1,316,295,86,

149,205,1,315,293,84,

149,205,1,313,291,82,

148,204,1,319,319,81,

147,203,1,317,316,79,

146,201,1,315,314,78,

146,201,1,313,312,79,

145,199,1,311,310,76,

144,199,1,310,307,75,

143,198,1,307,306,76,

143,197,0,306,304,75,

142,196,1,304,302,79,

142,195,1,302,300,80,

141,195,1,348,313,81,

140,193,0,345,312,79,

140,193,0,343,309,78,

139,192,1,341,307,75,

139,191,1,338,305,73,

138,190,0,335,304,73,

137,189,1,334,302,76,

137,188,0,332,300,73,

135,188,0,330,298,75,

135,186,0,327,295,71,

135,185,1,339,305,73,

135,185,0,396,303,74,

134,184,0,393,301,71,

133,183,0,390,299,71,

132,183,0,387,297,71,

131,182,0,385,295,71,

134,181,1,382,294,103,

210,188,1,380,291,105,

209,188,0,377,290,103,

207,187,1,374,287,110,

206,186,0,372,305,110,

204,185,0,396,302,106,

203,184,0,391,300,105,

202,183,0,389,298,103,

199,182,0,386,295,102,

199,181,0,384,294,103,

198,179,1,381,292,100,

197,179,0,379,291,103,

195,178,0,376,288,102,

194,177,0,373,287,99,

193,176,0,401,301,99,

192,176,0,398,300,98,

191,174,0,395,297,101,

190,173,0,391,295,100,

189,172,0,389,294,100,

188,172,0,386,291,95,

187,171,1,384,290,99,

186,170,0,381,287,103,

185,169,1,378,286,105,

184,169,0,376,285,99,

183,167,0,373,283,99,

182,167,0,371,281,99,

181,166,0,368,280,97,

180,166,0,366,278,100,

179,165,0,364,277,101,

178,164,0,361,275,98,

177,163,0,359,273,97,

176,163,0,357,271,96,

175,162,0,354,271,99,

174,161,0,352,269,100,

173,160,0,355,270,99,

172,159,0,355,268,99,

171,159,0,353,268,93,

170,158,0,351,266,90,

169,158,0,348,263,89,

167,157,0,347,263,89,

167,156,0,344,262,91,

167,156,0,342,260,93,

166,155,0,340,259,90,

165,154,0,339,257,89,

163,153,0,336,255,88,

163,153,0,335,255,89,

162,152,0,332,253,91,

161,152,0,331,252,87,

160,151,0,327,251,88,

159,150,0,327,249,86,

159,150,0,324,248,88,

158,149,0,323,247,84,

157,148,0,321,246,81,

156,147,0,319,244,78,

156,147,0,317,249,82,

155,146,0,339,362,83,

154,145,0,337,358,81,

153,144,0,335,355,79,

152,144,0,333,353,81,

152,143,0,331,351,81,

151,143,0,329,348,79,

150,142,0,327,346,82,

149,142,0,325,344,79,

148,141,0,323,342,79,

147,140,0,320,339,79,

147,140,0,319,340,78,

146,139,0,319,338,76,

145,139,0,319,335,80,

144,138,0,316,333,76,

143,137,0,315,331,73,

143,137,0,313,329,71,

142,135,0,311,327,74,

142,135,0,310,325,75,

141,135,0,307,323,73,

140,134,0,306,321,77,

140,133,0,304,319,76,

139,133,0,303,317,79,

138,132,0,301,315,76,

137,131,0,299,313,71,

137,131,0,297,312,77,

135,131,0,295,310,78,

135,130,0,294,307,79,

135,129,0,292,306,73,

134,129,0,291,304,77,

133,128,0,289,303,74,

133,127,0,287,302,75,

132,127,0,287,301,71,

131,126,0,285,299,75,

131,126,0,284,297,71,

130,125,0,282,295,69,

130,125,0,280,293,73,

129,124,0,279,291,73,

128,124,0,277,290,70,

127,123,0,275,289,71,

127,123,0,274,287,70,

126,122,0,273,286,68,

126,121,0,312,300,71,

126,121,0,310,297,71,

125,121,0,307,295,73,

124,120,0,305,294,71,

124,120,0,304,291,71,

123,119,0,302,290,71,

123,118,0,300,287,69,

122,118,0,298,287,71,

121,117,0,295,285,71,

121,117,0,295,283,71,

120,117,0,306,286,71,

120,115,0,304,284,68,

119,115,0,302,282,67,

119,115,0,300,281,64,

118,114,0,299,279,63,

118,114,0,295,277,65,

117,113,0,295,275,67,

117,113,0,293,274,63,

116,112,0,291,273,65,

115,112,0,289,271,62,

115,112,0,319,327,63,

115,110,0,323,324,62,

114,110,0,321,322,62,

113,110,0,319,319,60,

113,109,0,316,317,59,

112,109,0,315,316,62,

112,108,0,312,313,60,

112,108,0,311,312,57,

111,107,0,308,310,59,

110,107,0,307,307,57,

110,107,0,305,308,57,

109,106,0,303,306,56,

109,105,0,301,304,58,

108,105,0,300,303,61,

108,103,0,297,300,57,

108,103,0,295,299,58,

107,103,0,294,297,61,

107,103,0,292,295,60,

106,103,0,290,293,58,

105,102,0,289,291,59,

105,102,0,287,290,59,

103,101,0,307,290,59,

103,101,0,304,287,58,

103,100,0,302,286,56,

103,100,0,300,285,56,

103,99,0,300,283,57,

102,99,0,297,281,56,

102,98,0,295,280,58,

101,98,0,294,278,56,

101,98,0,292,277,55,

100,97,0,290,275,57,

100,97,0,288,275,56,

99,96,0,287,273,55,

99,96,0,286,271,56,

99,96,0,284,270,56,

98,96,0,283,269,56,

98,95,0,281,268,56,

97,94,0,280,267,54,

97,94,0,278,265,54,

97,94,0,276,263,53,

96,94,0,275,263,56,

96,93,0,273,261,52,

96,93,0,273,259,53,

95,93,0,271,259,52,

95,92,0,270,257,54,

94,92,0,269,255,54,

94,91,0,268,255,54,

94,91,0,266,253,54,

93,90,0,265,252,56,

93,90,0,263,251,53,

92,89,0,263,249,56,

92,89,0,261,248,53,

92,89,0,260,247,54,

91,88,0,259,246,52,

91,88,0,257,245,51,

91,88,0,255,243,51,

90,88,0,255,243,50,

89,87,0,254,241,51,

89,87,0,252,240,51,

89,86,0,252,239,54,

89,86,0,250,238,49,

88,86,0,249,237,53,

88,85,0,248,236,49,

88,85,0,247,235,50,

87,84,0,246,234,50,

87,84,0,244,265,53,

86,83,0,243,263,50,

86,83,0,242,262,49,

86,83,0,241,260,49,

85,83,0,240,259,52,

85,82,0,239,257,49,

84,82,0,238,255,48,

84,82,0,236,254,49,

83,81,0,236,253,51,

83,81,0,235,252,48,

83,80,0,233,251,48,

83,80,0,231,249,48,

82,80,0,231,248,48,

82,79,0,230,246,50,

81,79,0,229,245,49,

81,79,0,228,243,49,

81,79,0,227,242,49,

81,78,0,226,241,49,

80,78,0,225,240,44,

79,78,0,224,238,44,

79,78,0,223,237,44,

79,77,0,222,236,45,

79,77,0,226,268,45,

79,77,0,225,266,44,

78,76,0,224,263,44,

78,76,0,222,263,48,

77,75,0,222,261,43,

77,75,0,221,260,42,

77,75,0,220,258,42,

77,75,0,219,257,43,

77,74,0,217,255,45,

76,74,0,217,254,43,

76,74,0,216,252,45,

76,73,0,216,263,46,

75,73,0,214,285,43,

75,73,0,213,283,44,

74,71,0,212,280,41,

74,71,0,211,280,41,

74,71,0,211,277,43,

73,71,0,209,276,41,

73,71,0,209,275,41,

73,71,0,207,272,41,

73,71,0,207,271,44,

71,70,0,206,270,39,

71,70,0,206,269,43,

71,70,0,207,267,39,

71,70,0,206,265,39,

71,69,0,204,263,42,

71,69,0,204,263,43,

71,69,0,203,261,42,

70,68,0,202,259,39,

70,68,0,201,259,39,

70,68,0,199,257,41,

69,67,0,199,255,41,

69,67,0,199,254,41,

69,67,0,198,253,41,

68,67,0,197,253,39,

68,67,0,197,252,39,

68,66,0,195,250,39,

67,66,0,195,249,39,

67,65,0,194,248,38,

67,65,0,193,247,39,

67,65,0,192,245,37,

67,65,0,192,243,38,

66,65,0,191,243,39,

66,64,0,190,241,38,

65,63,0,189,240,39,

65,63,0,189,253,39,

65,63,0,188,252,35,

65,63,0,187,249,36,

64,63,0,186,248,37,

64,63,0,185,247,39,

63,62,0,185,245,39,

63,62,0,184,244,39,

63,62,0,184,243,37,

63,62,0,183,241,37,

63,61,0,182,240,38,

63,61,0,181,239,37,

62,61,0,181,238,39,

62,61,0,179,236,37,

62,60,0,179,235,37,

61,60,0,178,234,39,

61,60,0,177,233,36,

61,60,0,177,231,39,

61,59,0,176,231,39,

60,59,0,176,230,36,

60,59,0,175,228,36,

60,59,0,174,227,39,

60,58,0,173,226,38,

59,58,0,173,268,41,

59,58,0,217,290,38,

59,57,0,216,287,38,

59,57,0,216,285,36,

59,57,0,214,284,34,

58,57,0,213,282,34,

58,57,0,211,281,35,

57,56,0,210,279,34,

57,56,0,209,278,35,

57,56,0,207,275,37,

57,56,0,207,274,34,

57,56,0,206,273,37,

56,56,0,217,316,33,

56,55,0,216,314,35,

56,55,0,214,312,34,

56,54,0,213,310,36,

56,54,0,211,307,32,

55,54,0,210,306,35,

55,54,0,209,304,35,

54,53,0,208,303,36,

55,53,0,207,301,35,

54,53,0,206,299,33,

54,53,0,205,297,35,

54,52,0,230,295,32,

54,52,0,228,294,33,

54,52,0,227,293,34,

53,52,0,225,291,33,

53,51,0,225,289,32,

53,51,0,224,287,35,

52,51,0,222,286,35,

52,51,0,221,285,34,

51,51,0,220,283,34,

51,50,0,219,281,33,

51,50,0,217,280,29,

51,50,0,216,279,31,

51,50,0,215,277,30,

51,50,0,214,275,33,

51,50,0,213,274,31,

50,49,0,211,273,33,

50,49,0,211,271,32,

50,49,0,209,270,30,

50,49,0,209,268,31,

49,48,0,207,267,30,

49,48,0,206,265,28,

49,48,0,205,263,28,

49,48,0,205,290,28,

48,48,0,204,287,28,

48,47,0,203,286,30,

48,47,0,202,284,31,

48,47,0,201,282,31,

48,47,0,199,281,27,

47,47,0,199,279,30,

47,46,0,198,277,28,

47,46,0,197,275,30,

47,46,0,195,274,27,

47,45,0,195,273,28,

47,45,0,194,287,30,

46,45,0,254,284,28,

46,45,0,253,283,29,

46,45,0,251,281,30,

46,45,0,249,280,28,

45,45,0,248,278,28,

45,44,0,247,276,29,

45,44,0,246,274,28,

45,44,0,243,273,28,

45,44,0,242,271,30,

44,43,0,241,270,30,

44,44,0,240,269,30,

44,43,0,239,267,29,

44,43,0,238,266,27,

44,43,0,236,263,30,

44,43,0,235,263,27,

43,43,0,233,262,27,

43,42,0,231,260,27,

43,42,0,231,259,27,

43,41,0,230,257,28,

43,41,0,229,255,29,

42,41,0,227,255,25,

42,41,0,227,253,25,

42,41,0,225,252,25,

41,41,0,224,251,25,

42,41,0,223,249,26,

41,40,0,222,248,26,

41,40,0,221,247,26,

41,39,0,220,246,25,

39,39,0,219,244,27,

40,39,0,217,243,25,

39,39,0,216,242,27,

39,39,0,216,241,25,

39,39,0,215,240,25,

39,39,0,233,254,25,

39,39,0,231,252,24,

39,39,0,230,251,24,

39,39,0,228,250,28,

39,38,0,227,248,25,

39,38,0,226,247,25,

39,38,0,225,246,25,

39,38,0,224,244,25,

39,38,0,222,243,24,

38,37,0,221,241,24,

38,37,0,220,240,23,

38,37,0,219,281,24,

38,37,0,217,289,23,

38,37,0,217,287,23,

37,37,0,216,286,26,

37,37,0,214,284,23,

37,36,0,213,283,25,

37,36,0,212,281,22,

37,36,0,211,280,22,

36,35,0,210,278,22,

37,35,0,209,276,25,

36,35,0,207,275,22,

36,35,0,207,273,22,

35,35,0,212,271,21,

35,35,0,211,270,21,

35,35,0,210,269,21,

35,35,0,209,267,21,

35,34,0,207,265,22,

35,34,0,207,263,21,

35,34,0,206,263,21,

35,34,0,205,262,21,

35,34,0,204,260,21,

34,34,0,203,258,21,

34,34,0,202,258,25,

34,34,0,251,280,21,

34,33,0,249,278,24,

34,33,0,248,277,21,

33,33,0,246,275,23,

33,33,0,244,273,19,

33,33,0,243,271,23,

33,33,0,242,270,20,

33,32,0,241,269,20,

32,32,0,239,268,20,

32,32,0,238,266,20,

32,31,0,237,263,20,

32,31,0,239,307,24,

32,31,0,238,304,20,

32,31,0,236,303,19,

31,31,0,235,300,19,

31,31,0,233,299,20,

31,31,0,231,297,22,

31,31,0,231,295,23,

31,30,0,230,294,22,

31,30,0,229,292,22,

31,30,0,227,291,19,

31,30,0,226,289,21,

30,30,0,265,327,24,

30,30,0,304,325,20,

30,30,0,302,323,19,

30,30,0,300,321,19,

30,30,0,298,319,19,

30,29,0,295,317,19,

30,29,0,295,316,22,

30,29,0,293,313,18,

30,29,0,291,312,20,

29,29,0,290,310,18,

29,29,0,287,307,18,

29,29,0,286,306,21,

29,29,0,285,304,18,

29,28,0,283,303,21,

29,28,0,282,301,18,

29,28,0,280,300,18,

28,28,0,279,297,20,

28,28,0,278,295,20,

28,28,0,275,295,20,

28,28,0,274,293,18,

28,28,0,273,291,18,

28,28,0,271,290,17,

27,27,0,270,289,17,

27,27,0,268,289,17,

27,27,0,267,287,16,

27,27,0,266,286,19,

27,27,0,263,284,16,

27,26,0,263,283,17,

27,27,0,261,281,18,

27,26,0,260,280,19,

27,26,0,259,279,18,

27,26,0,258,277,16,

26,26,0,255,275,16,

26,26,0,255,274,19,

26,25,0,289,273,19,

26,25,0,287,271,19,

26,25,0,286,270,18,

25,25,0,284,269,19,

25,25,0,282,268,16,

25,25,0,281,265,16,

25,25,0,279,265,18,

25,25,0,278,263,15,

25,25,0,276,262,18,

25,24,0,275,261,15,

25,24,0,273,259,16,

24,25,0,278,259,17,

24,24,0,276,258,15,

24,24,0,275,257,17,

24,24,0,273,255,17,

24,24,0,271,254,14,

24,24,0,270,253,15,

24,24,0,269,252,17,

24,24,0,267,251,17,

24,24,0,266,249,17,

24,24,0,263,248,17,

24,23,0,263,247,17,

24,24,0,290,304,18,

23,23,0,304,302,17,

24,23,0,302,300,14,

23,23,0,300,298,15,

23,23,0,299,295,14,

22,23,0,295,295,14,

22,23,0,295,292,17,

22,22,0,293,291,14,

22,22,0,291,289,16,

22,22,0,290,287,13,

22,22,0,288,286,16,

22,22,0,287,284,14,

22,22,0,285,283,16,

22,22,0,284,281,13,

22,21,0,282,280,16,

21,21,0,280,278,16,

22,21,0,280,277,16,

22,21,0,277,275,15,

22,21,0,275,274,15,

21,21,0,275,271,16,

21,21,0,273,271,13,

21,21,0,271,269,12,

21,21,0,270,268,14,

21,21,0,269,267,13,

21,21,0,268,265,13,

21,20,0,266,263,16,

21,20,0,265,263,15,

20,20,0,263,261,15,

20,20,0,262,259,15,

20,20,0,261,258,15,

20,20,0,259,257,12,

20,20,0,258,255,14,

19,19,0,256,254,13,

20,19,0,255,253,15,

20,19,0,282,276,15,

20,19,0,280,275,15,

20,19,0,279,273,15,

19,19,0,277,271,12,

19,19,0,275,270,15,

19,19,0,274,269,14,

19,19,0,271,267,12,

19,19,0,271,265,13,

19,18,0,269,263,12,

19,18,0,268,263,14,

19,18,0,267,261,14,

19,18,0,274,287,15,

19,18,0,273,284,14,

18,18,0,271,283,11,

18,18,0,270,281,13,

18,18,0,268,280,11,

18,18,0,267,278,14,

18,18,0,265,276,11,

18,17,0,263,275,14,

18,17,0,262,273,14,

18,17,0,260,271,12,

18,17,0,259,270,14,

18,17,0,289,318,16,

17,17,0,303,335,11,

17,17,0,301,333,11,

17,17,0,299,332,11,

17,17,0,297,329,11,

17,17,0,295,327,11,

17,16,0,294,325,13,

17,16,0,292,323,13,

17,16,0,291,322,10,

16,16,0,289,319,12,

17,16,0,287,318,13,

17,16,0,286,316,13,

16,16,0,285,313,9,

16,16,0,284,312,10,

16,15,0,281,311,9,

16,16,0,280,309,12,

16,15,0,279,307,12,

16,15,0,277,306,10,

16,15,0,275,304,12,

16,15,0,274,303,9,

16,15,0,273,300,12,

15,15,0,271,299,12,

15,15,0,270,297,9,

15,15,0,275,295,12,

15,15,0,275,294,9,

15,15,0,273,293,9,

15,15,0,271,291,10,

15,15,0,270,290,9,

15,15,0,269,287,9,

15,15,0,267,287,9,

15,14,0,266,285,9,

