
70,103,0,315,307,0,

69,103,0,313,306,0,

69,103,0,312,304,0,

69,102,0,310,302,0,

68,101,0,307,301,0,

67,101,0,306,312,0,

67,100,0,305,339,0,

67,99,0,302,338,0,

66,99,0,301,335,0,

66,99,0,300,334,0,

66,98,0,298,332,0,

66,98,0,295,329,0,

67,98,0,295,327,0,

67,97,0,293,326,0,

67,96,0,291,324,0,

66,97,0,290,323,0,

65,96,0,289,319,0,

65,95,0,287,344,0,

65,95,0,332,342,0,

65,94,0,329,339,0,

64,94,0,327,338,0,

63,93,0,325,335,0,

63,93,0,323,334,0,

69,101,0,321,331,0,

69,101,0,319,329,0,

68,100,0,317,327,0,

67,99,0,316,326,0,

67,99,0,314,323,0,

67,99,0,312,322,0,

67,98,0,311,359,0,

66,98,0,309,357,0,

66,97,0,307,355,0,

66,96,0,305,353,0,

65,96,0,304,351,0,

65,96,0,303,348,0,

69,99,0,301,347,0,

67,98,0,299,344,0,

67,98,0,297,342,0,

67,97,0,295,341,0,

66,97,0,295,338,0,

66,96,0,293,337,0,

66,96,0,291,335,0,

66,95,0,290,333,0,

65,94,0,288,331,0,

65,94,0,287,329,0,

64,93,0,286,327,0,

65,103,0,284,326,0,

71,103,0,283,323,0,

71,103,0,281,322,0,

71,103,0,280,319,0,

71,102,0,278,318,0,

70,102,0,277,316,0,

70,101,0,275,315,0,

70,100,0,274,313,0,

69,99,0,272,312,0,

69,99,0,271,310,0,

68,99,0,270,308,0,

68,98,0,269,306,0,

73,103,0,267,305,0,

71,103,0,266,304,0,

71,103,0,263,301,0,

71,103,0,263,300,0,

71,102,0,262,298,0,

71,102,0,260,318,0,

70,101,0,299,350,0,

70,100,0,297,348,0,

69,100,0,295,345,0,

69,99,0,293,344,0,

69,99,0,291,342,0,

74,101,0,290,339,0,

74,99,0,288,338,0,

73,99,0,287,335,0,

73,99,0,285,334,0,

71,98,0,283,332,0,

71,97,0,282,330,0,

71,97,0,280,362,0,

71,96,0,280,359,0,

71,96,0,278,357,0,

71,96,0,276,355,0,

70,95,0,275,352,0,

69,95,0,273,351,0,

70,94,0,271,348,0,

69,94,0,271,347,0,

68,93,0,269,345,0,

68,93,0,268,343,0,

68,92,0,266,341,0,

67,92,0,265,339,0,

67,91,0,287,348,0,

67,91,0,285,346,0,

66,90,0,284,344,0,

66,90,0,281,342,0,

66,89,0,280,339,0,

65,89,0,279,338,0,

66,102,0,277,335,0,

65,101,0,275,334,0,

65,100,0,274,332,0,

64,100,0,271,330,0,

63,99,0,271,327,0,

63,99,0,269,327,0,

63,98,0,300,325,0,

63,98,0,298,323,0,

63,97,0,297,321,0,

62,97,0,295,319,0,

62,96,0,293,318,0,

62,96,0,291,316,0,

62,95,0,290,315,0,

62,94,0,288,312,0,

61,95,0,287,312,0,

61,94,0,285,310,0,

61,93,0,284,308,0,

61,93,0,282,327,0,

61,92,0,281,326,0,

60,92,0,280,324,0,

60,92,0,278,322,0,

60,91,0,276,319,0,

59,91,0,275,318,0,

62,93,0,274,316,0,

62,92,0,271,315,0,

61,92,0,271,313,0,

61,91,0,269,312,0,

60,90,0,268,310,0,

60,90,0,267,307,0,

60,90,0,303,356,0,

60,89,0,319,353,0,

59,89,0,317,352,0,

59,88,0,315,349,0,

59,88,0,313,347,0,

58,88,0,312,345,0,

58,87,0,310,344,0,

57,87,0,307,341,0,

57,86,0,306,339,0,

57,86,0,304,337,0,

57,85,0,303,335,0,

56,85,0,302,333,0,

56,84,0,301,332,0,

56,84,0,300,330,0,

56,83,0,297,327,0,

55,83,0,295,326,0,

55,100,0,295,325,0,

91,139,0,293,323,0,

91,140,0,291,321,0,

89,140,0,290,319,0,

89,139,0,287,318,0,

89,137,0,286,316,0,

88,136,0,285,313,0,

88,135,0,283,312,0,

87,135,0,282,310,0,

87,135,0,280,308,0,

86,134,0,279,307,0,

85,133,0,277,305,0,

85,132,0,275,304,0,

85,131,0,274,302,0,

84,131,0,273,300,0,

83,130,0,271,299,0,

83,129,0,270,297,0,

83,129,0,268,295,0,

82,128,0,268,339,0,

82,127,0,306,337,0,

81,127,0,304,334,0,

81,126,0,302,332,0,

80,125,0,300,331,0,

79,161,0,299,327,0,

113,216,0,295,326,0,

112,213,0,295,324,0,

111,211,0,293,322,0,

110,210,0,291,319,0,

109,209,0,290,318,0,

109,207,0,288,335,0,

108,206,0,318,332,0,

107,205,0,315,329,0,

107,204,0,313,327,0,

106,203,0,311,326,0,

106,218,0,308,323,0,

115,249,0,307,321,0,

114,247,0,305,319,0,

113,245,0,304,318,0,

112,243,0,301,316,0,

112,242,0,300,313,0,

111,241,0,317,327,0,

111,239,0,316,325,0,

110,238,0,314,323,0,

109,236,0,312,321,0,

109,235,0,310,319,0,

108,233,0,308,317,0,

107,231,0,306,315,0,

107,231,0,305,313,0,

106,230,0,303,311,0,

105,229,0,301,309,0,

105,227,0,299,307,0,

103,226,0,349,347,0,

103,224,0,348,344,0,

103,223,0,345,342,0,

103,222,0,343,340,0,

102,300,0,341,338,0,

102,323,0,339,335,0,

101,320,0,336,334,0,

101,318,0,334,331,0,

100,316,0,332,329,0,

99,314,0,330,327,0,

99,312,0,327,326,0,

99,310,0,327,325,0,

98,308,0,325,323,0,

97,306,0,323,321,0,

97,305,0,321,319,0,

187,420,0,319,318,0,

309,463,0,317,316,0,

315,458,0,316,314,0,

312,455,0,313,312,0,

310,451,0,312,311,0,

307,448,0,310,308,0,

306,444,0,308,341,0,

304,442,0,321,338,0,

302,439,0,318,335,0,

300,435,0,316,334,0,

298,432,0,315,332,0,

295,430,0,313,329,0,

294,427,0,311,327,0,

293,423,0,309,326,0,

291,421,0,307,323,0,

289,418,0,305,321,0,

287,415,0,304,319,0,

286,413,0,330,329,0,

285,411,0,327,327,0,

283,408,0,326,325,0,

281,407,0,324,323,0,

280,539,0,322,321,0,

278,532,0,319,319,0,

277,527,0,318,317,0,

275,524,0,316,316,0,

273,519,0,314,313,0,

271,515,0,312,312,0,

270,511,0,311,310,0,

269,508,0,344,307,0,

268,504,0,341,306,0,

266,499,0,339,304,0,

263,496,0,337,303,0,

263,493,0,335,301,0,

262,489,0,333,299,0,

260,486,0,330,297,0,

259,483,0,327,295,0,

257,480,0,327,294,0,

255,476,0,324,292,0,

255,473,0,323,291,0,

253,470,0,321,291,0,

252,466,0,319,289,0,

250,463,0,317,287,0,

249,461,0,315,287,0,

248,548,0,313,285,0,

247,543,0,312,283,0,

245,539,0,310,282,0,

243,535,0,307,280,0,

243,530,0,306,279,0,

241,526,0,304,277,0,

240,523,0,322,276,0,

239,519,0,344,275,0,

238,514,0,342,273,0,

237,510,0,339,271,0,

235,508,0,337,271,0,

234,504,0,335,269,0,

233,499,0,333,267,0,

231,496,0,331,266,0,

231,493,0,329,263,0,

230,489,0,327,263,0,

228,486,0,324,262,0,

227,483,0,323,300,0,

226,480,0,321,298,0,

225,476,1,319,295,0,

224,473,0,317,295,0,

222,470,0,316,293,0,

235,476,0,313,291,0,

233,473,1,312,289,0,

231,470,1,310,287,1,

231,466,1,308,286,1,

230,463,1,307,284,0,

228,461,1,305,287,1,

227,457,0,327,327,0,

225,454,1,327,325,1,

224,451,1,324,322,0,

223,449,1,322,321,1,

222,446,1,319,319,0,

229,443,1,319,316,0,

233,440,1,317,314,1,

231,438,1,315,313,1,

230,435,1,312,311,1,

228,432,1,311,309,1,

227,429,1,309,355,1,

226,427,1,352,353,1,

225,423,1,350,350,1,

223,421,1,347,348,1,

222,419,1,345,345,1,

221,416,1,344,343,1,

220,414,1,341,341,1,

218,412,1,339,339,1,

217,409,1,337,337,1,

216,407,1,335,334,1,

216,404,1,332,332,1,

215,401,1,331,331,1,

213,399,1,329,327,1,

212,397,1,327,326,1,

211,395,1,325,324,1,

210,391,1,323,323,1,

209,390,1,321,320,1,

207,387,1,319,318,1,

207,385,1,317,317,1,

206,384,1,315,315,1,

205,381,1,313,313,1,

204,379,1,312,322,1,

203,377,1,310,339,1,

202,375,1,307,337,1,

201,372,1,306,335,1,

199,370,1,304,333,1,

199,368,1,303,331,1,

198,366,1,301,329,1,

197,364,1,299,327,1,

195,361,1,297,325,1,

195,359,1,295,323,1,

194,358,1,294,321,1,

193,355,1,305,346,2,

192,354,1,338,343,1,

191,352,1,335,340,1,

191,350,1,333,338,1,

190,348,1,331,335,1,

189,346,1,329,334,1,

188,345,1,327,332,1,

187,343,1,325,329,1,

186,341,1,323,327,1,

185,339,1,321,325,1,

184,337,1,319,323,1,

184,335,1,317,322,1,

182,333,1,315,319,1,

182,332,1,313,318,1,

180,329,1,312,316,1,

179,327,1,310,314,1,

179,327,1,307,312,1,

178,325,1,306,310,1,

177,323,1,304,308,1,

176,322,1,303,307,1,

176,319,1,301,305,1,

175,318,1,300,304,1,

174,316,1,297,302,1,

173,315,1,295,300,1,

172,313,1,294,299,1,

171,312,1,293,295,1,

171,310,1,291,295,1,

169,308,1,289,294,1,

169,307,1,287,291,1,

167,305,1,286,290,1,

167,304,1,284,287,1,

166,302,1,283,287,1,

166,301,1,281,308,1,

165,299,1,326,339,1,

164,297,1,324,335,1,

163,295,1,322,334,1,

163,295,1,319,332,1,

163,293,1,318,330,0,

162,291,1,316,327,1,

161,290,1,314,326,1,

160,288,0,312,323,1,

159,287,1,310,322,1,

159,286,1,309,319,1,

158,284,1,307,319,1,

158,283,1,305,318,1,

157,281,1,303,316,1,

156,280,1,302,313,1,

155,278,1,300,312,1,

154,277,1,298,311,1,

188,275,0,295,308,0,

187,274,1,295,306,0,

185,273,0,292,304,1,

185,271,1,291,303,1,

184,270,1,289,301,1,

183,269,0,287,299,1,

181,268,1,286,297,1,

180,267,1,284,295,1,

179,265,1,283,294,0,

179,263,1,281,292,0,

177,263,0,280,291,0,

176,262,0,278,289,0,

175,260,0,276,287,0,

174,259,0,275,286,1,

173,257,0,274,284,1,

173,257,1,272,317,1,

172,255,1,304,335,1,

171,254,1,301,334,1,

170,252,1,300,331,0,

169,252,0,297,329,0,

167,250,0,295,327,0,

167,249,1,294,325,1,

166,248,0,293,323,0,

166,246,0,291,321,1,

165,246,0,289,319,1,

163,244,0,287,317,0,

163,243,0,286,338,0,

162,241,1,299,335,0,

161,241,0,297,334,0,

160,239,0,295,332,0,

159,239,0,294,329,0,

159,237,0,291,327,0,

158,236,0,290,325,0,

157,235,0,287,323,0,

156,234,0,287,321,0,

155,231,1,285,319,0,

155,231,1,283,317,0,

153,231,0,326,349,0,

153,230,0,329,345,0,

152,228,0,327,344,1,

152,227,0,326,341,0,

151,226,0,323,339,0,

150,225,0,321,337,1,

150,224,0,319,335,0,

149,224,0,317,332,0,

148,222,0,315,331,0,

147,221,0,313,327,0,

147,220,0,312,327,0,

146,219,0,311,324,0,

145,218,0,309,323,0,

145,217,0,307,321,0,

143,216,0,305,319,0,

143,215,0,304,317,0,

143,214,0,302,315,0,

142,213,0,300,313,0,

141,211,0,298,312,0,

140,211,0,295,310,0,

140,210,0,295,307,1,

139,209,0,293,335,0,

139,207,0,369,337,1,

138,207,0,366,335,0,

137,206,0,363,333,0,

137,205,0,359,331,0,

135,204,0,358,327,0,

135,203,0,355,326,0,

135,203,0,353,323,0,

134,201,0,351,322,0,

134,199,0,349,319,0,

133,199,0,347,318,0,

133,199,0,345,326,0,

132,198,0,343,324,0,

131,197,0,340,322,0,

131,196,0,339,319,0,

130,195,0,336,318,0,

129,194,0,334,316,0,

129,193,0,332,314,0,

128,192,0,331,312,0,

127,192,0,329,310,0,

127,191,0,327,309,0,

126,190,0,324,307,0,

126,189,0,352,318,0,

125,188,0,348,316,0,

125,187,0,346,314,0,

124,187,0,344,312,0,

124,185,0,342,310,0,

123,185,0,339,308,0,

123,184,0,337,307,0,

121,183,0,335,305,0,

121,182,0,334,303,0,

121,181,0,332,301,0,

120,181,0,329,306,0,

120,179,0,343,338,0,

120,179,0,340,335,0,

119,178,0,339,333,0,

118,177,0,335,331,0,

118,177,0,334,329,0,

118,176,0,332,327,0,

118,175,0,330,325,0,

118,174,0,327,323,0,

117,174,0,326,321,0,

117,173,0,324,319,0,

115,172,0,323,318,0,

115,172,0,321,315,0,

115,170,0,319,313,0,

114,169,0,317,312,0,

113,169,0,315,310,0,

113,167,0,313,307,0,

112,167,0,312,306,0,

112,166,0,309,304,0,

112,166,0,308,302,0,

111,165,0,306,301,0,

111,164,0,304,299,0,

110,163,0,303,323,0,

109,163,0,301,319,0,

109,162,0,299,318,0,

109,161,0,297,316,0,

108,161,0,295,314,0,

108,159,0,295,312,0,

107,159,0,293,310,0,

107,158,0,291,309,0,

106,158,0,289,307,0,

105,157,0,287,305,0,

105,156,0,287,318,0,

105,156,0,334,333,0,

103,155,0,331,331,0,

103,154,0,329,329,0,

103,153,0,327,327,0,

103,153,0,325,324,0,

102,152,0,323,323,0,

102,152,0,321,319,0,

101,151,0,319,318,0,

101,151,0,317,316,0,

101,149,0,315,315,0,

100,149,0,319,363,0,

99,148,0,345,359,0,

99,147,0,343,357,0,

98,147,0,341,355,0,

98,146,0,339,353,0,

98,145,0,335,350,0,

97,145,0,335,348,0,

97,144,0,332,346,0,

96,143,0,331,344,0,

96,143,0,327,342,0,

96,143,0,327,339,0,

95,142,0,325,337,0,

95,142,0,322,335,0,

94,141,0,321,334,0,

94,140,0,319,332,0,

93,140,0,317,330,0,

93,139,0,316,327,0,

93,138,0,313,326,0,

92,137,0,312,324,0,

92,137,0,311,323,0,

91,137,0,309,319,0,

91,135,0,307,319,0,

91,135,0,305,317,0,

90,135,0,329,316,0,

90,134,0,327,315,0,

89,134,0,326,312,0,

89,133,0,323,311,0,

88,132,0,321,309,0,

88,132,0,319,307,,

88,131,0,318,306,0,

88,131,0,316,304,0,

87,130,0,314,302,0,

87,130,0,312,301,0,

86,129,0,311,299,0,

86,129,0,308,316,0,

86,127,0,307,313,0,

85,127,0,305,312,0,

85,127,0,304,310,0,

84,127,0,302,308,0,

83,126,0,300,306,0,

83,125,0,299,304,0,

83,125,0,297,303,0,

83,124,0,295,301,0,

82,124,0,294,300,0,

82,123,0,292,298,0,

82,123,0,291,295,0,

81,122,0,302,295,0,

81,121,0,300,293,0,

80,121,0,298,292,0,

80,121,0,297,290,0,

79,120,0,295,288,0,

79,120,0,294,287,0,

79,119,0,291,286,0,

79,119,0,290,284,0,

78,118,0,289,283,0,

78,118,0,287,281,0,

78,117,0,295,319,0,

78,116,0,326,317,0,

77,116,0,323,316,0,

77,115,0,322,313,0,

76,115,0,319,312,0,

76,15,0,318,310,0,

76,127,0,316,307,0,

76,127,0,313,306,0,

75,126,0,312,304,0,

75,125,0,310,303,0,

74,124,0,308,301,0,

74,124,0,307,300,0,

73,123,0,304,318,0,

73,122,0,304,316,0,

73,122,0,302,315,0,

73,121,0,300,312,0,

71,121,0,298,311,0,

71,120,0,295,309,0,

71,120,0,295,307,0,

71,119,0,293,305,0,

71,118,0,292,304,0,

71,118,0,290,302,0,

71,117,0,289,300,0,

70,117,0,319,322,0,

70,115,0,316,319,0,

69,115,0,315,318,0,

69,115,0,312,316,0,

69,114,0,311,314,0,

69,114,0,309,313,0,

68,113,0,307,311,0,

68,112,0,305,308,0,

67,112,0,304,307,0,

67,112,0,302,305,0,

67,112,0,300,304,0,

67,111,0,301,350,0,

66,110,0,300,347,0,

66,110,0,297,345,0,

66,109,0,295,343,0,

66,109,0,294,341,0,

65,112,0,293,339,0,

65,124,0,291,335,0,

65,123,0,289,335,0,

65,122,0,287,332,0,

64,121,0,286,331,0,

63,121,0,285,327,0,

63,120,0,284,338,0,

63,120,0,291,335,0,

63,119,0,289,333,0,

63,118,0,287,331,0,

62,117,0,286,329,0,

63,117,0,284,327,0,

62,116,0,282,325,0,

62,116,0,281,323,0,

61,115,0,280,321,0,

61,115,0,278,319,0,

61,114,0,276,318,0,

60,113,0,275,335,0,

60,113,0,293,335,0,

60,112,0,291,333,0,

60,111,0,290,331,0,

59,111,0,287,329,0,

59,111,0,287,327,0,

59,110,0,285,325,0,

58,110,0,283,323,0,

58,109,0,281,321,0,

58,109,0,280,319,0,

57,108,0,279,317,0,

57,107,0,277,316,0,

57,107,0,299,324,0,

57,107,0,297,322,0,

57,106,0,295,319,0,

56,105,0,293,318,0,

56,105,0,291,317,0,

56,121,0,290,315,0,

56,120,0,287,312,0,

56,120,0,286,312,0,

56,119,0,285,309,0,

55,118,0,283,307,0,

55,117,0,281,306,0,

55,117,0,341,335,0,

54,116,0,345,333,0,

54,115,0,344,331,0,

54,115,0,341,329,0,

53,114,0,339,327,0,

54,113,0,337,326,0,

53,113,0,335,323,0,

53,112,0,333,321,0,

53,112,0,331,319,0,

52,111,0,329,317,0,

51,111,0,327,316,0,

51,110,0,326,329,0,

51,109,0,323,327,0,

51,109,0,321,325,0,

51,108,0,319,323,0,

50,108,0,318,321,0,

51,107,0,316,319,0,

50,107,0,314,318,0,

50,106,0,312,316,0,

50,105,0,311,313,0,

49,105,0,309,312,0,

49,105,0,307,311,0,

49,103,0,306,323,0,

49,103,0,341,322,0,

49,103,0,339,319,0,

48,103,0,336,318,0,

48,102,0,335,316,0,

48,102,0,332,314,0,

50,110,0,331,312,0,

50,109,0,329,310,0,

50,109,0,327,309,0,

49,108,0,325,307,0,

49,108,0,323,305,0,

49,107,0,321,325,0,

48,106,0,319,327,0,

48,106,0,317,325,0,

48,105,0,316,323,0,

48,105,0,313,321,0,

48,103,0,312,319,0,

48,103,0,311,317,0,

47,103,0,308,315,0,

53,103,0,307,313,0,

53,102,0,305,312,0,

52,102,0,304,310,0,

51,101,0,302,308,0,

51,101,0,326,306,0,

51,100,0,323,304,0,

51,99,0,322,303,0,

51,99,0,319,301,0,

50,99,0,318,300,0,

50,100,0,316,298,0,

49,101,0,315,295,0,

49,100,0,312,295,0,

49,99,0,311,293,0,

49,99,0,309,291,0,

49,99,0,307,290,0,

49,98,0,307,347,0,

48,97,0,311,344,0,

48,97,0,308,342,0,

48,97,0,307,339,0,

47,96,0,305,337,0,

47,96,0,304,335,0,

47,97,0,302,333,0,

62,96,0,300,332,0,

62,96,0,299,329,0,

61,95,0,297,327,0,

61,95,0,295,326,0,

61,94,0,295,324,0,

60,94,0,335,325,0,

60,93,0,335,323,0,

60,93,0,334,3210,

59,93,0,332,319,0,

59,92,0,330,318,0,

59,92,0,327,316,0,

58,92,0,326,314,0,

58,91,0,324,313,0,

65,91,0,323,311,0,

64,90,0,321,309,0,

63,90,0,319,307,0,

63,89,0,317,306,0,

63,89,0,335,335,0,

63,89,0,333,333,0,

62,89,0,331,332,0,

62,88,0,329,329,0,

62,97,0,327,327,0,

62,97,0,325,326,0,

61,96,0,323,323,0,

61,96,0,321,322,0,

61,95,0,319,319,0,

60,94,0,318,318,0,

60,94,0,316,317,0,

60,94,0,315,347,0,

59,93,0,323,348,0,

59,93,0,322,345,0,

59,92,0,319,343,0,

59,92,0,318,341,0,

57,91,0,316,339,0,

57,91,0,315,337,0,

57,90,0,313,335,0,

83,90,0,311,333,0,

82,89,0,309,331,0,

81,89,0,308,329,0,

81,89,0,306,327,0,

80,88,0,304,332,0,

79,88,0,303,329,0,

79,88,0,302,327,0,

79,87,0,300,326,0,

78,86,0,298,324,0,

78,86,0,297,322,0,

78,137,0,295,320,0,

77,135,0,293,318,0,

77,135,0,292,316,0,

76,134,0,290,315,0,

76,133,0,289,313,0,

76,132,0,287,312,0,

75,131,0,291,356,0,

75,131,0,289,353,0,

74,130,0,287,351,0,

74,129,0,286,349,0,

73,129,0,285,347,0,

73,133,0,284,345,0,

92,133,0,281,342,0,

91,131,0,280,340,0,

91,131,0,279,338,0,

90,130,0,277,336,0,

89,129,0,275,334,0,

89,129,0,312,359,0,

88,12,0,309,356,0,

88,127,0,307,353,0,

88,127,0,305,352,0,

87,126,0,304,350,0,

100,130,0,302,347,0,

139,151,0,300,345,0,

137,149,0,298,344,0,

137,148,0,295,341,0,

135,147,0,295,339,0,

135,147,0,293,337,0,

134,146,0,291,335,0,

134,145,0,290,332,0,

133,143,0,287,330,0,

131,143,0,287,327,0,

131,142,0,284,327,0,

130,142,0,283,324,0,

129,141,0,281,322,0,

129,140,0,280,321,0,

127,140,0,278,319,0,

127,139,0,277,317,0,

127,137,0,275,315,0,

126,137,0,299,313,0,

125,135,0,297,312,0,

124,135,0,295,310,0,

124,135,0,294,307,0,

124,134,0,291,306,0,

123,134,0,290,304,0,

122,133,0,287,303,0,

121,132,0,287,301,0,

121,131,0,285,299,0,

120,131,0,283,297,0,

120,130,0,281,304,0,

119,129,0,280,302,0,

118,129,0,278,300,0,

118,127,0,276,299,0,

117,127,0,275,297,0,

116,127,0,273,295,0,

115,126,0,271,293,0,

115,125,0,270,291,0,

115,124,0,269,290,0,

113,124,0,268,288,0,

113,123,0,266,287,0,

112,123,0,313,319,0,

112,122,0,312,316,0,

112,121,0,310,314,0,

111,121,0,308,312,0,

110,120,0,306,310,0,

110,120,0,304,308,0,

109,119,0,302,306,0,

108,118,0,301,304,0,

108,118,0,299,303,0,

108,117,0,297,300,0,

107,116,0,295,299,0,

106,115,0,295,325,0,

105,115,0,293,323,0,

105,114,0,291,321,0,

105,113,0,289,319,0,

103,113,0,287,317,0,

103,112,0,286,314,0,

103,112,0,284,313,0,

102,111,0,283,311,0,

102,111,0,281,309,0,

101,110,0,280,307,0,

101,110,0,278,318,0,

100,109,0,284,322,0,

100,108,0,282,319,0,

99,108,0,280,318,0,

99,108,0,279,316,0,

98,110,0,278,313,0,

98,129,0,275,312,0,

97,129,0,275,310,0,

97,127,0,273,309,0,

96,127,0,271,306,0,

96,126,0,270,304,0,

96,126,0,268,308,0,

95,125,0,299,312,0,

94,124,0,297,310,0,

94,124,0,295,308,0,

93,123,0,294,306,0,

93,122,0,291,305,0,

93,150,0,290,303,0,

92,149,0,287,301,0,

92,148,0,287,300,0,

91,147,0,285,298,0,

91,146,0,283,295,0,

90,145,0,282,295,0,

90,144,0,280,301,0,

89,143,0,280,299,0,

89,143,0,277,297,0,

88,142,0,276,295,0,

88,142,0,274,294,0,

90,141,0,273,293,0,

90,141,0,271,291,0,

89,140,0,270,289,0,

89,139,0,269,287,0,

88,138,0,267,286,0,

88,137,0,265,284,0,

88,137,0,271,317,0,

87,135,0,269,316,0,

86,135,0,268,313,0,

86,135,0,266,312,0,

86,134,0,263,310,0,

86,133,0,263,307,0,

86,132,0,262,306,0,

85,132,0,261,304,0,

85,131,0,259,303,0,

84,131,0,258,300,0,

84,130,0,256,299,0,

83,129,0,257,334,0,

83,128,0,258,331,0,

83,127,0,255,329,0,

83,127,0,255,327,0,

82,126,0,253,325,0,

81,126,0,252,323,0,

81,125,0,251,321,0,

80,125,0,249,319,0,

80,124,0,248,317,0,

79,124,0,248,316,0,

79,123,0,246,313,0,

79,122,0,245,323,0,

79,121,0,280,321,0,

78,121,0,279,318,0,

78,120,0,277,317,0,

78,120,0,275,315,0,

77,119,0,273,313,0,

76,119,0,271,312,0,

76,118,0,270,309,0,

76,118,0,269,307,0,

76,116,0,268,305,0,

75,116,0,266,304,0,

75,115,0,263,304,0,

75,115,0,267,312,0,

74,114,0,265,310,0,

74,114,0,263,308,0,

73,113,0,263,307,0,

73,112,0,261,304,0,

73,112,0,259,303,0,

71,111,0,258,301,0,

71,111,0,257,299,0,

71,110,0,255,298,0,

71,110,0,254,295,0,

71,109,0,252,295,0,

71,109,0,252,313,0,

70,108,0,251,311,0,

70,108,0,249,309,0,

70,107,0,248,307,0,

69,107,0,247,305,0,

85,111,0,245,303,0,

103,110,0,244,301,0,

102,110,0,243,300,0,

101,110,0,241,298,0,

101,109,0,240,295,0,

100,108,0,239,294,0,

99,108,0,255,319,0,

99,107,0,254,316,0,

98,106,0,252,314,0,

98,105,0,251,313,0,

97,105,0,249,311,0,

97,105,0,248,309,0,

96,103,0,247,307,0,

96,103,0,246,305,0,

96,103,0,243,304,0,

95,103,0,243,301,0,

94,102,0,241,300,0,

94,102,0,268,304,0,

93,101,0,272,302,0,

93,101,0,270,300,0,

92,100,0,269,298,0,

92,99,0,267,295,0,

92,129,0,266,295,0,

94,135,0,263,293,0,

93,134,0,263,291,0,

92,134,0,261,290,0,

92,132,0,259,288,0,

92,131,0,258,287,0,

91,131,0,257,335,0,

91,130,0,255,332,0,

90,130,0,254,330,0,

90,129,0,252,327,0,

89,128,0,252,326,0,

89,127,0,250,323,0,

88,126,0,249,321,0,

88,126,0,248,319,0,

87,126,0,246,318,0,

87,124,0,245,316,0,

86,124,0,243,315,0,

86,123,0,242,352,0,

86,123,0,251,348,0,

85,122,0,249,346,0,

84,121,0,248,344,0,

84,121,0,247,342,0,

83,120,0,245,339,0,

83,120,0,243,337,0,

83,119,0,243,335,0,

82,118,0,241,334,0,

82,118,0,240,332,0,

81,117,0,239,329,0,

81,116,0,237,327,0,

81,115,0,236,334,0,

80,115,0,235,332,0,

79,115,0,235,329,0,

79,114,0,233,327,0,

79,113,0,231,326,0,

88,123,0,231,323,0,

89,122,0,230,322,0,

88,121,0,229,319,0,

88,121,0,227,318,0,

88,120,0,226,316,0,

87,120,0,225,314,0,

87,119,0,302,325,0,

86,118,0,300,323,0,

86,118,0,298,321,0,

85,117,0,295,319,0,

85,115,0,295,317,0,

84,115,0,292,315,0,

83,115,0,291,313,0,

83,114,0,289,312,0,

83,114,0,287,310,0,

83,113,0,286,307,0,

82,112,0,284,306,0,

82,112,0,285,347,0,

81,111,0,287,344,0,

80,111,0,286,342,0,

80,110,0,284,340,0,

79,109,0,283,338,0,

79,109,0,281,335,0,

79,108,0,280,334,0,

78,108,0,278,332,0,

78,108,0,276,329,0,

78,107,0,275,327,0,

77,106,0,273,326,0,

77,105,0,271,344,0,

76,105,0,271,341,0,

76,105,0,270,339,0,

76,103,0,268,337,0,

75,103,0,267,334,0,

75,103,0,265,332,0,

75,102,0,263,330,0,

74,102,0,263,329,0,

73,101,0,261,326,0,

73,101,0,259,325,0,

73,100,0,258,323,0,

71,99,0,257,325,0,

71,99,0,266,352,0,

71,99,0,265,350,0,

71,99,0,263,347,0,

71,98,0,262,345,0,

71,97,0,261,344,0,

71,102,0,259,341,0,

73,102,0,258,339,0,

71,101,0,257,337,0,

71,100,0,255,335,0,

71,100,0,254,333,0,

71,99,0,253,331,0,

71,99,0,251,329,0,

70,98,0,250,327,0,

70,98,0,249,326,0,

70,97,0,248,323,0,

69,97,0,247,322,0,

69,97,0,245,321,0,

69,96,0,244,319,0,

68,96,0,243,317,0,

68,95,0,242,315,0,

67,95,0,240,313,0,

67,95,0,239,312,0,

67,94,0,238,310,0,

66,94,0,268,332,0,

66,93,0,267,329,0,

66,93,0,265,327,0,

66,92,0,263,326,0,

65,92,0,263,323,0,

65,93,0,261,322,0,

68,107,0,259,319,0,

67,106,0,258,318,0,

67,105,0,255,316,0,

67,105,0,255,314,0,

66,103,0,254,313,0,

66,103,0,253,331,0,

66,103,0,252,327,0,

65,103,0,251,327,0,

65,102,0,249,323,0,

65,102,0,248,323,0,

64,101,0,247,319,0,

64,101,0,245,319,0,

63,99,0,244,316,0,

63,99,0,243,315,0,

63,99,0,241,313,0,

63,98,0,240,312,0,

63,98,0,239,312,0,

62,97,0,245,339,0,

62,97,0,243,337,0,

62,96,0,242,335,0,

61,96,0,240,333,0,

61,96,0,239,331,0,

83,95,0,238,329,0,

86,94,0,237,327,0,

85,94,0,236,325,0,

85,94,0,235,323,0,

85,93,0,233,321,0,

83,93,0,231,319,0,

83,92,0,231,318,0,

83,92,0,231,317,0,

83,91,0,229,315,0,

82,91,0,228,313,0,

82,91,0,227,312,0,

81,90,0,226,310,0,

81,89,0,225,307,0,

80,89,0,224,307,0,

80,88,0,223,305,0,

79,88,0,222,303,0,

79,88,0,221,301,0,

79,88,0,220,300,0,

79,87,0,220,337,0,

78,87,0,231,335,0,

78,87,0,231,334,0,

77,86,0,230,332,0,

77,86,0,228,330,0,

77,85,0,227,327,0,

77,98,0,226,326,0,

76,97,0,225,324,0,

76,97,0,224,322,0,

76,96,0,223,321,0,

75,96,0,221,318,0,

74,96,0,220,317,0,

75,95,0,252,323,0,

74,94,0,282,321,0,

73,94,0,280,319,0,

73,93,0,279,317,0,

73,93,0,277,316,0,

71,93,0,275,313,0,

71,92,0,273,312,0,

71,92,0,272,310,0,

71,91,0,271,308,0,

71,90,0,269,307,0,

71,90,0,268,305,0,

71,90,0,267,304,0,

70,89,0,265,326,0,

70,89,0,263,324,0,

69,88,0,262,323,0,

69,88,0,261,320,0,

68,88,0,259,319,0,

70,94,0,259,317,0,

85,96,0,257,315,0,

84,96,0,255,313,0,

83,95,0,255,312,0,

83,95,0,253,310,0,

83,94,0,252,307,0,

82,94,0,250,308,0,

82,93,0,265,330,0,

81,93,0,263,327,0,

81,92,0,262,326,0,

80,92,0,261,324,0,

80,92,0,259,323,0,

79,91,0,258,319,0,

79,90,0,255,319,0,

79,89,0,255,317,0,

78,89,0,254,315,0,

78,89,0,252,313,0,

78,88,0,251,312,0,

77,88,0,249,341,0,

77,88,0,249,337,0,

76,88,0,247,335,0,

76,87,0,246,334,0,

76,86,0,245,332,0,

75,86,0,243,330,0,

75,85,0,243,327,0,

74,85,0,241,326,0,

74,84,0,240,325,0,

74,84,0,239,322,0,

73,84,0,238,321,0,

73,83,0,237,319,0,

72,83,0,243,317,0,

71,83,0,244,315,0,

71,82,0,242,313,0,

71,82,0,241,312,0,

71,82,0,240,310,0,

71,81,0,239,308,0,

70,82,0,238,307,0,

70,82,0,236,305,0,

70,81,0,235,304,0,

70,81,0,234,302,0,

69,81,0,233,301,0,

69,80,0,231,299,0,

68,80,0,231,297,0,

68,79,0,230,295,0,

67,79,0,228,294,0,

67,79,0,227,293,0,

67,79,0,227,291,0,

67,78,0,226,290,0,

67,80,0,225,287,0,

66,79,0,224,287,0,

66,79,0,222,285,0,

66,79,0,222,284,0,

66,79,0,220,283,0,

65,78,0,220,302,0,

64,78,0,316,312,0,

64,77,0,323,310,0,

63,77,0,320,308,0,

63,76,0,319,307,0,

63,76,0,317,305,0,

63,77,0,315,304,0,

62,76,0,313,301,0,

62,76,0,312,300,0,

62,75,0,310,297,0,

62,75,0,308,295,0,

61,75,0,306,295,0,

61,75,0,305,297,0,

61,74,0,303,295,0,

60,74,0,302,294,0,

60,73,0,300,292,0,

60,73,0,298,291,0,

60,73,0,297,289,0,

63,92,0,295,287,0,

74,91,0,293,286,0,

73,90,0,291,285,0,

73,90,0,290,283,0,

73,89,0,289,281,0,

71,89,0,287,280,0,

71,88,0,286,337,0,

71,88,0,289,335,0,

71,88,0,287,332,0,

71,87,0,286,331,0,

70,87,0,285,327,0,

70,86,0,284,326,0,

70,88,0,282,324,0,

69,88,0,280,323,0,

69,87,0,279,321,0,

69,87,0,278,319,0,

68,86,0,276,317,0,

68,86,0,275,316,0,

67,85,0,273,332,0,

67,85,0,271,330,0,

67,84,0,271,327,0,

66,83,0,269,326,0,

66,83,0,268,324,0,

66,87,0,267,322,0,

70,124,0,265,319,0,

71,123,0,263,318,0,

71,121,0,263,316,0,

71,121,0,261,315,0,

70,120,0,260,313,0,

70,120,0,259,315,0,

70,119,0,284,325,0,

69,118,0,281,322,0,

69,117,0,280,321,0,

68,117,0,278,319,0,

67,116,0,277,317,0,

69,115,0,275,315,0,

69,115,0,273,313,0,

69,114,0,271,312,0,

68,113,0,271,309,0,

67,113,0,269,307,0,

67,113,0,268,306,0,

67,112,0,266,305,0,

67,111,0,263,303,0,

67,110,0,263,301,0,

66,110,0,262,300,0,

66,109,0,260,298,0,

70,109,0,259,295,0,

70,109,0,258,295,0,

69,108,0,255,293,0,

69,107,0,255,291,0,

68,107,0,253,289,0,

68,106,0,252,289,0,

67,105,0,251,331,0,

67,105,0,250,329,0,

67,103,0,248,326,0,

66,103,0,248,324,0,

66,103,0,246,322,0,

68,106,0,245,319,0,

83,106,0,243,319,0,

83,105,0,242,317,0,

82,103,0,241,315,0,

81,103,0,240,313,0,

81,103,0,239,312,0,

81,103,0,245,325,0,

80,102,0,248,322,0,

79,102,0,246,319,0,

79,101,0,245,318,0,

79,101,0,243,316,0,

79,100,0,242,315,0,

78,102,0,241,312,0,

78,102,0,240,311,0,

77,101,0,238,309,0,

77,100,0,237,307,0,

76,100,0,236,305,0,

76,99,0,235,343,0,

75,99,0,289,339,0,

75,98,0,287,337,0,

75,98,0,286,335,0,

74,97,0,284,334,0,

74,97,0,283,332,0,

75,103,0,281,330,0,

74,103,0,280,327,0,

74,102,0,278,325,0,

73,102,0,276,324,0,

73,101,0,275,322,0,

73,101,0,273,319,0,

71,100,0,294,319,0,

71,99,0,291,317,0,

71,99,0,290,315,0,

71,98,0,287,313,0,

71,98,0,287,312,0,

71,97,0,285,310,0,

70,97,0,284,308,0,

70,96,0,283,306,0,

70,96,0,281,305,0,

69,96,0,280,303,0,

69,95,0,277,302,0,

68,94,0,276,300,0,

68,94,0,275,299,0,

68,94,0,273,297,0,

67,94,0,271,295,0,

67,93,0,270,295,0,

67,92,0,269,293,0,

66,92,0,268,291,0,

66,92,0,266,290,0,

66,91,0,265,288,0,

66,91,0,263,287,0,

65,90,0,262,285,0,

65,90,0,261,284,0,

65,89,0,259,301,0,

64,89,0,263,301,0,

63,89,0,261,299,0,

63,88,0,260,297,0,

63,88,0,259,295,0,

63,87,0,257,294,0,

71,93,0,255,292,0,

71,93,0,255,291,0,

70,92,0,254,289,0,

70,92,0,252,287,0,

69,91,0,251,286,0,

69,91,0,249,285,0,

68,91,0,249,308,0,

68,90,0,252,305,0,

68,89,0,251,304,0,

67,89,0,249,302,0,

67,89,0,248,301,0,

67,88,0,247,299,0,

66,88,0,246,297,0,

66,88,0,243,295,0,

66,87,0,243,294,0,

66,87,0,242,292,0,

65,86,0,241,290,0,

65,86,0,239,289,0,

65,85,0,238,302,0,

63,85,0,237,299,0,

63,84,0,236,298,0,

63,84,0,235,295,0,

63,83,0,234,295,0,

63,83,0,233,293,0,

62,83,0,231,291,0,

62,83,0,231,290,0,

62,82,0,230,287,0,

61,82,0,228,286,0,

61,81,0,227,285,0,

61,81,0,226,285,0,

60,81,0,227,313,0,

60,80,0,226,311,0,

60,79,0,225,309,0,

60,79,0,224,307,0,

60,79,0,223,305,0,

59,79,0,222,303,0,

59,79,0,221,302,0,

59,78,0,220,300,0,

58,78,0,219,299,0,

58,77,0,217,297,0,

57,77,0,217,295,0,

57,77,0,217,329,0,

57,76,0,265,327,0,

57,76,0,263,324,0,

56,76,0,262,323,0,

56,75,0,260,321,0,

56,75,0,259,319,0,

73,101,0,257,317,0,

73,99,0,255,315,0,

73,99,0,254,313,0,

71,99,0,252,312,0,

71,98,0,251,310,0,

71,97,0,250,308,0,

71,97,0,280,335,0,

71,96,0,317,332,0,

70,96,0,314,330,0,

70,95,0,313,327,0,

70,95,0,312,326,0,

69,94,0,309,324,0,

75,95,0,307,322,0,

74,95,0,305,319,0,

73,94,0,304,318,0,

73,94,0,302,317,0,

73,93,0,300,315,0,

71,92,0,299,313,0,

71,92,0,319,335,0,

71,92,0,318,334,0,

71,91,0,316,332,0,

71,91,0,314,330,0,

71,90,0,312,327,0,

70,90,0,311,327,0,

70,90,0,309,324,0,

69,89,0,307,323,0,

69,89,0,305,321,0,

69,88,0,304,319,0,

68,88,0,302,317,0,

68,88,0,300,316,0,

67,87,0,299,321,0,

67,87,0,297,319,0,

67,86,0,295,317,0,

67,86,0,294,315,0,

66,85,0,293,313,0,

66,87,0,291,312,0,

71,91,0,289,310,0,

70,90,0,287,308,0,

70,89,0,286,306,0,

70,89,0,285,305,0,

69,89,0,284,304,0,

69,88,0,282,302,0,

68,88,0,281,300,0,

68,87,0,280,299,0,

67,87,0,278,297,0,

67,86,0,276,295,0,

67,86,0,275,294,0,

67,93,0,273,293,0,

67,92,0,271,291,0,

66,92,0,271,290,0,

66,91,0,269,287,0,

65,91,0,268,287,0,

65,90,0,267,285,0,

65,90,0,265,301,0,

64,89,0,263,299,0,

64,89,0,263,297,0,

63,88,0,262,295,0,

63,88,0,260,294,0,

63,93,0,259,292,0,

63,102,0,257,291,0,

62,101,0,255,289,0,

62,100,0,255,287,0,

62,100,0,254,286,0,

61,99,0,252,284,0,

61,99,0,251,283,0,

61,98,0,290,297,0,

60,98,0,293,295,0,

60,98,0,291,294,0,

60,96,0,289,292,0,

59,96,0,287,291,0,

59,96,0,287,289,0,

59,96,0,284,287,0,

59,95,0,283,286,0,

58,95,0,282,284,0,

58,94,0,280,283,0,

57,93,0,279,281,0,

57,93,0,277,284,0,

57,92,0,281,302,0,

57,92,0,280,300,0,

56,92,0,278,299,0,

56,91,0,276,295,0,

56,91,0,275,295,0,

58,98,0,273,293,0,

59,97,0,271,291,0,

58,97,0,270,290,0,

58,96,0,269,288,0,

57,96,0,268,287,0,

57,96,0,267,285,0,

57,95,0,265,286,0,

57,94,0,277,284,0,

56,94,0,275,283,0,

56,94,0,273,281,0,

56,92,0,272,280,0,

56,92,0,271,279,0,

63,99,0,269,277,0,

69,99,0,268,275,0,

68,98,0,267,275,0,

67,97,0,265,273,0,

67,97,0,263,271,0,

67,96,0,263,270,0,

66,96,0,261,281,0,

66,96,0,259,279,0,

66,95,0,259,278,0,

65,95,0,257,276,0,

65,94,0,255,274,0,

65,94,0,254,273,0,

84,99,0,253,271,0,

83,98,0,252,270,0,

83,98,0,251,269,0,

82,97,0,249,267,0,

82,96,0,248,266,0,

82,96,0,247,265,0,

81,96,0,246,263,0,

80,95,0,245,263,0,

80,94,0,243,262,0,

79,94,0,242,260,0,

79,93,0,241,259,0,

79,93,0,240,258,0,

78,95,0,239,257,0,

78,94,0,238,255,0,

77,94,0,236,255,0,

77,93,0,236,253,0,

77,93,0,235,252,0,

76,92,0,233,276,0,

76,92,0,280,291,0,

76,91,0,280,289,0,

75,91,0,278,287,0,

75,90,0,275,287,0,

75,89,0,274,285,0,

74,93,0,272,284,0,

74,98,0,271,281,0,

73,98,0,270,280,0,

73,97,0,268,279,0,

71,97,0,267,277,0,

71,96,0,265,275,0,

71,96,0,263,333,0,

71,96,0,346,331,0,

71,95,0,344,327,0,

71,95,0,342,327,0,

70,94,0,339,324,0,

70,93,0,337,323,0,

76,125,0,335,321,0,

76,126,0,332,318,0,

76,125,0,332,316,0,

75,125,0,329,315,0,

75,124,0,327,313,0,

74,123,0,325,312,0,

74,123,0,323,342,0,

74,122,0,322,339,0,

73,121,0,319,337,0,

73,120,0,318,335,0,

71,120,0,316,333,0,

71,131,0,315,331,0,

71,130,0,312,329,0,

71,129,0,311,327,0,

71,128,0,310,325,0,

71,127,0,307,323,0,

70,127,0,306,321,0,

70,126,0,319,319,0,

69,125,0,318,318,0,

69,125,0,317,316,0,

68,124,0,314,315,0,

68,124,0,313,312,0,

67,123,0,312,312,0,

67,122,0,310,309,0,

67,121,0,307,307,0,

67,120,0,305,306,0,

67,120,0,304,304,0,

66,120,0,302,302,0,

65,119,0,301,316,0,

65,118,0,333,315,0,

65,118,0,331,312,0,

64,117,0,329,310,0,

64,116,0,327,309,0,

63,116,0,325,307,0,

64,152,0,323,305,0,

64,150,0,321,304,0,

63,150,0,319,301,0,

63,149,0,317,300,0,

63,147,0,316,297,0,

63,147,0,313,297,0,

62,146,0,312,295,0,

62,145,0,310,293,0,

62,144,0,308,291,0,

61,143,0,307,290,0,

61,143,0,305,289,0,

61,142,0,304,287,0,

61,141,0,302,286,0,

61,140,0,300,284,0,

60,140,0,299,282,0,

60,139,0,295,281,0,

59,138,0,295,279,0,

59,138,0,294,281,0,

59,137,0,292,280,0,

58,135,0,291,277,0,

58,135,0,289,276,0,

58,135,0,287,275,0,

76,161,0,286,273,0,

89,159,0,284,271,0,

89,159,0,283,270,0,

88,158,0,281,269,0,

88,156,0,280,268,0,

87,156,0,279,267,0,

87,155,0,283,273,0,

86,154,0,281,271,0,

86,153,0,280,270,0,

85,152,0,278,269,0,

85,152,0,277,267,0,

84,151,0,275,265,0,

84,150,0,274,265,0,

83,149,0,273,263,0,

83,148,0,271,261,0,

83,147,0,269,260,0,

82,147,0,268,259,0,

81,146,0,305,307,0,

81,145,0,308,305,0,

80,1450,306,303,0,

79,143,,304,301,0,

79,143,0,303,299,0,

79,142,0,301,297,0,

79,141,0,299,295,0,

79,141,0,297,294,0,

78,140,0,295,292,0,

78,139,0,294,291,0,

77,138,0,292,289,0,

77,138,0,291,306,0,

77,137,0,295,304,0,

76,135,0,294,302,0,

76,135,0,291,300,0,

75,135,0,290,299,0,

75,134,0,289,297,0,

75,134,0,287,295,0,

74,133,0,286,294,0,

73,132,0,284,292,0,

73,131,0,281,290,0,

73,131,0,281,287,0,

71,131,0,280,289,0,

71,129,0,283,297,0,

71,129,0,283,295,0,

71,128,0,281,294,0,

71,127,0,280,292,0,

71,127,0,278,291,0,

71,126,0,277,289,0,

70,126,0,275,287,0,

70,125,0,274,285,0,

70,125,0,271,284,0,

69,124,0,270,282,0,

69,123,0,269,285,0,

68,123,0,268,297,0,

68,122,0,267,295,0,

67,121,0,265,294,0,

67,121,0,263,291,0,

67,120,0,263,290,0,

68,129,0,261,288,0,

68,127,0,259,287,0,

67,127,0,258,285,0,

67,126,0,257,284,0,

67,125,0,255,281,0,

67,124,0,254,280,0,

66,124,0,271,306,0,

66,123,0,268,304,0,

65,122,0,267,302,0,

65,122,0,265,300,0,

65,121,0,263,299,0,

65,121,0,263,297,0,

69,120,0,261,295,0,

68,120,0,259,293,0,

68,119,0,258,291,0,

68,118,0,255,290,0,

67,117,0,255,287,0,

67,117,0,271,292,0,

67,116,0,290,290,0,

67,116,0,287,288,0,

66,115,0,286,287,0,

65,115,0,284,285,0,

65,114,0,283,284,0,

75,113,0,281,282,0,

74,113,0,280,280,0,

73,112,0,278,279,0,

73,112,0,276,277,0,

73,111,0,275,275,0,

71,111,0,273,275,0,

71,110,0,301,274,0,

71,110,0,299,271,0,

71,109,0,297,271,0,

71,109,0,295,269,0,

71,108,0,294,268,0,

90,147,0,291,267,0,

96,145,0,290,265,0,

96,144,0,289,263,0,

95,143,0,286,262,0,

94,143,0,286,261,0,

94,142,0,284,287,0,

93,141,0,282,306,0,

93,140,0,281,304,0,

92,140,0,280,302,0,

92,139,0,277,300,0,

91,138,0,275,299,0,

91,137,0,275,297,0,

90,137,0,273,295,0,

90,135,0,271,294,0,

89,135,0,270,291,0,

89,135,0,268,290,0,

88,134,0,267,288,0,

88,134,0,291,287,0,

88,133,0,289,286,0,

88,132,0,287,284,0,

86,131,0,285,283,0,

86,131,0,284,281,0,

85,130,0,282,280,0,

85,129,0,281,278,0,

84,129,0,279,277,0,

84,127,0,278,275,0,

84,127,0,276,273,0,

83,127,0,274,271,0,

83,126,0,277,313,0,

82,125,0,275,312,0,

82,124,0,274,309,0,

81,124,0,272,307,0,

81,123,0,270,306,0,

81,125,0,269,304,0,

80,124,0,268,302,0,

79,124,0,266,300,0,

79,123,0,265,299,0,

79,123,0,263,297,0,

78,122,0,262,295,0,

78,121,0,261,301,0,

78,121,0,259,299,0,

77,120,0,258,297,0,

76,120,0,257,295,0,

76,119,0,255,293,0,

76,118,0,254,292,0,

76,119,0,253,290,0,

75,118,0,251,288,0,

75,117,0,250,287,0,

74,117,0,248,285,0,

74,115,0,247,284,0,

73,115,0,246,282,0,

73,115,0,301,281,0,

73,114,0,300,279,0,

71,114,0,297,278,0,

71,113,0,295,276,0,

71,112,0,294,274,0,

71,137,0,291,273,0,

71,135,0,291,271,0,

71,135,0,288,270,0,

70,135,0,287,268,0,

70,134,0,286,267,0,

69,133,0,284,280,0,

69,132,0,310,295,0,

69,131,0,307,295,0,

68,130,0,306,293,0,

67,130,0,304,291,0,

