
54,169,0,284,143,0,

53,169,0,281,143,0,

54,167,0,280,142,0,

53,167,0,279,142,0,

53,166,0,312,141,0,

52,165,0,310,140,0,

52,164,0,308,140,0,

51,163,0,306,139,0,

51,162,0,305,138,0,

53,164,0,303,137,0,

74,178,0,301,137,0,

74,177,0,299,135,0,

73,176,0,297,135,0,

73,176,0,295,135,0,

71,174,0,294,134,0,

71,173,0,292,133,0,

71,172,0,292,133,0,

71,172,0,291,132,0,

71,171,0,289,131,0,

70,169,0,287,131,0,

70,167,0,286,130,0,

70,167,0,284,129,0,

70,167,0,283,129,0,

70,166,0,281,128,0,

69,165,0,280,127,0,

68,164,0,278,127,0,

68,163,0,277,126,0,

68,163,0,275,126,0,

67,162,0,274,125,0,

67,161,0,272,124,0,

67,159,0,271,124,0,

66,159,0,270,123,0,

67,159,0,268,123,0,

67,158,0,267,122,0,

66,157,0,265,125,0,

66,156,0,263,124,0,

65,155,0,263,124,0,

65,154,0,261,123,0,

65,153,0,260,123,0,

64,153,0,259,122,0,

63,152,0,257,121,0,

63,151,0,255,121,0,

63,150,0,255,120,0,

66,152,0,253,120,0,

66,150,0,252,119,0,

65,149,0,251,118,0,

65,148,0,249,118,0,

64,148,0,248,117,0,

64,147,0,247,116,0,

63,146,0,270,116,0,

63,145,0,269,115,0,

63,145,0,268,115,0,

63,144,0,267,114,0,

63,143,0,265,114,0,

62,143,0,263,113,0,

62,143,0,262,113,0,

61,143,0,260,127,0,

61,141,0,259,139,0,

61,141,0,257,138,0,

60,140,0,255,137,0,

60,140,0,254,135,0,

60,139,0,253,135,0,

60,138,0,252,135,0,

59,137,0,250,135,0,

59,135,0,249,133,0,

59,141,0,248,133,0,

59,154,0,247,132,0,

58,153,0,245,131,0,

58,152,0,244,131,0,

58,152,0,243,130,0,

57,151,0,241,129,0,

57,150,0,246,129,0,

56,149,0,262,127,0,

56,148,0,260,127,0,

56,147,0,258,127,0,

56,147,0,257,126,0,

56,146,0,255,126,0,

56,146,0,254,125,0,

55,145,0,253,124,0,

55,145,0,251,123,0,

54,143,0,249,123,0,

54,143,0,248,122,0,

54,143,0,252,121,0,

54,142,0,274,121,0,

53,141,0,272,120,0,

53,140,0,271,120,0,

53,140,0,270,120,0,

52,139,0,268,118,0,

61,157,0,267,118,0,

60,156,0,265,117,0,

60,155,0,263,117,0,

60,154,0,262,116,0,

59,153,0,260,115,0,

59,152,0,259,115,0,

59,152,0,257,115,0,

59,151,0,255,114,0,

58,150,0,254,113,0,

58,149,0,253,112,0,

57,148,0,252,112,0,

59,152,0,251,112,0,

58,151,0,249,111,0,

58,150,0,248,111,0,

57,149,0,247,110,0,

57,148,0,245,109,0,

57,147,0,244,109,0,

57,147,0,283,109,0,

56,146,0,281,108,0,

56,145,0,279,108,0,

56,144,0,278,107,0,

56,143,0,275,107,0,

56,151,0,274,105,0,

57,150,0,272,105,0,

57,149,0,271,110,0,

56,148,0,269,116,0,

56,147,0,268,115,0,

56,147,0,267,114,0,

56,145,0,267,114,0,

55,145,0,266,113,0,

55,144,0,263,113,0,

55,143,0,263,112,0,

54,143,0,262,111,0,

54,142,0,260,111,0,

60,149,0,259,110,0,

59,148,0,257,110,0,

59,147,0,255,115,0,

59,146,0,255,115,0,

58,145,0,253,114,0,

58,145,0,253,113,0,

58,143,0,255,113,0,

57,143,0,255,112,0,

57,142,0,254,112,0,

57,142,0,253,111,0,

56,141,0,251,110,0,

62,143,0,249,110,0,

62,143,0,248,109,0,

62,142,0,247,125,0,

61,141,0,246,124,0,

61,141,0,244,123,0,

61,140,0,243,123,0,

60,139,0,252,121,0,

60,138,0,250,121,0,

60,137,0,249,120,0,

59,137,0,248,120,0,

59,135,0,246,120,0,

67,147,0,245,118,0,

67,147,0,243,118,0,

67,146,0,243,117,0,

67,145,0,241,117,0,

67,144,0,240,116,0,

66,143,0,238,115,0,

65,143,0,248,115,0,

65,142,0,249,114,0,

64,141,0,248,114,0,

64,141,0,246,113,0,

64,140,0,244,112,0,

63,166,0,243,112,0,

63,164,0,242,111,0,

63,163,0,240,110,0,

63,162,0,240,110,0,

62,162,0,238,110,0,

62,160,0,236,109,0,

62,159,0,291,108,0,

61,159,0,291,108,0,

61,158,0,290,107,0,

60,157,0,287,107,0,

60,156,0,287,106,0,

60,156,0,285,105,0,

60,158,0,283,105,0,

60,157,0,281,105,0,

59,156,0,280,107,0,

59,156,0,279,106,0,

58,155,0,277,105,0,

58,154,0,275,105,0,

58,153,0,274,105,0,

57,152,0,272,103,0,

57,151,0,271,103,0,

57,151,0,269,103,0,

56,150,0,268,102,0,

66,150,0,267,102,0,

65,149,0,265,102,0,

64,147,0,263,101,0,

65,147,0,263,101,0,

64,146,0,261,101,0,

63,146,0,270,100,0,

63,145,0,291,99,0,

63,144,0,290,99,0,

63,143,0,288,99,0,

62,143,0,287,98,0,

62,142,0,285,98,0,

62,142,0,283,97,0,

62,140,0,282,97,0,

62,140,0,280,97,0,

62,139,0,279,97,0,

61,138,0,278,96,0,

61,138,0,275,96,0,

61,137,0,275,96,0,

61,136,0,273,95,0,

60,135,0,271,95,0,

60,135,0,271,94,0,

59,135,0,269,94,0,

59,137,0,268,94,0,

59,167,0,266,93,0,

59,165,0,265,93,0,

59,164,0,263,120,0,

58,163,0,262,119,0,

58,163,0,261,118,0,

57,162,0,259,118,0,

57,161,0,258,117,0,

57,159,0,257,116,0,

56,159,0,255,115,0,

56,158,0,254,115,0,

56,157,0,253,115,0,

56,157,0,251,114,0,

56,156,0,250,113,0,

56,155,0,249,113,0,

55,154,0,248,112,0,

55,153,0,246,111,0,

54,152,0,245,111,0,

54,152,0,263,110,0,

54,151,0,262,110,0,

53,150,0,260,109,0,

53,149,0,259,109,0,

53,148,0,257,108,0,

54,181,0,255,108,0,

61,179,0,254,107,0,

60,178,0,253,107,0,

60,177,0,252,107,0,

60,176,0,250,107,0,

59,174,0,249,107,0,

59,174,0,287,105,0,

58,173,0,285,105,0,

58,172,0,283,103,0,

57,171,0,281,103,0,

57,170,0,280,103,0,

57,169,0,278,103,0,

71,171,0,277,102,0,

71,170,0,275,102,0,

71,169,0,273,117,0,

70,167,0,271,116,0,

70,167,0,270,115,0,

69,167,0,269,115,0,

69,166,0,270,114,0,

68,165,0,268,113,0,

68,163,0,267,113,0,

67,163,0,265,112,0,

67,162,0,263,112,0,

69,161,0,262,111,0,

68,160,0,261,112,0,

67,159,0,259,135,0,

67,159,0,258,135,0,

67,158,0,257,134,0,

67,157,0,255,133,0,

66,156,0,255,132,0,

66,155,0,254,131,0,

66,155,0,253,131,0,

65,154,0,252,130,0,

65,153,0,250,129,0,

64,158,0,249,128,0,

64,157,0,248,127,0,

63,156,0,246,127,0,

63,155,0,245,126,0,

63,154,0,243,126,0,

62,153,0,243,125,0,

62,152,0,241,124,0,

62,152,0,240,124,0,

62,151,0,239,123,0,

61,150,0,238,123,0,

61,149,0,237,122,0,

61,163,0,236,121,0,

61,161,0,234,121,0,

61,160,0,233,121,0,

60,159,0,231,121,0,

60,159,0,231,120,0,

60,158,0,230,120,0,

59,157,0,263,119,0,

59,156,0,262,118,0,

59,156,0,259,118,0,

59,155,0,259,117,0,

58,153,0,257,117,0,

58,161,0,255,116,0,

60,160,0,254,115,0,

60,159,0,253,115,0,

60,159,0,251,115,0,

59,157,0,250,114,0,

59,156,0,248,114,0,

58,156,0,273,113,0,

58,155,0,273,113,0,

57,154,0,271,112,0,

57,153,0,269,112,0,

57,152,0,268,111,0,

59,152,0,267,110,0,

63,163,0,265,109,0,

63,163,0,263,109,0,

63,162,0,263,109,0,

62,161,0,261,108,0,

62,159,0,259,108,0,

61,159,0,258,107,0,

61,158,0,259,107,0,

61,157,0,258,105,0,

60,157,0,256,105,0,

60,155,0,255,105,0,

60,155,0,254,103,0,

60,163,0,252,103,0,

59,162,0,251,105,0,

59,161,0,249,113,0,

59,159,0,248,113,0,

59,159,0,247,112,0,

58,158,0,246,111,0,

57,157,0,245,110,0,

57,157,0,243,110,0,

57,156,0,242,110,0,

57,155,0,240,108,0,

56,154,0,239,108,0,

63,174,0,238,108,0,

63,173,0,237,107,0,

63,172,0,236,107,0,

63,171,0,235,105,0,

62,170,0,233,105,0,

62,169,0,231,105,0,

61,167,0,327,103,0,

61,167,0,325,103,0,

61,166,0,323,103,0,

60,165,0,320,103,0,

60,164,0,319,102,0,

61,167,0,317,102,0,

61,167,0,315,101,0,

60,166,0,313,101,0,

60,165,0,312,100,0,

60,164,0,310,99,0,

60,163,0,308,99,0,

59,163,0,306,99,0,

59,161,0,305,98,0,

58,161,0,303,98,0,

58,159,0,302,97,0,

58,159,0,300,97,0,

57,159,0,299,96,0,

57,166,0,297,96,0,

57,165,0,295,96,0,

57,164,0,294,95,0,

57,163,0,292,95,0,

57,162,0,291,94,0,

56,162,0,289,94,0,

56,161,0,287,93,0,

56,159,0,287,93,0,

56,159,0,285,92,0,

55,158,0,284,92,0,

55,157,0,282,91,0,

55,157,0,281,92,0,

64,156,0,280,90,0,

63,156,0,278,91,0,

63,155,0,277,92,0,

63,154,0,275,91,0,

63,153,0,273,91,0,

62,152,0,276,90,0,

62,152,0,312,90,0,

62,151,0,310,89,0,

61,150,0,307,89,0,

61,149,0,306,88,0,

61,149,0,304,88,0,

62,156,0,303,88,0,

63,155,0,301,88,0,

63,154,0,299,87,0,

63,153,0,297,99,0,

62,152,0,295,98,0,

62,152,0,294,97,0,

62,151,0,293,97,0,

62,150,0,291,96,0,

61,149,0,290,96,0,

61,148,0,287,96,0,

60,147,0,287,95,0,

60,147,0,285,94,0,

60,146,0,284,94,0,

60,145,0,282,93,0,

60,145,0,281,93,0,

59,143,0,280,94,0,

59,143,0,278,93,0,

59,143,0,276,93,0,

58,142,0,276,92,0,

58,141,0,275,92,0,

58,140,0,274,91,0,

57,140,0,272,91,0,

57,139,0,271,90,0,

57,139,0,270,90,0,

57,169,0,268,89,0,

56,167,0,267,89,0,

56,167,0,265,121,0,

56,166,0,265,120,0,

56,166,0,263,119,0,

56,164,0,262,119,0,

55,163,0,260,117,0,

55,163,0,259,117,0,

54,162,0,258,116,0,

54,161,0,256,116,0,

54,159,0,255,115,0,

55,160,0,254,114,0,

55,159,0,252,114,0,

55,159,0,251,113,0,

55,158,0,250,113,0,

55,157,0,249,112,0,

54,156,0,248,111,0,

54,155,0,327,111,0,

53,154,0,326,111,0,

53,154,0,323,110,0,

53,153,0,322,109,0,

52,152,0,319,108,0,

56,164,0,317,108,0,

63,163,0,316,107,0,

62,162,0,313,111,0,

62,161,0,312,122,0,

62,160,0,310,121,0,

61,159,0,308,121,0,

61,158,0,307,120,0,

60,158,0,305,120,0,

60,157,0,304,119,0,

60,156,0,301,118,0,

60,155,0,300,118,0,

60,159,0,299,116,0,

67,176,0,295,116,0,

66,175,0,295,115,0,

66,174,0,293,115,0,

65,173,0,291,115,0,

65,172,0,290,115,0,

64,171,0,288,114,0,

64,170,0,287,113,0,

63,169,0,286,113,0,

63,167,0,284,112,0,

63,167,0,282,112,0,

63,167,0,281,111,0,

63,166,0,280,111,0,

63,165,0,278,110,0,

63,164,0,277,109,0,

63,163,0,275,109,0,

62,163,0,274,108,0,

62,161,0,271,108,0,

62,161,0,307,107,0,

61,159,0,304,107,0,

61,159,0,303,106,0,

61,158,0,301,105,0,

60,158,0,299,105,0,

60,157,0,297,103,0,

60,156,0,295,103,0,

60,156,0,294,105,0,

59,154,0,292,103,0,

59,153,0,291,103,0,

59,153,0,289,103,0,

59,152,0,287,102,0,

58,151,0,286,102,0,

58,150,0,285,101,0,

57,150,0,283,101,0,

57,149,0,281,100,0,

57,158,0,280,99,0,

57,156,0,279,99,0,

57,156,0,276,110,0,

56,155,0,275,125,0,

56,154,0,274,124,0,

56,153,0,272,124,0,

56,152,0,271,123,0,

55,152,0,270,123,0,

55,151,0,268,122,0,

54,150,0,267,121,0,

54,149,0,265,120,0,

63,163,0,263,120,0,

63,162,0,263,120,0,

63,161,0,262,118,0,

63,160,0,260,118,0,

63,159,0,259,117,0,

62,158,0,257,116,0,

62,158,0,259,116,0,

62,156,0,259,115,0,

62,156,0,257,115,0,

61,155,0,255,114,0,

61,154,0,254,113,0,

60,153,0,253,113,0,

61,167,0,252,112,0,

60,167,0,251,112,0,

60,167,0,249,111,0,

60,166,0,248,111,0,

60,165,0,247,110,0,

59,163,0,246,109,0,

59,163,0,245,109,0,

58,162,0,244,108,0,

58,161,0,243,108,0,

58,160,0,241,107,0,

57,159,0,241,107,0,

57,161,0,239,106,0,

57,159,0,238,105,0,

57,159,0,237,143,0,

57,158,0,236,145,0,

56,158,0,235,144,0,

56,157,0,233,143,0,

56,156,0,270,142,0,

56,155,0,268,142,0,

55,154,0,266,141,0,

55,153,0,263,141,0,

55,152,0,263,140,0,

63,152,0,262,139,0,

63,152,0,260,138,0,

63,150,0,259,137,0,

62,149,0,257,137,0,

62,148,0,255,135,0,

62,147,0,254,135,0,

61,147,0,289,135,0,

61,146,0,287,134,0,

61,145,0,286,133,0,

60,144,0,284,132,0,

60,143,0,282,131,0,

61,164,0,280,131,0,

61,163,0,280,130,0,

60,163,0,278,130,0,

60,162,0,276,129,0,

60,161,0,274,128,0,

59,159,0,273,127,0,

59,159,0,280,127,0,

59,158,0,278,126,0,

59,157,0,277,126,0,

58,156,0,275,125,0,

58,156,0,273,124,0,

59,156,0,271,124,0,

59,159,0,270,123,0,

59,159,0,269,123,0,

58,158,0,268,122,0,

58,157,0,267,121,0,

57,157,0,263,121,0,

57,156,0,263,120,0,

57,155,0,262,120,0,

56,154,0,260,119,0,

56,153,0,259,118,0,

56,152,0,258,118,0,

56,152,0,257,117,0,

56,184,0,255,116,0,

56,183,0,254,116,0,

56,182,0,253,116,0,

55,181,0,251,115,0,

55,179,0,249,115,0,

55,179,0,249,115,0,

54,177,0,247,114,0,

54,176,0,246,113,0,

54,176,0,245,113,0,

53,175,0,243,112,0,

53,174,0,242,112,0,

71,174,0,241,111,0,

71,173,0,240,111,0,

71,172,0,238,111,0,

70,172,0,238,117,0,

70,170,0,236,117,0,

70,169,0,235,115,0,

69,167,0,263,115,0,

69,167,0,261,115,0,

68,167,0,259,114,0,

67,166,0,257,113,0,

67,165,0,255,113,0,

67,164,0,255,112,0,

67,163,0,253,112,0,

67,163,0,252,111,0,

66,162,0,250,112,0,

66,161,0,249,112,0,

65,159,0,248,111,0,

65,159,0,275,110,0,

65,158,0,273,110,0,

64,158,0,271,109,0,

63,157,0,270,108,0,

63,156,0,269,108,0,

63,162,0,267,107,0,

63,161,0,265,107,0,

63,160,0,263,108,0,

63,159,0,263,108,0,

63,159,0,261,108,0,

62,158,0,259,107,0,

62,157,0,259,106,0,

62,156,0,258,106,0,

61,155,0,256,105,0,

61,154,0,255,105,0,

61,153,0,254,103,0,

61,171,0,252,103,0,

63,202,0,251,103,0,

63,199,0,249,103,0,

63,199,0,248,103,0,

63,198,0,247,103,0,

62,197,0,246,102,0,

62,196,0,281,102,0,

62,195,0,282,101,0,

61,194,0,280,100,0,

61,193,0,279,100,0,

61,192,0,277,99,0,

60,190,0,275,99,0,

60,190,0,274,98,0,

60,189,0,272,98,0,

60,188,0,270,97,0,

59,187,0,269,97,0,

59,185,0,268,96,0,

59,185,0,267,96,0,

58,184,0,300,96,0,

57,183,0,297,96,0,

57,182,0,295,95,0,

57,181,0,294,94,0,

57,180,0,293,94,0,

57,185,0,291,94,0,

78,188,0,289,93,0,

78,187,0,287,92,0,

77,186,0,286,113,0,

77,185,0,285,113,0,

76,184,0,283,112,0,

76,183,0,282,112,0,

75,182,0,280,111,0,

75,181,0,279,110,0,

74,179,0,277,110,0,

73,179,0,275,109,0,

74,178,0,274,108,0,

76,178,0,272,108,0,

75,177,0,271,107,0,

75,176,0,270,128,0,

75,175,0,268,127,0,

74,174,0,267,127,0,

73,173,0,265,126,0,

73,172,0,263,125,0,

73,172,0,263,125,0,

71,171,0,261,124,0,

71,169,0,259,123,0,

71,169,0,259,123,0,

71,167,0,257,122,0,

71,167,0,255,121,0,

71,166,0,254,120,0,

70,166,0,253,120,0,

70,164,0,252,120,0,

69,163,0,251,119,0,

69,163,0,265,118,0,

68,162,0,263,118,0,

68,161,0,262,117,0,

67,160,0,259,116,0,

67,159,0,259,115,0,

67,172,0,257,115,0,

68,172,0,255,114,0,

68,171,0,254,114,0,

67,170,0,253,114,0,

67,169,0,251,113,0,

67,167,0,250,113,0,

66,167,0,249,112,0,

66,166,0,248,111,0,

66,165,0,246,111,0,

65,164,0,245,110,0,

65,163,0,243,110,0,

65,162,0,242,109,0,

64,162,0,241,108,0,

64,161,0,240,108,0,

63,159,0,238,108,0,

63,159,0,237,107,0,

63,158,0,236,106,0,

62,157,0,262,106,0,

62,157,0,283,105,0,

62,156,0,281,105,0,

61,155,0,280,103,0,

61,154,0,278,103,0,

61,153,0,276,103,0,

61,153,0,275,103,0,

61,152,0,273,102,0,

60,152,0,271,105,0,

60,151,0,270,103,0,

60,149,0,268,103,0,

59,149,0,267,103,0,

59,148,0,327,103,0,

58,147,0,327,102,0,

58,147,0,323,101,0,

57,146,0,322,101,0,

57,145,0,320,101,0,

65,161,0,318,100,0,

64,159,0,317,99,0,

63,159,0,315,99,0,

63,158,0,313,99,0,

63,157,0,311,98,0,

63,157,0,309,98,0,

63,156,0,310,97,0,

62,155,0,307,97,0,

62,154,0,306,96,0,

62,153,0,304,96,0,

61,153,0,303,96,0,

61,152,0,301,95,0,

61,151,0,300,94,0,

65,150,0,298,94,0,

65,150,0,295,117,0,

64,149,0,295,117,0,

63,147,0,293,117,0,

63,147,0,291,115,0,

63,146,0,291,115,0,

63,145,0,289,114,0,

63,145,0,287,114,0,

62,144,0,286,113,0,

62,143,0,284,112,0,

66,163,0,284,112,0,

66,162,0,282,111,0,

65,161,0,280,111,0,

65,161,0,279,110,0,

65,159,0,277,110,0,

64,159,0,275,109,0,

63,158,0,302,109,0,

63,157,0,301,108,0,

63,156,0,299,107,0,

63,155,0,297,107,0,

62,155,0,295,106,0,

62,173,0,294,105,0,

62,172,0,291,105,0,

62,171,0,290,105,0,

61,169,0,289,105,0,

61,169,0,287,105,0,

61,167,0,285,103,0,

60,167,0,284,103,0,

60,166,0,282,103,0,

60,165,0,281,103,0,

59,164,0,280,102,0,

59,163,0,278,102,0,

59,163,0,276,101,0,

87,163,0,275,101,0,

86,162,0,273,99,0,

85,161,0,271,99,0,

85,160,0,271,99,0,

84,159,0,269,99,0,

83,159,0,281,98,0,

83,158,0,280,97,0,

83,157,0,279,97,0,

82,156,0,277,96,0,

81,155,0,275,96,0,

81,155,0,273,96,0,

83,181,0,273,95,0,

82,179,0,271,95,0,

81,179,0,270,94,0,

81,177,0,268,94,0,

81,177,0,267,93,0,

81,176,0,265,93,0,

80,175,0,277,93,0,

79,174,0,275,92,0,

79,173,0,273,92,0,

79,172,0,271,91,0,

78,171,0,270,91,0,

78,171,0,269,90,0,

78,173,0,268,90,0,

77,172,0,267,89,0,

77,171,0,265,102,0,

76,170,0,263,101,0,

76,169,0,263,101,0,

75,167,0,261,100,0,

75,167,0,259,99,0,

75,167,0,258,99,0,

74,166,0,257,99,0,

74,165,0,255,98,0,

74,163,0,254,97,0,

73,163,0,253,97,0,

73,163,0,252,97,0,

73,161,0,251,99,0,

71,161,0,249,111,0,

71,159,0,248,110,0,

71,159,0,247,110,0,

71,158,0,246,109,0,

71,157,0,245,109,0,

70,157,0,243,108,0,

70,156,0,242,108,0,

70,155,0,241,107,0,

69,154,0,240,107,0,

69,159,0,239,106,0,

69,159,0,238,105,0,

69,158,0,237,119,0,

68,157,0,235,118,0,

68,156,0,234,118,0,

67,155,0,233,116,0,

67,155,0,285,116,0,

67,153,0,284,115,0,

66,153,0,281,115,0,

66,152,0,280,114,0,

66,152,0,279,113,0,

65,152,0,276,113,0,

65,151,0,275,112,0,

65,150,0,273,112,0,

64,149,0,272,111,0,

64,148,0,271,110,0,

63,147,0,269,110,0,

63,147,0,307,109,0,

63,146,0,305,109,0,

62,145,0,304,108,0,

62,144,0,302,108,0,

62,143,0,300,107,0,

62,163,0,298,106,0,

62,162,0,295,106,0,

61,161,0,295,107,0,

61,161,0,292,113,0,

61,159,0,291,112,0,

60,159,0,289,111,0,

60,158,0,335,110,0,

59,157,0,333,110,0,

59,156,0,331,110,0,

59,155,0,329,109,0,

59,154,0,327,108,0,

58,181,0,325,108,0,

58,179,0,323,107,0,

57,178,0,321,107,0,

57,177,0,319,106,0,

57,176,0,317,105,0,

57,175,0,315,105,0,

56,174,0,313,103,0,

56,173,0,312,103,0,

56,172,0,310,103,0,

56,172,0,308,103,0,

56,170,0,307,103,0,

55,169,0,305,102,0,

56,168,0,303,101,0,

56,167,0,302,101,0,

55,167,0,300,110,0,

55,166,0,298,110,0,

55,165,0,297,109,0,

54,164,0,295,108,0,

54,163,0,294,108,0,

54,162,0,292,107,0,

53,162,0,291,107,0,

53,161,0,289,106,0,

53,159,0,287,105,0,

54,162,0,286,105,0,

53,162,0,284,104,0,

52,161,0,283,117,0,

52,159,0,281,117,0,

52,159,0,280,116,0,

52,158,0,279,115,0,

51,157,0,327,115,0,

51,156,0,324,114,0,

51,156,0,322,113,0,

51,155,0,321,113,0,

50,154,0,319,112,0,

53,153,0,316,112,0,

53,153,0,315,111,0,

52,152,0,313,141,0,

52,151,0,312,140,0,

51,150,0,310,139,0,

51,150,0,307,138,0,

51,148,0,306,137,0,

51,148,0,304,136,0,

51,147,0,303,135,0,

51,146,0,301,135,0,

50,146,0,299,134,0,

50,145,0,297,134,0,

49,144,0,295,133,0,

49,143,0,295,132,0,

49,143,0,292,131,0,

49,142,0,291,131,0,

48,142,0,289,130,0,

49,141,0,295,129,0,

48,140,0,295,129,0,

48,140,0,293,128,0,

47,139,0,291,127,0,

50,189,0,289,127,0,

103,302,0,287,126,0,

120,312,0,286,126,0,

119,309,0,285,125,0,

118,307,0,283,131,0,

117,305,0,281,130,0,

117,303,0,280,129,0,

116,301,0,278,128,0,

115,300,0,276,127,0,

115,297,0,275,127,0,

114,295,0,274,126,0,

166,352,0,272,125,0,

164,404,0,271,125,0,

163,399,0,270,124,0,

162,397,0,268,123,0,

161,393,0,266,123,0,

159,391,0,265,122,0,

159,388,0,263,121,0,

158,385,0,263,121,0,

157,384,0,262,120,0,

156,380,0,260,120,0,

155,379,0,259,119,0,

155,376,0,257,118,0,

153,373,0,256,117,0,

158,371,0,255,117,0,

276,369,0,253,116,0,

274,366,0,252,115,0,

271,364,0,251,115,0,

270,361,0,249,114,0,

268,359,0,248,114,0,

266,358,0,247,113,0,

263,355,0,246,113,0,

263,353,0,244,112,0,

262,352,0,243,112,0,

260,349,0,242,111,0,

258,347,0,240,110,0,

257,403,0,240,110,0,

255,482,0,238,109,0,

254,477,0,237,109,0,

252,473,0,236,108,0,

251,469,0,235,108,0,

249,466,0,234,107,0,

248,463,0,233,106,0,

247,460,0,231,106,0,

321,582,0,231,105,0,

359,641,0,229,103,0,

357,634,0,228,140,0,

355,627,0,227,142,0,

352,622,0,226,141,0,

350,615,0,225,140,0,

348,611,0,224,139,0,

345,606,0,223,138,0,

346,601,0,222,137,0,

447,611,0,220,137,0,

442,633,0,220,135,0,

439,731,0,218,135,0,

435,722,0,217,135,0,

432,715,0,216,134,0,

429,709,0,216,133,0,

425,702,0,214,132,0,

423,695,0,213,131,0,

420,688,0,211,131,0,

417,799,0,211,130,0,

415,862,0,210,129,0,

412,851,0,209,129,0,

409,840,0,207,127,0,

406,833,0,207,127,0,

405,824,0,206,128,0,

415,814,0,205,163,0,

412,805,0,204,162,0,

409,798,0,203,161,0,

407,791,0,246,159,0,

404,782,0,244,159,0,

402,774,0,243,158,0,

399,768,0,241,157,0,

396,760,0,240,156,0,

393,753,0,238,156,0,

391,745,0,237,155,0,

389,738,0,236,154,0,

386,733,0,234,153,0,

384,726,0,233,152,0,

382,718,0,231,152,1,

380,711,0,267,150,0,

377,707,0,263,150,0,

375,700,0,263,149,0,

372,694,1,262,148,0,

370,688,0,259,147,0,

368,683,0,258,146,0,

368,677,0,255,146,0,

365,671,0,255,145,0,

363,665,1,253,143,0,

361,661,0,252,143,0,

359,655,0,274,142,1,

357,649,1,321,142,1,

355,644,1,319,141,0,

353,639,1,317,140,1,

351,635,1,315,140,0,

348,629,0,312,139,0,

347,624,1,311,138,1,

345,620,1,309,137,1,

343,615,0,307,141,0,

341,611,0,305,141,0,

339,606,1,304,140,1,

337,602,1,302,139,0,

335,598,1,300,139,1,

334,593,1,298,137,0,

332,588,1,295,137,1,

330,583,1,295,135,1,

327,580,1,293,135,1,

327,575,1,291,135,1,

324,572,1,290,134,1,

323,567,1,287,133,1,

321,563,1,287,132,1,

319,560,1,284,131,1,

317,556,1,317,131,1,

316,551,1,314,131,1,

314,549,1,312,130,1,

312,545,1,310,129,1,

311,540,1,308,128,1,

309,537,1,306,127,1,

307,534,1,304,127,1,

306,530,2,302,127,1,

304,526,2,300,126,1,

303,523,1,299,125,1,

301,519,2,297,125,2,

300,516,2,323,124,2,

298,513,2,321,123,1,

295,509,2,319,123,2,

295,505,2,317,121,2,

293,503,2,315,121,2,

291,499,2,313,121,2,

290,496,2,312120,2,

289,493,2,309,120,2,

287,489,2,307,119,2,

286,487,2,305,118,2,

284,483,2,304,118,2,

283,480,2,302,117,2,

281,478,2,300,117,2,

280,475,2,298,115,2,

278,472,2,297,115,2,

277,468,2,295,115,2,

275,466,3,294,114,2,

274,463,2,291,115,2,

273,460,2,290,122,2,

271,457,2,289,121,2,

270,455,2,287,121,2,

269,452,2,299,120,2,

267,449,2,297,120,2,

266,447,3,295,119,2,

265,444,2,294,119,2,

263,441,2,291,117,2,

262,439,2,290,117,2,

261,436,2,288,116,2,

259,434,2,287,115,2,

258,432,2,285,115,2,

257,429,2,283,114,2,

255,427,2,282,114,3,

254,423,3,304,113,2,

253,422,3,301,113,2,

252,419,2,300,112,2,

251,416,2,297,112,2,

249,415,2,295,111,2,

248,412,2,294,110,2,

247,409,2,292,110,2,

246,407,2,291,120,2,

244,404,2,289,120,2,

243,403,2,287,119,2,

242,400,2,304,118,2,

241,398,2,302,117,3,

240,396,2,300,116,2,

238,393,2,298,116,2,

237,391,2,295,115,2,

236,389,2,295,114,2,

236,387,2,293,114,2,

234,385,2,291,113,2,

233,384,2,289,113,2,

231,381,2,287,112,2,

231,379,2,286,112,2,

230,377,2,300,111,2,

228,375,2,297,110,2,

227,372,2,295,110,2,

226,371,2,294,109,2,

225,369,2,292,108,2,

224,367,2,290,108,2,

223,365,2,287,108,2,

222,363,2,287,137,1,

221,361,2,285,149,2,

220,359,2,284,149,1,

219,357,2,281,147,2,

218,355,1,342,147,1,

217,354,2,339,146,1,

216,352,1,337,145,1,

215,350,2,334,144,1,

214,348,1,333,143,2,

213,346,1,331,143,2,

211,345,2,327,142,2,

211,343,2,326,142,1,

210,341,2,325,140,2,

209,339,2,322,140,2,

207,337,2,322,139,1,

207,335,1,320,138,1,

206,334,1,319,137,2,

205,332,1,317,135,1,

207,380,1,315,135,1,

227,428,1,313,135,1,

225,423,1,312,135,1,

224,421,1,310,134,1,

222,418,1,307,133,1,

221,415,1,306,132,1,

219,412,1,304,131,1,

219,409,1,327,131,1,

217,407,1,326,130,1,

216,404,1,323,129,1,

215,401,1,322,129,1,

213,399,1,319,127,1,

212,396,1,318,127,1,

211,393,1,316,127,1,

210,391,1,314,126,1,

209,388,1,312,125,1,

207,386,1,310,125,1,

207,384,1,308,124,1,

206,381,1,306,123,1,

205,379,1,305,123,1,

204,376,1,303,122,1,

202,374,1,301,121,1,

201,371,1,300,121,1,

201,369,1,298,120,1,

199,367,1,295,121,1,

199,366,1,295,143,1,

198,363,1,292,142,1,

197,359,1,291,141,1,

195,358,1,289,141,1,

195,357,1,321,140,1,

194,355,1,318,139,1,

193,352,1,316,138,1,

192,350,1,315,137,1,

192,348,1,312,137,1,

191,346,0,310,135,1,

190,344,1,308,135,1,

189,342,1,307,149,1,

188,340,1,305,147,0,

187,338,0,303,147,1,

186,336,1,301,147,1,

185,334,1,300,146,0,

185,333,1,298,145,1,

184,331,1,295,143,1,

183,329,1,295,143,1,

182,327,1,293,142,1,

181,325,0,291,142,1,

180,324,1,289,141,1,

179,323,1,287,140,1,

179,320,1,286,140,1,

178,319,1,285,19,1,

177,318,1,283,137,0,

176,316,1,281,137,1,

176,314,1,280,135,0,

175,312,1,279,135,0,

174,312,0,277,135,0,

173,310,1,275,134,0,

172,308,1,275,133,1,

172,307,1,273,132,0,

171,305,1,271,132,0,

170,304,0,270,131,1,

169,302,0,275,131,1,

167,301,1,305,130,0,

167,299,0,303,129,0,

167,297,0,301,129,1,

166,304,1,299,127,0,

224,344,1,297,127,1,

222,346,1,295,126,1,

221,344,1,293,126,0,

219,341,1,291,126,0,

217,339,0,290,125,1,

217,337,0,287,124,0,

216,334,0,286,124,1,

214,332,0,285,123,0,

213,330,0,284,122,0,

211,327,0,282,122,1,

269,415,1,280,121,1,

379,575,0,278,120,0,

377,582,0,277,120,0,

374,577,0,275,120,0,

371,573,1,274,118,0,

369,568,0,271,118,0,

366,563,0,271,118,0,

364,558,0,270,117,0,

361,555,0,268,116,1,

359,550,1,266,116,0,

357,545,0,265,115,0,

355,541,0,263,114,0,

352,538,0,262,114,0,

351,534,0,261,113,0,

348,529,0,259,112,0,

346,525,0,258,112,0,

344,523,0,257,112,0,

342,519,0,255,111,0,

339,515,0,277,110,0,

338,510,0,275,110,0,

335,507,0,273,109,0,

334,504,0,271,108,1,

332,499,0,270,108,0,

330,496,0,269,107,0,

327,494,0,268,107,0,

326,490,0,266,107,0,

324,487,0,263,106,0,

323,483,0,263,105,0,

320,480,0,262,105,0,

319,477,0,259,105,0,

317,473,0,258,103,0,

315,471,0,257,103,1,

313,467,0,255,103,0,

312,465,0,254,102,0,

310,462,0,252,102,0,

307,459,0,252,101,0,

307,455,0,250,101,0,

305,453,0,249,100,0,

303,450,0,248,100,0,

301,448,0,280,99,0,

300,445,0,300,99,0,

299,441,0,297,99,0,

297,440,0,295,98,1,

295,437,0,294,97,0,

294,434,0,292,97,0,

291,432,0,290,97,0,

291,429,0,288,96,0,

289,426,0,287,103,0,

287,423,0,286,103,0,

286,421,0,284,102,0,

285,419,0,313,101,0,

283,415,0,310,101,0,

281,414,0,307,100,0,

280,412,0,306,99,0,

279,409,0,304,99,0,

278,407,0,302,99,0,

275,404,0,300,98,0,

274,402,0,299,98,0,

273,399,0,297,107,0,

271,397,0,295,107,0,

270,395,0,294,106,0,

269,393,0,291,105,0,

268,391,0,290,105,0,

266,388,0,289,103,0,

265,385,0,287,103,0,

263,384,0,285,103,0,

262,381,0,284,102,0,

260,379,0,281,102,0,

259,377,0,281,105,0,

258,376,0,279,109,0,

256,373,0,277,109,0,

255,371,0,275,108,0,

254,368,0,274,108,0,

253,367,0,273,107,0,

251,364,0,271,106,0,

249,362,0,269,105,0,

249,359,0,268,105,0,

248,359,0,267,103,0,

246,356,0,265,103,0,

245,355,0,263,103,0,

243,352,0,263,103,0,

242,350,0,261,102,0,

241,349,0,265,102,0,

240,347,0,283,101,0,

239,345,0,281,100,0,

238,343,0,280,100,0,

236,341,0,278,99,0,

236,339,0,276,99,0,

235,338,0,275,98,0,

233,335,0,273,98,0,

231,334,0,271,97,0,

231,333,0,270,97,0,

230,331,0,269,96,0,

229,329,0,267,96,0,

227,327,0,276,96,0,

227,326,0,275,95,0,

226,324,0,273,95,0,

225,323,0,271,94,0,

224,321,0,270,93,0,

223,319,0,269,93,0,

222,318,0,268,92,0,

220,316,0,266,92,0,

219,315,0,265,92,0,

219,313,0,263,92,0,

217,312,0,261,91,0,

217,310,0,291,90,0,

216,308,0,290,90,0,

215,307,0,287,90,0,

214,305,0,286,89,0,

212,304,0,285,88,0,

211,303,0,284,88,0,

210,301,0,281,88,0,

210,300,0,280,103,0,

208,298,0,279,103,0,

207,297,0,277,103,0,

206,295,0,275,102,0,

206,293,0,274,102,0,

205,292,0,271,101,0,

204,291,0,270,100,0,

203,289,0,269,100,0,

201,287,0,268,99,0,

201,287,0,266,99,0,

199,285,0,265,98,0,

199,284,0,263,99,0,

198,283,0,262,98,0,

197,281,0,260,98,0,

196,280,0,259,97,0,

195,279,0,258,97,0,

195,278,0,255,96,0,

194,276,0,255,96,0,

193,275,0,254,95,0,

192,273,0,252,95,0,

191,272,0,251,94,0,

190,271,0,249,94,0,

189,270,0,248,94,0,

188,269,0,248,96,0,

188,268,0,246,96,0,

187,266,0,245,95,0,

186,265,0,249,94,0,

185,263,0,248,94,0,

184,263,0,246,93,0,

184,262,0,244,93,0,

183,260,0,243,92,0,

182,259,0,242,92,0,

181,258,0,241,91,0,

180,257,0,240,91,0,

179,255,0,239,91,0,

179,254,0,238,90,0,

178,253,0,236,89,0,

177,252,0,235,89,0,

176,251,0,234,88,0,

176,250,0,233,88,0,

175,249,0,231,88,0,

174,248,0,231,88,0,

173,247,0,230,87,0,

173,246,0,228,86,0,

172,245,0,227,86,0,

171,243,0,227,91,0,

170,243,0,225,91,0,

169,241,0,224,90,0,

169,240,0,253,89,0,

167,239,0,253,89,0,

167,238,0,251,89,0,

167,237,0,249,88,0,

166,236,0,248,88,0,

165,235,0,247,87,0,

164,234,0,246,87,0,

163,233,0,244,86,0,

163,231,0,243,92,0,

162,231,0,241,92,0,

161,230,0,240,91,0,

161,229,0,239,90,0,

160,228,0,237,90,0,

159,227,0,237,89,0,

159,226,0,235,89,0,

158,225,0,234,88,0,

157,224,0,231,88,0,

157,223,0,231,88,0,

156,222,0,230,87,0,

155,221,0,229,103,0,

155,220,0,227,119,0,

154,219,0,227,118,0,

153,218,0,225,117,0,

153,217,0,226,117,0,

152,216,0,224,115,0,

152,215,0,223,115,0,

150,215,0,222,114,0,

150,213,0,221,114,0,

149,212,0,220,113,0,

148,211,0,219,116,0,

147,210,0,218,115,0,

147,210,0,217,115,0,

146,209,0,216,115,0,

146,207,0,233,114,0,

145,206,0,231,113,0,

145,206,0,230,112,0,

143,205,0,228,112,0,

143,204,0,227,111,0,

142,203,0,226,111,0,

142,202,0,225,110,0,

142,201,0,223,110,0,

141,199,0,222,116,0,

140,199,0,221,115,0,

140,199,0,220,114,0,

139,198,0,219,114,0,

138,197,0,217,113,0,

137,195,0,216,113,0,

137,195,0,215,112,0,

137,194,0,214,112,0,

135,193,0,213,111,0,

135,192,0,211,110,0,

135,192,0,211,110,0,

134,191,0,209,109,0,

134,190,0,208,109,0,

133,189,0,207,108,0,

132,188,0,207,107,0,

131,188,0,206,107,0,

131,187,0,205,106,0,

131,186,0,204,105,0,

130,185,0,203,105,0,

129,184,0,202,103,0,

129,184,0,201,103,0,

128,183,0,199,106,0,

127,182,0,199,105,0,

127,181,0,198,105,0,

126,180,0,212,105,0,

126,179,0,223,103,0,

125,178,0,222,103,0,

125,178,0,221,103,0,

124,177,0,219,102,0,

124,176,0,218,102,0,

124,176,0,217,101,0,

123,175,0,216,100,0,

122,174,0,215,101,0,

121,173,0,213,100,0,

121,172,0,212,99,0,

121,172,0,267,99,0,

120,171,0,268,99,0,

120,170,0,267,98,0,

120,169,0,263,98,0,

119,169,0,263,97,0,

118,167,0,262,97,0,

118,167,0,259,96,0,

117,167,0,259,96,0,

116,166,0,257,96,0,

116,165,0,255,95,0,

115,165,0,254,94,0,

115,164,0,274,94,0,

115,163,0,280,93,0,

114,163,0,278,93,0,

113,162,0,277,93,0,

113,161,0,275,92,0,

113,161,0,273,91,0,

112,166,0,271,91,0,

112,165,0,270,91,0,

111,164,0,269,91,0,

111,163,0,268,90,0,

110,162,0,266,89,0,

110,161,0,263,89,0,

110,161,0,263,89,0,

109,159,0,261,89,0,

108,159,0,260,88,0,

108,158,0,259,88,0,

108,158,0,257,87,0,

107,157,0,255,87,0,

107,156,0,255,86,0,

106,156,0,253,86,0,

105,155,0,252,86,0,

105,155,0,251,85,0,

105,154,0,249,84,0,

103,153,0,248,84,0,

103,153,0,247,84,0,

103,152,0,245,83,0,

103,152,0,243,83,0,

103,151,0,243,82,0,

102,150,0,241,82,0,

102,149,0,240,82,0,

101,149,0,239,90,0,

101,148,0,238,91,0,

101,147,0,237,90,0,

100,147,0,235,89,0,

99,146,0,234,89,0,

99,146,0,233,89,0,

99,145,0,231,88,0,

99,145,0,231,88,0,

98,144,0,230,88,0,

98,143,0,229,87,0,

97,143,0,227,87,0,

97,142,0,226,86,0,

96,142,0,225,86,0,

96,142,0,224,86,0,

96,141,0,223,85,0,

96,140,0,222,85,0,

95,140,0,221,84,0,

95,139,0,220,84,0,

94,139,0,219,83,0,

93,138,0,218,83,0,

93,137,0,217,82,0,

93,167,0,216,82,0,

93,167,0,215,82,0,

92,166,0,214,85,0,

92,165,0,213,87,0,

92,164,0,211,87,0,

91,163,0,211,86,0,

91,163,0,212,86,0,

90,162,0,257,85,0,

90,161,0,255,85,0,

89,159,0,254,84,0,

89,159,0,252,83,0,

89,158,0,251,83,0,

89,158,0,250,83,0,

88,157,0,248,82,0,

88,156,0,247,105,0,

88,155,0,246,105,0,

87,154,0,245,105,0,

87,153,0,243,103,0,

86,153,0,242,103,0,

86,152,0,241,103,0,

86,152,0,239,102,0,

85,150,0,238,102,0,

84,150,0,237,101,0,

84,149,0,236,100,0,

84,147,0,234,99,0,

83,147,0,233,99,0,

83,147,0,231,99,0,

83,146,0,231,98,0,

82,145,0,230,98,0,

83,144,0,229,97,0,

82,143,0,269,97,0,

81,143,0,267,96,0,

81,142,0,266,96,0,

81,142,0,263,96,0,

80,141,0,263,95,0,

80,142,0,261,95,0,

79,141,0,259,94,0,

79,140,0,258,94,0,

79,140,0,257,93,0,

79,139,0,255,93,0,

79,138,0,254,92,0,

78,137,0,265,92,0,

78,137,0,278,91,0,

78,135,0,277,91,0,

77,135,0,275,91,0,

77,135,0,273,90,0,

77,135,0,271,89,0,

77,134,0,270,89,0,

76,134,0,269,88,0,

76,133,0,268,89,0,

76,133,0,266,89,0,

75,131,0,265,88,0,

75,131,0,263,88,0,

74,131,0,266,88,0,

74,130,0,263,87,0,

74,130,0,263,87,0,

73,129,0,261,86,0,

73,129,0,259,86,0,

73,140,0,259,86,0,

73,154,0,257,85,0,

71,153,0,255,85,0,

71,152,0,254,84,0,

71,152,0,254,84,0,

71,151,0,252,83,0,

71,150,0,251,83,0,

71,149,0,252,83,0,

70,149,0,250,82,0,

70,147,0,249,82,0,

70,147,0,248,81,0,

70,146,0,246,81,0,

70,145,0,246,81,0,

69,145,0,244,80,0,

69,144,0,243,80,0,

68,143,0,242,80,0,

68,143,0,240,79,0,

67,142,0,240,79,0,

67,142,0,238,79,0,

67,141,0,237,79,0,

67,140,0,236,78,0,

67,139,0,235,78,0,

66,139,0,233,77,0,

67,137,0,231,77,0,

66,142,0,231,77,0,

66,142,0,230,76,0,

66,140,0,229,82,0,

65,140,0,227,89,0,

65,139,0,227,89,0,

65,138,0,226,88,0,

64,138,0,238,88,0,

64,137,0,238,87,0,

63,135,0,237,86,0,

63,135,0,236,86,0,

63,135,0,234,86,0,

63,135,0,233,85,0,

63,134,0,231,84,0,

62,133,0,231,84,0,

62,132,0,230,87,0,

62,131,0,228,90,0,

62,131,0,227,90,0,

62,131,0,226,89,0,

61,130,0,235,89,0,

61,129,0,234,88,0,

61,129,0,231,88,0,

60,129,0,231,88,0,

60,127,0,230,87,0,

60,131,0,229,87,0,

61,170,0,227,86,0,

61,169,0,226,86,0,

60,167,0,225,115,0,

60,167,0,224,114,0,

60,166,0,223,113,0,

60,165,0,222,112,0,

60,164,0,226,112,0,

59,163,0,225,111,0,

59,163,0,224,110,0,

59,161,0,223,110,0,

59,161,0,221,109,0,

58,159,0,220,109,0,

58,159,0,219,108,0,

57,158,0,218,108,0,

57,157,0,217,107,0,

57,156,0,216,107,0,

57,156,0,215,106,0,

56,155,0,284,105,0,

56,154,0,280,104,0,

56,153,0,280,103,0,

56,152,0,277,103,0,

55,152,0,275,103,0,

62,157,0,274,103,0,

62,156,0,272,102,0,

61,155,0,271,102,0,

61,154,0,269,101,0,

61,153,0,268,100,0,

61,153,0,267,100,0,

60,152,0,265,99,0,

60,151,0,263,99,0,

60,150,0,263,98,0,

59,150,0,261,98,0,

59,148,0,259,97,0,

58,147,0,258,97,0,

58,147,0,257,96,0,

58,146,0,255,105,0,

57,146,0,254,130,0,

57,145,0,253,129,0,

57,144,0,252,127,0,

57,143,0,250,127,0,

56,143,0,249,126,0,

56,142,0,248,126,0,

56,141,0,246,125,0,

56,141,0,245,124,0,

56,140,0,243,124,0,

55,139,0,243,123,0,

55,139,0,241,123,0,

54,138,0,240,122,0,

54,137,0,239,121,0,

54,136,0,238,121,0,

54,135,0,237,120,0,

54,135,0,282,120,0,

53,134,0,280,119,0,

53,134,0,279,118,0,

52,133,0,277,118,0,

52,132,0,275,117,0,

52,131,0,273,117,0,

52,131,0,272,115,0,

51,131,0,271,115,0,

51,130,0,269,115,0,

51,129,0,268,114,0,

51,129,0,266,113,0,

51,127,0,282,112,0,

51,127,0,281,112,0,

50,127,0,280,112,0,

50,126,0,278,111,0,

50,126,0,276,111,0,

49,125,0,275,110,0,

49,125,0,273,109,0,

49,124,0,271,109,0,

49,124,0,270,108,0,

49,123,0,268,108,0,

49,122,0,268,107,0,

48,122,0,265,106,0,

48,121,0,263,106,0,

48,121,0,263,105,0,

48,120,0,262,105,0,

48,120,0,259,103,0,

47,120,0,259,103,0,

47,140,0,257,103,0,

47,139,0,255,103,0,

46,139,0,255,105,0,

47,137,0,253,103,0,

46,137,0,252,103,0,

46,135,0,251,103,0,

46,135,0,263,103,0,

45,135,0,261,102,0,

46,134,0,259,102,0,

45,133,0,258,101,0,

45,132,0,257,101,0,

73,157,0,255,100,0,

71,156,0,254,99,0,

71,155,0,252,112,0,

71,154,0,251,112,0,

70,153,0,249,111,0,

70,153,0,248,110,0,

70,152,0,274,109,0,

69,151,0,271,109,0,

69,150,0,271,109,0,

68,149,0,269,108,0,

68,148,0,268,108,0,

67,179,0,266,107,0,

67,177,0,265,106,0,

67,176,0,263,105,0,

67,175,0,262,105,0,

66,174,0,261,103,0,

66,173,0,259,103,0,

65,172,0,258,103,0,

65,171,0,256,103,0,

64,170,0,255,103,0,

63,169,0,254,101,0,

63,167,0,252,101,0,

66,189,0,251,101,0,

66,188,0,249,100,0,

65,186,0,248,109,0,

65,185,0,248,118,0,

64,184,0,246,117,0,

64,183,0,244,117,0,

63,182,0,243,115,0,

63,181,0,242,115,0,

63,179,0,241,115,0,

63,179,0,240,114,0,

62,178,0,239,113,0,

62,177,0,238,113,0,

62,176,0,236,112,0,

62,176,0,235,112,0,

61,175,0,234,126,0,

61,174,0,233,124,0,

61,173,0,231,124,0,

60,172,0,231,123,0,

60,171,0,229,122,0,

60,170,0,228,122,0,

59,169,0,227,121,0,

59,167,0,226,120,0,

59,167,0,225,120,0,

59,212,0,224,120,0,

59,210,0,222,118,0,

59,209,0,222,118,0,

58,207,0,221,118,0,

58,206,0,220,116,0,

57,205,0,218,116,0,

57,204,0,272,115,0,

57,203,0,271,115,0,

56,202,0,269,114,0,

56,199,0,268,113,0,

56,199,0,265,113,0,

70,199,0,264,113,0,

