
30,23,3,38,67,3,

30,22,3,38,67,3,

30,22,3,38,67,3,

30,23,3,37,67,3,

30,22,3,37,66,3,

29,22,3,37,66,3,

29,22,3,37,66,3,

30,22,3,37,65,4,

29,22,3,37,65,3,

29,22,3,37,65,3,

29,22,3,36,65,3,

29,22,3,36,64,3,

28,22,3,36,63,3,

30,21,3,36,63,3,

30,21,3,36,63,3,

30,21,3,35,63,3,

30,21,3,35,63,3,

30,21,3,35,62,3,

30,21,3,35,62,4,

30,21,3,35,62,3,

30,21,3,39,62,3,

29,21,3,39,62,3,

29,20,3,39,61,3,

29,20,3,39,61,3,

29,20,3,39,61,3,

29,20,3,38,61,3,

31,20,3,38,60,3,

31,20,3,38,60,3,

31,19,3,37,60,3,

31,19,3,37,59,3,

31,19,3,38,59,3,

31,19,3,37,59,3,

30,19,3,37,59,3,

31,19,3,37,58,3,

30,27,3,36,58,3,

30,28,3,36,58,3,

30,29,3,36,57,3,

30,28,3,36,57,3,

29,28,3,36,57,3,

30,28,3,35,57,3,

30,28,3,35,57,3,

29,28,3,35,56,3,

29,27,3,35,56,3,

29,27,3,35,56,3,

29,27,3,35,56,3,

29,27,3,35,56,3,

29,27,3,35,56,3,

29,27,3,35,56,3,

28,27,3,34,55,3,

28,26,3,34,55,3,

28,26,3,34,54,3,

32,26,3,34,54,3,

47,26,3,34,54,3,

47,26,3,34,54,3,

46,26,3,33,53,3,

46,25,3,33,53,3,

46,25,3,33,53,3,

46,25,3,33,54,3,

45,25,3,33,53,3,

45,25,3,33,53,3,

45,25,3,33,53,3,

45,25,3,33,52,3,

44,25,3,32,52,4,

44,24,3,32,52,3,

44,25,3,32,52,3,

43,25,3,32,51,3,

43,24,3,31,51,3,

43,24,3,31,51,3,

43,24,3,31,51,3,

43,24,3,31,51,3,

43,24,3,31,51,3,

43,24,3,31,50,3,

42,24,3,31,50,3,

42,24,3,31,50,3,

42,28,3,31,50,3,

41,28,3,31,50,3,

41,27,3,30,49,3,

41,27,3,30,49,3,

41,27,3,30,49,3,

41,27,3,30,48,3,

41,27,3,30,48,3,

41,26,3,30,48,3,

40,26,3,30,48,3,

39,26,3,30,48,3,

39,26,3,30,48,3,

39,26,3,29,48,3,

39,25,3,29,47,3,

39,25,3,29,47,3,

39,25,3,29,47,3,

39,25,3,29,47,3,

39,25,3,29,46,3,

39,25,3,29,46,3,

39,25,3,29,46,3,

38,25,3,28,46,3,

38,25,3,28,46,3,

38,25,3,28,46,3,

38,24,3,28,45,3,

38,25,3,28,45,3,

38,24,3,28,45,3,

37,24,3,29,45,3,

37,24,3,31,45,3,

37,24,3,31,44,3,

37,24,3,30,44,3,

36,24,3,30,44,3,

37,24,3,30,44,3,

37,24,3,30,44,3,

36,24,3,30,44,3,

36,23,3,30,44,3,

36,24,3,30,43,3,

35,24,3,29,43,3,

35,23,3,29,43,3,

35,23,3,29,43,3,

35,23,3,29,43,3,

35,23,3,29,42,3,

35,23,3,29,42,3,

35,22,3,29,42,3,

34,22,3,28,42,3,

47,22,3,29,42,3,

46,22,3,28,41,3,

46,22,3,28,41,3,

46,22,3,28,41,3,

46,21,3,28,41,3,

45,21,3,28,40,3,

45,21,3,28,41,3,

45,21,3,27,39,3,

45,23,3,28,39,3,

44,23,3,27,39,3,

44,23,3,27,39,3,

44,23,3,27,39,3,

44,22,3,27,39,3,

44,22,3,27,39,3,

43,22,3,27,39,3,

43,22,3,27,39,3,

43,22,3,26,39,3,

43,22,3,26,39,3,

43,22,3,26,39,3,

42,22,3,26,38,3,

43,23,3,26,38,3,

42,25,3,26,38,3,

41,24,3,26,38,3,

41,24,3,26,38,3,

41,24,3,26,38,3,

41,24,3,25,37,3,

41,24,3,25,37,3,

41,24,3,25,37,3,

41,24,3,25,37,3,

41,24,3,25,37,3,

41,24,3,25,36,3,

40,24,3,25,37,3,

40,24,3,24,36,3,

39,23,3,26,36,3,

39,23,3,26,35,3,

39,24,3,25,36,3,

39,23,3,25,35,3,

39,23,3,25,35,3,

39,23,3,25,35,3,

39,23,3,25,35,3,

39,23,3,25,35,3,

39,23,3,25,35,3,

39,22,3,25,35,3,

39,23,3,25,34,3,

39,22,3,25,34,3,

38,22,3,24,34,3,

39,22,3,25,34,3,

39,22,3,33,34,3,

39,23,3,32,34,3,

38,23,3,32,34,3,

38,22,3,31,34,3,

38,22,3,31,34,3,

38,22,3,31,34,3,

38,22,3,31,33,3,

38,22,3,31,33,3,

38,22,3,31,33,3,

38,22,3,31,32,3,

37,21,3,31,32,3,

37,21,3,31,33,3,

37,21,3,31,32,3,

37,21,3,31,32,3,

37,22,3,31,32,3,

36,22,3,30,31,3,

36,22,3,30,32,3,

36,22,3,30,31,3,

38,22,3,30,31,3,

62,22,3,30,31,3,

61,22,3,30,31,3,

61,21,3,30,31,3,

61,21,3,29,31,3,

60,21,3,29,31,3,

60,21,3,29,31,3,

60,21,3,29,31,3,

60,46,3,30,31,3,

60,51,3,30,31,3,

59,77,3,30,30,3,

59,77,3,30,30,3,

58,76,3,29,30,3,

58,76,3,29,30,3,

57,75,3,29,30,3,

57,75,3,29,30,3,

57,75,3,29,29,3,

57,74,3,29,29,3,

56,74,3,29,29,3,

56,73,3,29,29,3,

56,73,3,28,29,3,

56,73,3,35,29,3,

56,71,3,35,29,3,

55,71,3,35,29,3,

55,71,3,35,29,3,

55,71,3,35,28,3,

56,71,3,34,28,3,

56,71,3,34,28,3,

56,71,3,34,28,3,

56,70,3,34,28,3,

56,69,3,34,28,3,

55,69,3,34,28,3,

56,69,3,33,28,3,

55,69,3,34,28,3,

55,68,3,33,28,3,

54,68,3,33,27,3,

54,69,3,33,27,3,

54,69,3,33,27,3,

54,69,3,33,27,3,

53,68,3,32,27,3,

55,68,3,32,27,3,

54,67,3,32,27,3,

54,67,3,32,27,3,

54,67,3,31,26,3,

54,67,3,31,26,3,

53,67,3,31,26,3,

53,68,3,31,26,3,

53,99,3,31,26,3,

53,127,3,31,26,3,

52,167,3,31,26,3,

52,167,3,31,25,3,

52,166,3,31,25,3,

52,165,3,31,25,3,

53,165,3,30,26,3,

53,163,3,30,25,3,

52,163,3,30,25,3,

52,162,3,30,25,3,

52,161,3,30,25,3,

52,159,3,30,25,3,

51,159,3,29,24,3,

51,159,3,30,25,3,

51,158,3,29,25,3,

51,157,3,29,25,3,

68,161,3,29,24,3,

112,199,3,29,24,3,

113,197,3,29,24,3,

118,196,3,28,24,3,

117,195,3,28,24,3,

116,194,3,29,24,3,

115,193,3,28,23,3,

115,192,3,28,24,3,

114,190,3,28,24,3,

113,190,3,28,23,3,

113,189,3,28,23,3,

112,188,3,28,23,3,

112,187,3,28,23,3,

111,186,3,27,23,3,

111,185,3,27,23,3,

110,184,3,27,23,3,

110,183,3,27,22,3,

109,182,3,27,22,3,

108,181,3,27,23,3,

108,180,3,26,28,3,

108,179,3,42,29,3,

107,179,3,41,28,3,

107,177,3,41,28,3,

106,177,3,41,28,3,

105,176,3,39,28,3,

105,176,3,39,28,3,

107,175,3,39,28,3,

121,173,3,39,28,3,

121,172,3,39,27,3,

120,172,3,39,27,3,

119,171,3,39,27,3,

119,170,3,39,27,3,

118,169,3,39,27,3,

117,169,3,39,26,3,

117,167,3,39,26,3,

115,167,3,38,26,3,

115,167,3,38,26,3,

115,166,3,38,26,4,

154,165,3,38,26,4,

236,238,4,38,26,3,

240,283,3,37,26,3,

239,281,3,37,25,3,

237,280,3,37,25,3,

235,277,3,37,25,3,

234,275,3,37,25,3,

233,274,4,36,25,4,

231,273,3,36,25,4,

230,271,3,35,25,3,

229,270,3,35,24,3,

228,268,3,35,24,3,

226,267,3,35,25,3,

225,265,4,35,24,3,

225,263,3,35,24,3,

223,263,3,35,24,4,

222,262,3,35,24,3,

221,259,3,35,24,3,

220,259,4,35,24,3,

219,303,4,34,24,4,

217,301,4,34,24,4,

217,299,4,34,24,3,

251,324,4,34,24,4,

249,423,4,34,23,4,

247,465,4,33,23,4,

246,462,4,33,23,4,

243,458,4,33,23,3,

243,455,4,33,23,4,

241,453,4,33,26,4,

240,449,4,33,33,4,

239,447,4,35,32,4,

238,444,4,35,53,4,

236,441,5,35,53,4,

235,438,4,35,52,4,

234,435,4,34,52,4,

231,433,4,34,51,4,

231,430,4,34,51,3,

230,428,4,34,51,4,

229,425,4,33,51,4,

228,423,4,33,50,4,

227,420,4,33,50,4,

226,418,4,60,50,4,

224,415,4,60,50,4,

224,413,4,60,50,4,

222,411,5,59,49,4,

221,408,4,59,49,4,

220,406,4,59,49,4,

219,404,4,59,48,3,

218,401,4,58,48,4,

217,399,4,58,48,4,

216,397,4,57,47,4,

216,395,3,57,48,4,

214,393,4,57,48,4,

213,391,4,57,47,4,

212,389,4,56,47,4,

211,386,4,56,47,4,

210,384,4,56,46,3,

209,382,4,56,46,4,

208,381,4,56,46,4,

207,379,4,56,46,4,

207,377,5,56,45,4,

206,376,4,55,45,5,

205,373,4,55,45,4,

204,371,4,54,45,5,

203,369,5,54,45,5,

202,368,5,54,45,4,

201,366,4,53,44,5,

199,364,4,53,44,5,

199,361,5,53,44,5,

199,359,4,53,44,4,

198,358,5,52,44,5,

225,357,5,52,44,5,

271,476,5,52,43,5,

269,480,5,51,43,5,

267,476,5,51,42,5,

265,473,5,51,43,5,

263,470,6,51,43,5,

262,466,5,51,43,5,

261,463,6,51,42,6,

259,460,5,51,42,5,

258,457,6,51,42,6,

257,455,6,50,41,6,

255,452,6,50,41,6,

254,450,6,50,41,6,

253,447,6,49,41,6,

252,444,6,49,41,6,

250,441,6,49,39,6,

249,439,6,49,41,6,

248,437,7,52,41,7,

247,433,6,52,39,7,

245,432,7,51,39,7,

244,429,7,51,39,6,

243,427,7,51,39,7,

242,423,7,51,39,7,

240,421,7,51,39,7,

239,419,7,50,39,7,

238,417,7,50,39,7,

237,414,7,49,39,7,

236,412,7,49,39,7,

235,410,7,49,39,7,

233,408,7,49,38,7,

233,405,7,48,38,7,

231,403,7,48,38,7,

230,400,7,48,38,7,

230,399,7,48,38,7,

229,396,7,48,38,7,

227,394,7,48,37,7,

226,391,7,47,37,7,

225,390,7,47,37,7,

224,388,7,47,37,7,

223,385,7,47,37,7,

222,384,7,52,44,7,

221,383,7,57,83,7,

220,380,7,57,82,7,

219,377,7,57,81,7,

217,376,7,57,81,7,

217,374,7,56,80,7,

216,371,7,56,79,7,

215,370,7,56,79,7,

214,368,7,56,79,7,

213,366,7,55,79,7,

211,364,7,55,78,7,

211,362,7,55,78,7,

210,361,7,54,78,7,

209,359,7,54,77,7,

207,357,7,54,77,7,

207,355,7,54,76,7,

206,353,7,53,76,7,

205,352,7,53,76,7,

204,350,7,53,76,7,

203,348,7,53,75,7,

203,347,7,52,75,7,

201,345,7,52,74,7,

201,344,7,51,74,7,

199,341,7,51,73,7,

199,339,7,51,73,7,

198,338,7,51,73,7,

197,336,7,51,71,7,

196,335,7,50,71,7,

195,333,7,50,71,7,

195,332,7,50,71,7,

194,330,7,50,71,7,

193,327,7,49,71,7,

192,327,7,49,71,7,

191,325,7,49,70,7,

190,323,7,49,70,7,

189,322,7,49,69,7,

189,321,7,48,69,7,

188,319,7,48,68,7,

187,317,7,48,68,7,

187,317,7,48,68,7,

185,315,7,47,67,7,

185,313,7,48,67,7,

184,312,7,47,67,7,

184,310,7,46,67,7,

182,309,7,47,67,7,

181,307,7,46,66,7,

181,306,6,46,66,7,

180,304,7,46,66,7,

179,303,6,48,65,7,

179,302,7,49,65,7,

177,300,7,48,64,7,

177,300,6,48,64,7,

176,297,6,48,63,7,

176,295,6,48,63,7,

175,295,6,48,63,7,

174,294,7,47,63,6,

173,292,7,47,63,7,

173,291,6,47,63,6,

172,290,6,46,62,6,

171,288,6,47,62,6,

170,287,6,46,62,6,

169,286,6,46,61,6,

167,284,6,46,61,6,

167,284,7,45,60,6,

167,282,6,45,60,6,

167,281,6,45,60,6,

166,280,6,45,60,6,

166,279,6,44,60,6,

164,277,6,44,59,6,

163,275,6,44,59,6,

163,275,6,44,59,6,

163,273,6,44,58,6,

162,271,6,44,58,6,

161,271,6,43,58,6,

159,270,6,43,57,6,

159,269,6,43,57,6,

159,268,6,42,57,6,

159,267,6,43,57,6,

158,265,6,42,57,6,

157,263,6,42,56,6,

156,263,5,42,56,6,

156,262,6,42,99,6,

155,260,6,41,98,6,

155,259,6,41,97,6,

154,258,6,41,96,6,

153,257,5,41,96,6,

152,255,5,41,95,6,

152,255,6,41,95,6,

152,254,6,41,94,6,

151,253,6,41,94,6,

150,252,6,39,93,6,

149,251,6,39,93,6,

149,249,6,39,92,6,

148,248,6,39,92,6,

147,248,6,39,91,6,

147,246,6,39,91,6,

146,245,5,39,91,6,

146,243,5,39,90,6,

145,243,5,39,89,5,

143,242,5,39,89,6,

143,241,5,38,89,5,

143,240,5,38,88,5,

143,238,5,38,88,5,

142,238,5,38,88,6,

141,237,5,38,87,5,

141,236,5,37,86,5,

140,235,5,44,86,5,

140,233,5,48,86,5,

139,233,5,48,85,6,

138,231,5,48,85,5,

138,231,5,47,84,5,

137,230,5,47,83,6,

137,228,5,47,83,5,

135,227,5,47,83,5,

135,227,5,46,83,5,

135,225,5,46,82,5,

134,225,5,46,82,5,

134,224,5,46,81,5,

134,223,5,45,81,5,

133,222,5,45,80,5,

132,221,5,45,80,5,

132,220,5,44,79,5,

131,219,5,44,79,5,

131,219,5,44,79,5,

130,217,5,44,79,5,

130,217,5,44,78,5,

129,216,5,43,78,5,

129,215,5,44,78,5,

127,214,5,43,77,5,

127,213,5,43,77,5,

127,212,5,43,77,5,

126,211,5,42,76,5,

126,211,5,42,76,5,

125,210,5,42,76,5,

125,209,5,42,75,4,

124,207,4,42,75,5,

124,207,4,41,75,5,

124,206,5,41,74,5,

123,205,4,41,74,5,

123,205,4,41,73,5,

121,204,5,41,73,5,

121,203,5,40,73,5,

121,202,5,39,73,5,

121,201,5,39,71,4,

120,199,4,39,71,4,

120,199,5,39,71,5,

120,199,5,39,71,5,

119,198,4,39,71,5,

118,197,4,39,71,4,

118,196,4,39,70,4,

117,195,4,39,70,5,

117,195,4,39,70,5,

115,194,5,38,69,5,

115,193,4,38,69,4,

115,193,5,38,69,5,

115,192,5,38,68,4,

114,191,4,38,67,4,

114,190,4,38,67,4,

113,189,4,38,67,4,

113,189,4,37,67,4,

113,188,4,37,67,5,

112,187,4,37,66,5,

112,187,4,37,66,4,

111,186,4,37,66,4,

111,185,4,36,66,4,

110,184,4,37,66,5,

110,184,4,36,66,5,

109,183,4,36,65,4,

109,182,5,36,65,4,

109,181,4,36,65,4,

108,180,4,35,64,4,

108,179,4,35,64,4,

107,179,4,35,63,4,

107,178,4,35,63,5,

106,178,4,35,63,4,

106,177,4,35,63,5,

105,176,4,35,62,5,

105,176,4,35,62,4,

105,175,4,34,62,4,

103,174,4,34,61,4,

103,174,4,34,61,4,

103,173,4,34,61,4,

103,172,4,34,61,4,

103,172,4,34,61,4,

102,171,4,33,60,4,

102,170,4,33,60,4,

101,169,4,33,60,4,

101,169,4,33,60,4,

100,167,4,33,59,4,

100,167,4,32,59,4,

99,167,4,33,59,4,

99,166,4,32,59,4,

99,165,4,32,57,4,

98,165,4,32,58,4,

98,164,4,31,58,3,

98,163,4,31,57,4,

98,163,4,31,57,3,

97,162,4,31,57,4,

97,162,4,31,57,4,

96,161,4,31,56,4,

96,161,4,31,56,4,

96,159,4,31,56,4,

96,159,4,33,56,4,

95,159,4,33,56,4,

94,158,4,32,55,4,

94,158,4,31,56,4,

93,157,4,32,55,4,

94,156,4,31,54,3,

93,156,4,31,54,4,

93,155,4,31,54,4,

92,155,4,31,54,4,

92,154,4,31,53,4,

92,153,3,31,53,4,

91,153,4,31,53,4,

91,152,3,30,53,3,

91,152,3,31,53,4,

90,152,4,31,52,4,

90,151,4,30,52,4,

90,150,4,30,51,4,

89,150,4,30,51,3,

89,149,3,30,51,4,

89,148,3,30,51,3,

88,147,4,29,51,3,

88,147,3,30,51,3,

88,147,3,29,50,3,

87,146,3,29,50,3,

87,145,3,29,50,3,

87,145,4,29,49,3,

86,145,3,28,49,3,

85,143,3,29,49,3,

86,143,4,29,49,4,

85,143,3,28,49,3,

85,142,3,28,49,3,

84,142,3,28,48,3,

84,142,4,28,48,3,

83,141,3,28,48,3,

83,140,3,27,48,3,

83,140,3,28,48,3,

83,140,3,31,47,3,

83,139,3,31,47,3,

82,138,3,31,47,3,

81,137,3,31,46,4,

81,137,3,30,47,3,

81,137,3,31,46,3,

81,135,3,31,46,3,

81,135,4,30,46,3,

80,135,3,30,45,3,

80,135,3,30,46,3,

79,134,3,30,46,3,

79,134,4,30,45,3,

79,133,3,29,45,3,

79,132,3,29,45,3,

79,132,4,29,45,3,

78,131,3,29,44,4,

78,131,3,29,44,3,

78,131,4,29,44,3,

78,130,3,29,44,4,

77,130,3,28,43,3,

77,129,3,28,44,4,

77,129,4,28,43,3,

76,128,3,28,43,3,

76,127,3,28,43,3,

75,127,3,28,43,4,

76,127,3,29,43,4,

75,127,4,29,42,3,

75,126,3,29,42,3,

75,126,3,29,42,3,

74,125,3,29,41,3,

73,125,3,29,41,4,

74,124,3,28,41,3,

73,124,3,28,41,3,

73,123,3,28,41,3,

73,123,3,28,40,3,

73,122,3,28,39,3,

71,122,3,28,39,3,

71,121,3,28,39,4,

71,121,3,31,39,3,

71,120,3,30,39,3,

71,120,3,31,39,4,

71,120,3,30,39,3,

71,120,3,30,39,4,

71,119,3,30,39,3,

70,119,3,30,39,3,

70,118,3,30,39,3,

70,118,3,29,39,3,

69,117,3,30,39,3,

69,117,3,29,38,3,

69,116,3,29,38,3,

69,115,3,38,38,3,

68,115,3,39,38,3,

68,115,3,39,38,3,

67,115,3,39,38,3,

67,114,3,39,38,3,

67,114,3,39,37,3,

67,113,3,38,37,3,

66,113,3,38,37,3,

66,113,3,38,37,3,

66,112,3,38,36,3,

66,112,3,38,36,3,

66,112,4,38,36,3,

66,111,4,38,36,3,

65,110,3,38,36,3,

65,110,3,38,35,3,

64,110,3,38,35,3,

64,109,3,38,35,3,

64,109,3,37,35,3,

63,108,3,37,35,3,

63,108,3,37,35,3,

63,108,3,37,35,3,

63,108,3,37,35,3,

63,107,3,36,34,3,

63,107,3,36,34,3,

62,106,3,36,34,3,

62,105,3,36,34,3,

62,105,3,35,34,3,

62,105,3,35,33,3,

61,103,3,35,33,3,

61,103,3,35,33,3,

81,103,3,35,33,3,

85,103,3,35,33,3,

85,103,3,34,33,3,

84,103,3,34,33,3,

83,102,3,34,32,3,

83,102,3,34,32,3,

83,102,3,33,32,3,

83,101,3,33,31,3,

82,101,3,33,31,3,

81,100,3,33,31,3,

81,100,3,33,31,3,

81,100,3,33,31,3,

81,99,3,33,31,3,

80,99,3,33,31,3,

80,99,3,33,31,3,

79,98,3,32,31,3,

79,98,3,32,31,3,

79,98,3,32,30,3,

79,97,3,31,30,3,

78,97,3,31,30,3,

78,97,3,31,30,3,

78,96,3,31,30,3,

78,96,3,31,30,3,

77,96,3,31,30,3,

77,95,3,31,30,3,

76,95,3,31,30,3,

76,95,3,31,29,3,

75,94,3,31,29,3,

76,94,3,31,29,3,

75,94,3,30,29,3,

75,93,3,30,29,3,

74,93,3,30,29,3,

74,93,3,30,29,3,

73,93,3,31,29,3,

73,92,3,31,28,3,

73,92,3,31,29,3,

73,91,3,30,28,3,

72,91,3,30,28,3,

71,91,3,30,28,3,

71,90,3,30,28,3,

71,90,3,30,28,3,

71,89,3,30,28,3,

71,89,3,30,28,3,

71,89,3,29,28,3,

70,89,3,29,27,3,

70,89,3,29,27,3,

70,88,3,36,27,3,

69,88,3,38,27,3,

69,88,3,38,27,3,

69,88,3,38,26,3,

69,88,3,38,27,3,

68,87,3,37,27,3,

68,87,3,37,27,3,

78,86,3,37,27,3,

78,86,3,37,26,3,

78,86,3,37,26,3,

78,85,3,36,25,3,

77,85,3,36,26,3,

77,85,3,36,25,3,

76,84,3,36,25,3,

76,84,3,36,25,3,

76,83,3,35,25,3,

76,83,3,35,25,3,

75,83,3,35,25,3,

75,83,3,35,25,3,

75,83,3,35,25,3,

74,82,3,35,25,3,

73,82,3,35,25,3,

73,82,3,35,25,3,

73,81,3,34,24,3,

73,81,3,34,24,3,

71,81,3,34,24,4,

71,81,3,34,24,3,

71,80,3,34,24,3,

71,79,3,33,24,3,

71,79,3,33,24,3,

71,79,3,33,24,3,

71,79,3,33,24,3,

70,79,3,33,24,3,

70,79,3,33,24,3,

70,78,3,32,24,3,

69,78,3,32,23,3,

69,78,3,31,24,3,

69,77,3,32,23,3,

68,77,3,31,24,3,

68,77,3,31,24,3,

67,77,3,31,23,3,

67,77,3,31,23,3,

67,76,3,31,23,3,

67,76,3,31,23,4,

67,76,3,31,22,3,

66,76,3,31,22,3,

66,75,3,31,22,3,

66,75,3,31,22,3,

66,75,3,30,22,3,

65,75,3,31,22,3,

65,74,3,30,22,3,

65,74,3,30,21,3,

65,74,3,30,21,3,

64,73,3,30,21,3,

63,73,3,29,21,4,

63,73,3,30,21,3,

63,73,3,29,21,3,

63,73,3,29,21,3,

63,71,3,29,21,3,

63,71,3,29,21,3,

62,71,3,29,21,3,

62,71,3,29,21,3,

62,71,3,28,20,3,

62,71,3,28,20,3,

61,71,3,29,20,3,

61,71,3,28,21,3,

61,70,3,28,21,3,

61,70,3,28,21,3,

60,70,3,28,21,3,

60,69,3,28,20,3,

60,69,3,27,20,3,

60,69,3,28,20,3,

60,69,3,28,20,3,

60,69,3,27,20,3,

59,68,3,27,20,3,

59,68,3,27,20,3,

59,67,3,27,19,3,

59,67,3,27,19,3,

58,67,3,27,19,3,

58,67,3,26,19,3,

58,67,3,26,19,3,

58,67,3,26,19,3,

57,66,3,26,19,3,

57,66,3,26,19,3,

57,66,3,26,19,3,

57,65,3,26,19,3,

57,65,3,26,19,3,

56,65,3,25,19,3,

56,65,3,25,18,3,

56,65,3,25,19,3,

56,64,3,25,19,3,

56,63,3,25,19,3,

56,64,3,26,18,3,

56,63,3,26,19,3,

55,63,3,26,18,3,

55,63,3,26,18,3,

55,63,3,25,18,3,

55,63,3,25,18,3,

55,62,3,25,18,3,

55,62,3,25,18,3,

54,62,3,25,18,3,

54,62,3,25,18,3,

54,62,3,25,18,3,

54,62,3,25,18,3,

54,62,3,25,18,3,

53,61,3,33,17,3,

53,61,3,33,18,3,

53,61,3,33,17,3,

53,61,3,32,17,3,

53,60,3,32,17,3,

52,60,3,31,17,3,

52,60,3,31,17,3,

52,60,3,31,17,3,

51,59,3,31,17,3,

51,60,3,31,16,3,

51,59,3,31,17,3,

51,59,3,31,16,3,

51,59,3,31,17,3,

51,59,3,31,17,3,

50,58,3,31,16,3,

51,58,3,31,17,3,

50,57,3,30,16,3,

50,57,3,30,16,3,

49,57,3,30,16,3,

50,57,3,30,16,3,

49,57,3,30,16,3,

49,57,3,30,16,3,

49,57,3,30,15,3,

49,59,3,29,16,3,

49,59,3,29,16,3,

48,58,3,29,15,3,

48,58,3,29,16,3,

48,58,3,29,16,3,

48,57,3,29,16,3,

48,57,3,29,15,3,

48,57,3,29,16,3,

48,56,3,28,15,3,

47,56,3,28,15,3,

47,56,3,28,15,3,

47,56,3,28,15,3,

47,56,3,28,15,3,

47,56,3,28,15,3,

47,56,3,28,15,3,

46,55,3,27,15,3,

46,56,3,28,65,3,

46,55,3,27,63,3,

46,55,3,27,63,3,

45,55,3,27,63,3,

46,54,3,27,62,3,

45,54,3,27,62,3,

45,54,3,27,61,3,

45,57,3,27,62,3,

45,68,3,27,61,3,

45,68,3,26,61,3,

44,67,3,26,60,3,

44,67,3,26,60,3,

44,67,3,26,60,3,

44,66,3,26,59,3,

44,66,3,26,59,3,

44,66,3,25,59,3,

43,66,3,25,59,3,

43,66,3,25,58,3,

43,65,3,25,58,3,

43,65,3,25,58,3,

43,65,3,25,57,3,

43,64,3,25,57,3,

43,63,3,25,57,3,

43,63,3,24,57,3,

42,63,3,25,56,3,

42,63,3,24,56,3,

42,63,3,24,56,3,

42,62,3,24,56,3,

41,62,3,24,56,3,

41,62,3,24,56,3,

41,61,3,24,55,3,

41,61,3,24,55,3,

41,61,3,24,54,3,

41,61,3,24,54,3,

39,60,3,24,54,3,

41,60,3,24,53,3,

39,60,3,24,53,3,

39,60,3,24,53,3,

39,60,3,24,53,3,

39,60,3,23,53,3,

39,59,3,23,52,3,

39,59,3,23,52,3,

39,59,3,23,51,3,

39,58,3,23,52,3,

39,58,3,23,51,3,

39,58,3,22,51,3,

39,57,3,23,51,3,

39,57,3,22,51,3,

39,57,3,22,51,3,

38,57,3,22,50,3,

38,56,4,22,50,3,

38,56,3,22,50,3,

38,56,3,22,50,3,

38,56,3,23,49,3,

38,56,3,22,49,3,

38,55,3,22,49,3,

37,55,3,22,48,3,

38,55,3,22,48,3,

37,55,3,22,48,3,

37,55,3,22,48,3,

37,54,3,22,48,3,

36,54,3,21,48,3,

36,54,3,22,48,3,

36,54,3,21,47,3,

36,53,3,21,47,3,

36,53,3,21,47,3,

36,53,3,21,47,3,

35,53,3,21,46,3,

35,52,3,21,46,3,

35,52,3,21,46,3,

35,52,3,21,46,3,

35,52,3,21,46,3,

35,51,3,21,46,3,

54,51,3,20,45,3,

53,51,3,21,45,3,

53,51,3,20,45,3,

53,51,3,20,45,3,

53,51,3,20,45,3,

52,51,3,36,44,3,

52,50,3,36,44,3,

51,50,3,35,44,3,

51,50,3,35,44,3,

51,50,3,35,44,3,

61,50,3,35,44,3,

60,50,3,35,43,3,

60,50,3,35,43,3,

60,50,3,35,43,3,

60,49,3,34,43,3,

59,49,3,34,42,3,

59,49,3,34,42,3,

59,49,3,34,75,3,

59,48,3,34,75,3,

58,48,3,34,74,3,

57,48,3,34,73,3,

57,48,3,34,73,3,

57,48,3,33,73,3,

57,48,3,33,71,3,

64,47,3,33,71,3,

63,48,3,33,71,4,

63,47,3,33,71,3,

63,47,3,33,71,3,

63,46,3,33,71,3,

63,47,3,33,70,3,

62,46,3,32,70,3,

62,46,3,33,70,3,

62,46,3,32,70,3,

61,46,3,32,69,3,

61,46,3,31,68,3,

61,46,3,31,68,3,

60,45,3,31,68,4,

60,46,3,31,67,3,

60,45,3,31,67,3,

60,45,3,31,67,3,

59,45,3,31,67,3,

59,45,3,31,67,3,

59,44,3,31,66,3,

59,45,3,31,66,3,

58,44,3,30,66,3,

58,44,3,30,65,3,

57,44,3,31,65,3,

57,44,3,30,65,3,

57,43,3,30,64,3,

57,44,3,30,64,3,

57,43,3,30,63,3,

57,43,3,30,63,3,

56,43,3,29,63,3,

56,43,3,29,63,3,

56,43,3,29,63,3,

56,42,3,29,63,3,

55,42,3,29,62,3,

55,42,3,29,62,3,

55,41,3,29,62,3,

54,42,3,28,62,3,

54,41,3,28,61,3,

54,41,3,28,61,3,

54,41,3,28,61,3,

53,41,3,28,60,3,

54,41,3,28,60,3,

53,41,3,28,60,3,

53,41,3,28,60,3,

52,41,3,28,59,3,

52,39,3,27,59,3,

52,39,3,28,59,3,

51,39,3,27,58,3,

52,39,3,27,58,3,

51,39,3,27,58,3,

51,39,3,27,58,3,

51,39,3,27,57,3,

51,39,3,26,57,3,

50,39,3,27,57,3,

50,39,3,26,57,3,

50,39,3,26,57,3,

50,39,3,26,56,3,

50,38,3,26,56,4,

49,39,3,26,56,3,

49,39,3,25,56,3,

49,38,3,25,55,3,

49,38,3,26,55,3,

48,38,3,26,55,3,

48,38,3,26,54,3,

48,38,3,26,54,3,

48,38,3,25,54,3,

48,38,3,25,54,3,

48,37,3,25,54,3,

47,37,3,25,53,3,

48,37,3,25,53,3,

46,37,3,25,53,3,

47,37,3,25,53,3,

46,36,3,24,53,3,

46,36,3,24,52,3,

46,36,3,24,51,3,

46,36,3,24,51,3,

45,36,3,24,51,3,

46,35,3,24,51,3,

45,35,3,24,51,3,

45,35,3,24,51,3,

45,35,3,24,51,3,

45,35,3,24,50,3,

44,35,3,24,50,3,

44,35,3,24,59,3,

44,35,3,24,58,3,

44,35,3,24,58,3,

44,35,3,23,60,3,

44,34,3,23,59,3,

44,34,3,23,59,3,

43,34,3,23,59,3,

43,34,3,23,58,3,

43,34,3,23,58,3,

43,34,3,22,58,3,

42,34,3,22,57,3,

42,34,3,23,57,3,

42,33,3,22,57,3,

41,33,3,22,57,3,

41,33,3,22,57,3,

41,33,3,22,56,3,

41,33,3,22,56,3,

41,33,3,22,56,3,

41,33,3,22,56,3,

41,32,3,22,56,3,

41,32,3,21,55,3,

39,32,3,21,55,3,

39,32,3,21,55,3,

39,32,3,21,54,3,

39,32,3,21,54,3,

39,31,3,21,54,3,

39,31,3,21,53,3,

39,31,3,21,54,3,

39,31,3,21,53,3,

39,31,3,21,53,3,

39,31,3,21,53,3,

39,31,3,21,52,3,

39,31,3,20,52,3,

38,31,3,21,51,3,

38,31,3,20,51,3,

38,31,3,20,51,3,

38,31,3,20,51,3,

37,30,3,20,51,3,

37,30,3,20,50,3,

37,30,3,19,51,3,

37,30,3,19,50,3,

37,30,3,19,50,3,

37,30,3,19,50,3,

37,30,3,19,49,3,

37,30,3,19,49,3,

37,29,3,19,49,3,

36,30,3,19,49,3,

36,29,3,19,49,3,

36,29,3,19,48,3,

35,29,3,19,48,3,

35,29,3,19,48,3,

35,29,3,19,48,3,

35,28,3,19,48,3,

35,29,3,19,48,3,

35,29,3,19,48,3,

35,28,3,19,47,3,

34,28,3,18,47,3,

35,28,3,18,47,3,

34,28,3,19,46,3,

34,28,3,18,46,3,

34,28,3,18,46,3,

34,28,3,18,46,3,

34,28,3,18,46,3,

33,28,3,18,46,3,

33,27,3,18,46,3,

33,27,3,18,45,3,

33,27,3,18,45,3,

33,27,3,18,45,3,

33,27,3,17,44,3,

33,27,3,18,44,3,

32,27,3,18,44,3,

32,27,3,18,44,3,

32,27,3,18,44,3,

32,26,3,18,44,3,

31,26,3,18,43,3,

31,27,3,17,43,3,

31,26,3,18,43,3,

31,26,3,17,43,3,

31,26,3,18,43,3,

31,26,3,17,42,3,

31,26,3,17,43,3,

31,25,3,17,42,3,

31,25,3,34,42,3,

31,25,3,33,42,3,

31,25,3,33,41,3,

31,25,3,33,41,3,

31,25,3,33,41,3,

30,25,3,32,41,3,

30,25,3,32,41,3,

30,25,3,32,41,3,

30,25,3,31,39,3,

30,25,3,31,39,3,

30,25,3,31,40,3,

30,24,3,31,39,3,

30,25,3,31,49,3,

30,24,3,31,49,3,

29,24,3,31,48,3,

29,24,3,31,48,3,

29,24,3,31,48,3,

29,24,3,31,48,3,

29,24,3,30,47,3,

29,24,3,30,47,3,

29,24,3,30,48,3,

29,24,3,30,47,3,

28,24,3,30,47,3,

28,24,3,30,46,3,

28,24,3,30,46,3,

28,23,3,29,46,3,

28,23,3,31,46,3,

28,23,3,32,46,3,

28,23,3,31,45,3,

28,23,3,31,45,3,

28,23,3,31,45,3,

27,23,3,31,45,3,

28,23,3,31,45,3,

27,22,3,31,44,3,

27,23,3,31,44,3,

27,22,3,31,44,3,

27,22,3,30,44,4,

27,22,3,31,44,3,

27,22,3,30,44,3,

26,22,3,33,45,3,

27,22,3,38,45,3,

26,22,3,38,45,3,

26,22,3,38,44,3,

26,22,3,38,44,3,

26,21,3,37,44,3,

26,21,3,37,44,3,

26,21,3,37,44,3,

26,21,3,36,43,3,

26,21,3,36,43,3,

25,21,3,36,43,3,

25,21,3,36,43,3,

25,21,3,35,43,3,

25,21,3,35,42,3,

25,20,3,36,42,3,

25,21,3,36,42,3,

25,21,3,35,41,3,

25,21,3,35,41,3,

25,20,3,35,41,3,

24,20,3,35,41,3,

24,20,3,35,41,3,

24,20,3,35,41,3,

24,19,3,35,41,3,

24,20,3,35,39,3,

24,20,3,34,39,3,

24,19,3,34,39,3,

24,20,3,34,39,3,

24,19,3,34,39,3,

24,19,3,33,39,3,

24,19,3,34,39,3,

24,19,3,33,39,3,

24,19,3,33,39,3,

24,19,3,33,39,3,

24,19,3,33,39,3,

23,19,3,33,39,3,

24,19,3,32,38,3,

23,19,3,33,38,3,

23,19,3,32,38,3,

23,19,3,32,38,3,

23,18,3,31,37,3,

23,19,3,31,37,3,

23,19,3,33,37,3,

22,18,3,32,37,3,

22,19,3,32,37,3,

22,18,3,31,37,3,

22,18,3,31,36,3,

22,18,3,31,37,3,

22,18,3,31,36,3,

22,18,3,31,35,3,

22,18,3,31,36,3,

22,18,3,31,36,3,

22,18,3,31,35,3,

21,18,3,31,35,3,

21,17,3,30,35,3,

21,18,3,31,35,3,

21,18,3,30,35,3,

21,17,3,31,35,3,

21,17,3,30,35,3,

21,17,3,30,34,3,

21,17,3,30,34,3,

21,17,3,30,35,3,

21,17,3,30,34,3,

21,17,3,29,34,3,

20,17,3,29,34,3,

20,17,3,29,34,3,

20,17,3,29,34,3,

20,17,3,29,33,3,

20,16,3,29,34,3,

20,17,3,28,33,3,

19,16,3,28,33,3,

19,16,3,28,32,3,

19,16,3,28,33,3,

19,16,3,28,32,3,

19,16,3,28,32,3,

19,16,3,28,32,3,

19,16,3,28,31,3,

19,16,3,28,31,3,

19,16,3,27,31,3,

19,15,3,27,31,3,

19,16,3,27,31,3,

19,15,3,27,31,3,

19,15,3,27,31,3,

19,15,3,27,31,3,

18,15,3,26,31,3,

18,15,3,26,31,3,

19,16,3,27,31,3,

19,15,3,26,31,3,

18,15,3,26,31,3,

18,15,3,26,30,3,

18,15,3,26,30,3,

18,15,3,26,30,3,

18,15,3,26,30,3,

18,15,3,28,30,3,

18,15,3,28,30,3,

18,15,3,28,30,3,

18,14,3,27,29,3,

18,15,3,27,29,3,

17,14,3,27,29,3,

17,14,3,27,29,3,

17,15,3,27,29,3,

17,14,3,26,28,3,

17,14,3,26,28,3,

17,14,3,26,28,3,

17,14,3,26,28,3,

17,14,3,26,28,3,

17,14,3,26,28,3,

17,14,3,25,28,3,

17,14,3,25,28,3,

17,14,3,26,28,3,

17,14,3,25,28,3,

17,14,3,25,27,3,

17,14,3,25,27,3,

17,14,3,25,27,3,

16,14,3,25,27,3,

16,14,3,25,27,3,

17,14,3,24,27,3,

16,13,3,25,27,3,

16,14,3,24,27,3,

16,13,3,28,27,3,

16,13,3,28,26,3,

16,13,3,27,26,3,

16,13,3,28,26,3,

16,13,3,27,26,3,

16,13,3,27,26,3,

15,13,3,27,25,3,

15,13,3,27,26,3,

15,13,3,27,25,3,

15,13,3,27,26,3,

15,13,3,26,25,3,

15,13,3,27,25,3,

15,13,3,26,25,3,

15,13,3,26,25,3,

15,13,3,26,25,3,

15,13,3,26,24,3,

15,12,3,26,25,3,

15,13,3,26,25,3,

15,12,3,25,25,3,

15,12,3,25,24,3,

15,12,3,25,25,3,

15,12,3,25,24,3,

15,13,3,25,24,3,

15,12,3,25,24,3,

15,12,3,25,24,3,

15,12,3,25,24,3,

14,12,3,25,24,3,

14,12,3,24,24,3,

14,12,3,24,24,3,

14,12,3,24,24,3,

14,12,3,24,23,3,

14,12,3,24,23,3,

14,12,3,24,23,3,

14,12,3,24,23,3,

14,12,3,24,23,3,

14,12,3,24,23,3,

14,12,3,24,23,3,

14,12,3,24,22,3,

14,12,3,24,22,3,

14,12,3,27,22,3,

14,11,3,28,22,3,

14,11,3,28,23,3,

14,11,3,28,22,3,

14,11,3,28,22,3,

14,12,3,28,22,3,

14,11,3,28,22,3,

14,11,3,27,22,3,

14,11,3,27,22,3,

14,11,3,27,21,3,

14,11,3,27,21,3,

13,11,3,27,21,3,

14,11,3,27,21,3,

13,11,3,26,23,3,

14,11,3,27,22,3,

14,11,3,27,22,3,

13,11,3,26,22,3,

13,10,3,25,22,3,

13,11,3,26,22,3,

14,10,3,26,22,3,

14,11,3,25,22,3,

14,10,3,25,22,3,

13,10,3,25,21,3,

14,10,3,25,21,3,

13,10,3,25,22,3,

13,10,3,25,21,3,

13,10,3,31,22,3,

13,10,3,31,22,3,

13,10,3,31,22,3,

13,10,3,31,21,3,

13,10,3,31,22,3,

13,10,3,31,21,3,

51,10,3,31,21,3,

50,10,3,31,21,3,

49,10,3,30,21,3,

49,10,3,30,21,3,

49,10,3,30,21,3,

48,10,3,30,21,3,

48,10,3,30,21,3,

48,9,3,30,21,3,

48,10,3,30,20,3,

48,10,3,30,20,3,

48,10,3,30,20,3,

47,10,3,29,20,3,

47,9,3,29,20,3,

47,9,3,29,20,3,

47,9,3,29,19,3,

46,9,3,29,20,3,

46,9,3,29,19,3,

46,9,3,28,19,3,

46,9,3,28,19,3,

46,9,3,29,19,3,

45,9,3,28,19,3,

45,9,3,28,19,3,

45,9,3,28,19,3,

45,9,3,28,19,3,

44,9,3,28,19,3,

45,9,3,28,19,3,

44,9,3,27,19,3,

44,9,3,28,19,3,

44,9,3,27,19,3,

44,9,3,27,19,3,

43,9,3,27,19,3,

44,9,3,27,19,3,

43,9,3,27,18,3,

43,9,3,27,18,3,

43,9,3,26,18,3,

43,9,3,28,21,3,

42,8,3,28,20,3,

41,9,3,28,20,3,

41,8,3,28,20,3,

41,8,3,28,20,3,

41,8,3,27,20,3,

41,7,3,28,20,3,

41,8,3,27,20,3,

41,7,3,27,20,3,

41,7,3,27,19,3,

41,7,3,27,19,3,

40,7,3,27,19,3,

39,7,3,27,19,3,

39,7,3,27,19,3,

39,7,3,26,19,3,

39,7,3,26,39,3,

39,7,3,26,43,3,

39,7,3,26,43,3,

39,7,3,26,43,3,

39,7,3,26,43,3,

39,7,3,25,43,3,

39,7,3,25,42,3,

39,7,3,25,41,3,

38,7,3,25,41,3,

39,7,3,25,41,3,

38,7,3,25,42,3,

38,7,3,25,41,3,

38,7,3,25,41,3,

37,7,3,25,41,3,

38,7,3,25,41,3,

37,7,3,24,40,3,

37,7,3,24,39,3,

37,7,3,25,39,3,

37,7,3,24,39,3,

37,7,3,24,39,3,

36,7,3,24,39,3,

36,7,3,24,39,3,

36,7,3,24,39,3,

36,7,3,24,39,3,

36,7,3,24,39,3,

36,7,3,24,39,3,

35,7,3,24,39,3,

35,7,3,24,38,3,

35,7,3,24,38,3,

35,7,3,24,38,3,

35,7,3,24,38,3,

35,7,3,23,37,3,

35,7,3,24,37,3,

35,7,3,24,37,3,

34,7,3,23,37,3,

34,7,3,23,37,3,

34,7,3,23,37,3,

34,7,3,23,37,3,

34,7,3,23,36,3,

33,7,3,23,36,3,

33,7,3,23,36,3,

33,7,3,23,36,3,

33,7,3,22,35,3,

33,7,3,23,35,3,

33,7,3,22,35,3,

32,7,3,22,35,3,

33,7,3,22,35,3,

33,7,3,22,35,3,

32,7,3,22,35,3,

32,7,3,22,34,3,

31,7,3,22,34,3,

31,7,3,22,34,3,

31,7,3,21,34,3,

31,7,3,21,34,3,

31,7,3,21,34,3,

31,6,3,21,34,3,

31,6,3,21,33,3,

31,7,3,21,33,3,

31,7,3,20,34,3,

31,7,3,21,33,3,

31,7,3,21,33,3,

31,7,3,21,33,3,

30,7,3,21,33,3,

30,6,3,20,32,3,

30,6,3,20,32,3,

30,6,3,20,32,3,

30,6,3,20,32,3,

30,6,3,20,31,3,

29,6,3,20,32,3,

29,6,3,19,31,3,

29,6,3,20,31,3,

29,6,3,19,31,3,

29,6,3,19,31,3,

29,6,3,19,31,3,

29,6,3,19,31,3,

31,6,3,19,30,3,

30,6,3,19,31,3,

30,6,3,19,30,3,

31,6,3,19,31,3,

30,6,3,19,30,3,

30,6,3,19,30,3,

30,6,3,19,30,3,

30,6,3,19,30,3,

29,6,3,19,30,3,

30,6,3,19,30,3,

29,6,3,19,30,3,

29,6,3,19,29,3,

29,6,3,19,29,3,

29,6,3,18,29,3,

29,6,3,18,29,3,

29,6,3,18,29,3,

28,6,3,18,29,3,

28,6,3,18,29,3,

28,6,3,18,29,3,

28,6,3,18,28,3,

28,6,3,18,81,3,

28,6,3,19,84,3,

28,6,3,19,83,3,

28,6,3,20,83,3,

28,6,3,19,83,3,

28,6,3,19,82,3,

27,5,3,19,82,3,

27,6,3,19,81,3,

27,6,3,19,81,3,

27,6,3,19,80,3,

27,5,3,19,80,3,

27,6,3,19,80,3,

27,6,3,19,79,3,

26,6,3,19,79,3,

27,6,3,19,79,3,

26,6,3,19,79,3,

26,6,3,19,78,3,

26,6,3,19,78,3,

26,5,3,19,77,3,

26,6,3,19,77,3,

25,6,3,19,77,3,

25,5,3,19,76,3,

25,6,3,19,76,3,

25,6,3,19,76,3,

25,5,3,18,76,3,

25,5,3,18,75,3,

25,5,3,18,75,3,

25,5,3,18,75,3,

25,5,3,18,75,3,

24,5,3,19,74,3,

24,5,3,19,73,3,

24,5,3,18,73,3,

24,5,3,18,73,3,

24,5,3,18,73,3,

24,5,3,19,71,3,

24,5,3,18,71,3,

24,5,3,18,71,3,

24,5,3,18,71,3,

24,6,3,18,71,3,

24,5,3,18,71,3,

24,5,3,18,71,3,

24,5,3,18,70,3,

24,5,3,17,70,3,

23,5,3,17,70,3,

23,5,3,17,70,3,

24,5,3,17,70,3,

23,5,3,17,69,3,

23,5,3,17,68,3,

22,5,3,17,68,3,

27,5,3,17,68,3,

27,5,3,17,67,3,

26,5,3,17,67,3,

26,5,3,17,67,3,

27,5,3,17,67,3,

26,5,3,17,67,3,

26,5,3,17,66,3,

26,5,3,16,66,3,

26,5,3,17,66,3,

26,5,3,16,66,3,

25,5,3,16,66,3,

25,5,3,16,65,3,

25,5,3,16,65,3,

25,5,3,16,65,3,

25,5,3,16,64,3,

25,5,3,16,63,3,

25,5,3,16,63,3,

25,5,3,15,63,3,

25,5,3,16,63,3,

24,5,3,15,63,3,

24,5,3,15,63,3,

24,5,3,19,63,3,

24,5,3,19,62,3,

24,5,3,19,62,3,

24,5,3,19,62,3,

24,5,3,19,61,3,

24,5,3,19,61,3,

25,5,3,19,61,3,

29,4,3,19,61,3,

28,5,3,19,60,3,

28,5,3,19,60,3,

28,5,3,18,60,3,

28,5,3,19,60,3,

28,5,3,19,59,3,

28,4,3,18,59,3,

28,4,3,18,59,3,

27,5,3,18,59,3,

27,5,3,18,59,3,

27,5,3,18,58,3,

27,4,3,18,58,3,

27,5,3,18,58,3,

27,5,3,18,57,3,

27,5,3,18,57,3,

27,5,3,17,57,3,

26,4,3,17,57,3,

26,5,3,17,57,3,

27,5,3,17,91,3,

26,4,3,17,91,3,

26,5,3,18,89,3,

26,4,3,31,89,3,

26,5,3,33,89,3,

25,4,3,33,89,3,

25,5,3,33,88,3,

25,4,3,33,88,3,

25,4,3,33,87,3,

25,4,3,33,88,3,

25,5,3,32,86,3,

25,5,3,31,86,3,

25,5,3,31,86,3,

24,5,3,31,85,3,

24,4,3,31,85,3,

24,4,3,31,84,3,

24,5,3,31,84,3,

24,5,3,31,83,3,

24,4,3,31,83,3,

24,4,3,31,83,3,

24,4,3,31,83,3,

24,5,3,30,82,3,

24,4,3,30,82,3,

30,4,3,30,82,3,

30,4,3,30,81,3,

29,4,3,30,81,3,

29,4,3,30,81,3,

29,4,3,30,80,3,

29,4,3,30,80,3,

29,4,3,30,79,3,

29,4,3,29,79,3,

28,4,3,30,79,3,

28,4,3,29,79,3,

28,4,3,29,78,3,

28,4,3,29,78,3,

28,5,3,29,78,3,

28,4,3,29,77,3,

28,5,3,29,77,3,

28,4,3,29,77,3,

28,4,3,29,77,3,

28,4,3,28,76,3,

28,4,3,29,76,3,

27,4,3,28,76,3,

27,4,3,28,76,3,

27,4,3,29,75,3,

27,4,3,29,75,3,

27,4,3,29,75,3,

27,4,3,29,74,3,

26,4,3,29,73,3,

26,4,3,29,74,3,

31,4,3,28,73,3,

33,4,3,28,73,3,

33,4,3,28,73,3,

33,4,3,28,71,3,

33,4,3,28,71,3,

32,4,3,28,71,3,

32,4,3,28,71,3,

32,4,3,28,71,3,

32,4,3,27,71,3,

31,4,3,28,71,3,

31,4,3,27,70,3,

31,4,3,27,70,3,

31,4,3,27,70,3,

31,4,3,27,69,3,

31,4,3,27,69,3,

31,4,3,26,69,3,

31,4,3,27,69,3,

31,4,3,26,68,3,

31,4,3,26,68,3,

31,4,3,26,67,3,

30,4,3,26,67,3,

30,4,3,26,67,3,

30,4,3,26,67,3,

30,4,3,25,67,3,

30,4,3,25,66,3,

30,4,3,25,66,3,

29,4,3,25,66,3,

29,4,3,25,65,3,

29,4,3,25,65,3,

29,4,3,25,65,3,

29,4,3,25,65,3,

29,4,3,25,65,3,

29,4,3,25,64,3,

29,4,3,24,63,3,

29,4,3,24,63,3,

29,4,3,24,63,3,

28,4,3,24,63,3,

28,4,3,24,63,3,

28,4,3,24,63,3,

28,4,3,24,63,3,

28,4,3,24,62,3,

28,4,3,24,62,3,

30,4,3,24,62,3,

30,4,3,24,61,3,

30,4,3,24,61,3,

30,4,3,23,61,3,

30,4,3,23,61,3,

29,4,3,24,61,3,

29,4,3,23,60,3,

29,4,3,23,60,3,

29,4,3,23,60,3,

29,4,3,23,59,3,

29,4,3,23,60,3,

29,4,3,23,59,3,

29,3,3,22,59,3,

28,3,3,22,58,3,

28,4,3,22,58,3,

28,3,3,22,58,3,

28,4,3,22,58,3,

28,4,3,22,57,3,

27,4,3,22,57,3,

28,3,3,22,57,3,

27,4,3,21,57,3,

27,4,3,21,57,3,

27,3,3,21,56,3,

27,4,3,21,56,3,

27,3,3,21,56,3,

27,4,3,21,56,3,

27,3,3,21,56,3,

27,4,3,21,56,3,

28,4,3,21,56,3,

27,4,3,20,55,3,

27,3,3,21,55,3,

27,4,3,20,55,3,

27,3,3,20,54,3,

27,3,3,20,54,3,

26,4,3,20,54,3,

27,3,3,20,53,3,

26,4,3,19,54,3,

26,4,3,20,53,3,

26,4,3,19,53,3,

26,4,3,20,53,3,

26,4,3,19,53,3,

26,4,3,19,52,3,

30,4,3,19,52,3,

29,4,3,19,51,3,

29,4,3,19,52,3,

29,4,3,19,51,3,

29,4,3,19,51,3,

29,4,3,19,51,3,

29,4,3,19,51,3,

29,4,3,19,51,3,

28,4,3,19,51,3,

28,4,3,19,50,3,

28,4,3,19,50,3,

28,4,3,19,50,3,

28,4,3,19,50,3,

31,4,3,19,50,3,

35,4,3,18,49,3,

35,4,3,18,49,3,

35,4,3,18,49,3,

35,4,3,18,49,3,

34,4,3,18,49,3,

34,3,3,18,48,4,

34,4,3,18,48,3,

34,4,3,18,48,3,

34,4,3,18,48,3,

34,4,3,18,48,3,

33,4,3,18,48,3,

33,4,3,18,47,3,

33,4,3,17,47,3,

33,4,3,17,47,3,

33,3,3,17,47,3,

33,4,3,17,47,3,

32,4,3,17,46,3,

32,4,3,17,46,3,

31,4,3,17,46,3,

31,4,3,17,46,3,

31,4,3,17,46,3,

31,4,3,21,45,3,

31,4,3,21,45,3,

31,4,3,21,45,3,

31,4,3,21,45,3,

31,4,3,21,45,3,

31,3,3,20,44,3,

31,4,3,20,44,3,

32,4,3,20,44,3,

32,4,3,20,44,3,

32,3,3,20,44,3,

31,4,3,19,44,3,

31,4,3,19,44,3,

31,3,3,19,43,3,

31,4,3,20,43,3,

31,4,3,25,43,3,

31,4,3,25,43,3,

31,3,3,25,43,3,

31,4,3,24,42,3,

31,4,3,24,42,3,

31,3,3,24,42,3,

31,4,3,24,42,3,

30,4,3,24,41,3,

30,3,3,24,41,3,

30,3,3,24,41,3,

30,3,3,24,42,3,

30,3,3,24,41,3,

30,4,3,24,41,3,

30,4,3,24,41,3,

29,3,3,26,41,3,

29,4,3,26,41,3,

29,4,3,26,41,3,

29,4,3,26,41,3,

29,4,3,26,41,3,

29,4,3,26,41,3,

29,4,3,25,39,3,

29,3,3,25,39,3,

29,4,3,25,39,3,

29,4,3,25,39,3,

29,4,3,25,39,3,

28,3,3,25,39,3,

28,4,3,25,39,3,

28,4,3,25,39,3,

28,4,3,25,39,3,

28,4,3,26,39,3,

28,4,3,25,39,3,

28,4,3,25,39,3,

28,4,3,25,39,3,

28,4,3,25,38,3,

27,4,3,25,38,3,

27,4,3,25,38,3,

27,4,3,25,38,3,

27,4,3,25,38,3,

27,4,3,25,37,3,

27,4,3,25,37,3,

27,4,3,24,37,3,

27,4,3,24,37,3,

26,4,3,24,37,3,

26,4,3,24,37,3,

26,4,3,24,37,3,

26,4,3,24,36,3,

26,4,3,24,36,3,

25,4,3,24,36,3,

26,4,3,24,36,3,

26,4,3,24,36,3,

26,4,3,24,35,3,

25,4,3,24,35,3,

25,3,3,24,35,3,

25,4,3,23,35,3,

25,4,3,24,35,3,

25,4,3,28,35,3,

25,3,3,28,35,3,

25,4,3,27,35,3,

25,3,3,27,35,3,

25,4,3,27,35,3,

25,4,3,27,34,3,

35,3,3,27,34,3,

35,4,3,27,34,3,

34,3,3,27,34,3,

34,3,3,27,34,3,

34,4,3,26,34,3,

34,3,3,26,33,3,

34,3,3,26,33,3,

33,4,3,26,33,3,

33,4,3,26,33,3,

33,3,3,25,33,3,

33,4,3,25,33,3,

33,3,3,26,33,3,

33,3,3,25,33,3,

33,3,3,25,32,3,

33,4,3,25,32,3,

32,4,3,25,32,3,

32,3,3,25,31,3,

32,4,3,25,31,3,

31,3,3,25,31,3,

31,3,3,25,31,3,

31,3,3,24,31,3,

31,4,3,24,31,3,

31,4,3,25,31,3,

31,4,3,24,31,3,

31,3,3,24,31,3,

31,3,3,24,31,3,

31,3,3,24,31,3,

31,4,3,24,31,3,

31,4,3,24,31,3,

31,3,3,24,30,3,

31,3,3,24,30,3,

31,4,3,24,30,3,

31,3,3,24,30,3,

30,3,3,23,30,3,

30,3,3,24,30,3,

30,3,3,24,30,3,

30,3,3,23,30,3,

30,4,3,23,29,3,

30,3,3,23,29,3,

29,3,3,23,29,3,

30,3,3,23,29,3,

30,3,3,22,29,3,

29,4,3,23,29,3,

30,4,3,22,29,3,

29,3,3,22,29,3,

29,3,3,22,28,3,

29,4,3,22,28,3,

29,3,3,22,28,3,

29,3,3,22,28,3,

28,7,3,22,28,3,

29,7,3,31,28,3,

28,7,3,31,28,3,

28,7,3,31,28,3,

28,7,3,31,27,3,

28,7,3,31,28,3,

28,7,3,31,27,3,

28,7,3,31,27,3,

28,7,3,31,27,3,

27,7,3,31,27,3,

27,7,3,30,27,3,

27,7,3,30,26,3,

27,7,3,30,27,3,

27,7,3,30,27,3,

27,7,3,31,27,3,

27,7,3,32,26,3,

26,7,3,32,26,3,

27,7,3,31,26,3,

26,7,3,31,26,3,

27,7,3,31,26,3,

