
20,15,12,71,70,12,

20,16,11,71,70,12,

19,16,12,71,70,12,

19,16,12,70,69,12,

19,16,12,70,69,12,

19,15,12,70,68,12,

19,15,12,69,68,12,

22,15,12,69,67,12,

22,15,12,69,68,12,

22,15,12,69,67,12,

22,15,12,68,68,12,

21,15,11,68,67,12,

21,15,12,68,67,12,

21,15,11,67,67,12,

21,15,12,67,67,12,

21,15,12,67,67,12,

21,15,11,67,66,12,

21,15,12,66,66,12,

21,15,11,66,66,12,

21,15,12,65,65,12,

21,15,12,65,65,11,

21,15,12,65,65,12,

21,15,12,65,64,12,

20,15,11,65,64,12,

20,15,12,64,64,12,

21,15,12,63,63,12,

21,15,11,63,63,12,

20,15,12,63,63,12,

21,15,12,63,63,12,

20,15,11,63,62,12,

20,15,11,63,62,12,

20,15,12,63,62,12,

21,15,12,62,62,12,

20,15,12,62,62,12,

25,15,12,62,61,12,

25,15,12,61,61,12,

25,14,12,61,61,12,

25,14,12,61,60,12,

25,14,12,61,60,11,

25,15,12,61,60,12,

25,15,12,60,60,12,

25,15,12,60,60,12,

24,14,12,60,60,12,

27,15,12,60,59,12,

27,15,12,73,60,12,

26,14,12,73,59,12,

27,15,12,73,58,12,

26,15,12,73,58,12,

26,15,11,71,58,12,

26,14,12,71,58,11,

26,15,12,71,57,12,

26,15,12,71,57,12,

26,17,12,71,57,12,

26,17,12,70,57,12,

26,17,12,71,57,12,

26,17,12,70,60,12,

29,18,12,70,102,12,

28,17,12,70,100,12,

28,17,12,69,100,12,

28,18,12,69,99,12,

28,17,12,68,98,12,

28,18,12,68,99,12,

28,17,12,68,98,12,

27,17,12,67,97,12,

28,17,12,67,97,12,

28,17,12,67,96,12,

27,17,12,67,96,12,

27,17,12,67,96,12,

27,16,12,66,95,12,

27,17,12,66,95,12,

26,17,12,65,94,12,

27,17,12,65,94,12,

27,17,12,65,93,12,

26,16,12,65,93,12,

26,17,12,65,92,12,

26,17,12,64,92,12,

26,16,12,63,92,12,

26,16,12,63,91,12,

26,16,12,63,91,12,

25,16,12,63,90,12,

26,16,12,63,90,12,

25,16,12,63,89,12,

25,16,12,62,89,12,

25,16,12,62,89,12,

25,16,12,62,88,12,

25,16,12,61,88,12,

25,16,12,61,88,12,

25,16,12,61,87,12,

25,16,12,61,87,12,

25,16,12,61,87,12,

24,16,12,60,86,12,

24,15,12,60,86,12,

24,16,12,60,85,12,

24,16,12,60,85,12,

24,16,12,60,84,12,

25,15,12,59,84,12,

24,15,12,59,84,12,

24,16,12,59,83,12,

24,16,12,59,83,12,

24,17,12,58,83,12,

24,16,12,58,82,12,

24,16,12,57,82,12,

24,16,12,57,81,12,

24,16,12,59,82,13,

24,17,12,79,81,12,

24,16,12,79,80,12,

24,16,12,79,80,12,

24,16,12,79,80,12,

24,16,12,78,79,12,

23,22,12,78,79,12,

24,47,12,78,79,12,

24,56,12,77,79,12,

24,55,12,77,78,12,

24,54,12,77,78,12,

24,54,12,76,78,12,

24,53,12,76,78,12,

24,53,12,75,77,12,

24,53,12,75,77,12,

24,53,12,74,77,12,

24,52,12,75,77,13,

38,86,12,75,76,12,

38,88,12,74,76,12,

38,88,12,73,75,12,

38,87,12,73,75,12,

38,86,12,73,75,12,

39,86,12,73,74,12,

38,85,12,71,74,12,

38,85,12,71,74,12,

38,85,12,71,73,12,

38,83,12,71,73,12,

38,83,12,71,73,12,

38,83,12,71,73,12,

37,83,12,71,71,12,

37,82,12,70,71,12,

67,83,12,70,71,12,

66,82,12,70,71,12,

65,82,12,70,92,12,

64,81,12,69,91,12,

64,81,12,69,91,12,

63,81,12,68,90,12,

63,80,12,68,90,12,

63,79,12,68,89,12,

63,79,12,68,89,12,

63,79,12,67,89,12,

62,79,12,67,88,12,

62,79,12,67,88,12,

62,78,12,67,88,12,

62,78,12,70,87,12,

61,78,12,69,86,12,

61,77,12,69,86,13,

61,77,12,68,86,12,

60,77,12,68,86,12,

60,76,12,68,85,12,

60,76,12,67,84,12,

60,76,12,67,84,12,

60,75,12,67,83,12,

60,75,12,67,83,12,

60,75,12,67,83,12,

63,75,12,66,83,13,

64,133,12,66,83,13,

102,152,13,66,82,13,

100,151,12,65,81,12,

99,149,12,65,81,12,

98,149,12,65,80,12,

98,148,12,65,80,12,

97,147,12,64,80,12,

97,146,12,63,79,12,

97,145,12,63,79,12,

96,145,12,63,79,12,

96,144,12,63,79,12,

96,143,12,63,78,12,

95,143,12,63,78,12,

94,142,12,62,78,12,

94,141,12,62,77,12,

94,141,12,62,77,13,

94,140,12,62,77,12,

92,139,12,68,76,12,

92,138,12,67,76,12,

92,137,12,67,75,12,

91,137,12,67,75,12,

91,135,12,67,75,12,

90,135,12,67,74,12,

90,135,12,67,74,12,

145,169,13,67,75,13,

259,291,12,66,73,12,

265,307,12,65,73,13,

263,306,12,65,73,12,

261,304,12,65,71,12,

259,302,12,64,71,12,

258,300,12,64,71,13,

257,298,13,64,71,12,

255,295,12,63,71,12,

254,295,13,63,71,12,

252,293,12,63,71,12,

251,291,12,62,70,12,

249,290,12,63,70,12,

248,287,12,63,70,12,

247,286,12,62,70,12,

245,285,12,62,69,12,

244,284,12,62,68,12,

243,282,12,62,69,13,

242,281,12,62,68,12,

240,279,13,61,67,12,

239,277,13,61,67,12,

238,276,12,61,67,12,

237,275,12,60,67,13,

236,345,13,61,67,13,

235,480,13,61,66,12,

233,526,13,60,66,12,

231,519,12,60,66,12,

230,515,12,59,65,12,

229,511,13,59,65,12,

228,508,13,59,65,12,

234,504,12,59,65,13,

233,572,13,59,65,13,

231,570,12,58,69,13,

230,565,12,58,69,12,

229,561,13,57,68,12,

227,556,12,57,67,13,

226,551,13,57,67,12,

225,547,12,57,67,12,

224,543,13,57,67,13,

224,540,13,56,67,13,

222,536,12,56,66,12,

221,532,12,56,66,13,

220,529,12,56,66,12,

219,525,13,56,65,12,

217,521,12,55,65,12,

216,517,12,55,64,12,

216,515,12,55,64,12,

214,510,12,55,64,12,

213,507,13,54,63,12,

213,504,13,55,64,13,

212,502,13,55,64,13,

211,498,13,54,64,13,

211,495,13,54,63,13,

209,491,13,54,63,13,

208,489,14,54,63,14,

207,486,14,54,63,14,

206,483,14,60,63,14,

206,479,14,79,62,14,

205,477,14,79,62,14,

204,473,14,79,62,15,

203,471,15,78,61,15,

201,467,15,77,61,14,

201,464,15,77,61,15,

199,462,15,77,61,15,

199,459,15,76,60,15,

198,455,16,76,60,15,

198,453,16,76,60,16,

196,451,16,76,60,16,

195,448,17,75,60,17,

197,446,17,75,59,17,

196,443,17,74,59,17,

195,440,17,74,59,17,

195,438,18,73,59,17,

194,435,18,73,58,18,

193,433,18,73,58,18,

192,431,18,73,58,18,

191,428,18,71,57,18,

190,425,18,71,57,18,

189,423,18,71,57,18,

207,421,19,73,57,19,

246,419,19,71,57,19,

244,415,19,71,57,19,

242,414,19,71,57,19,

241,412,19,70,56,19,

240,409,19,70,56,19,

238,408,20,70,56,20,

237,405,20,70,56,19,

236,403,21,69,56,21,

235,401,20,69,55,20,

233,398,21,69,55,21,

231,396,21,68,55,21,

231,394,22,68,55,21,

230,391,21,68,55,22,

229,390,21,67,54,22,

227,387,22,67,54,22,

227,386,22,67,54,21,

225,384,22,66,53,22,

224,382,22,67,53,22,

223,379,22,66,53,22,

222,377,22,66,53,22,

221,376,22,65,52,22,

220,373,23,65,52,22,

222,371,22,65,52,22,

220,369,22,64,51,22,

219,368,22,63,51,22,

218,366,22,63,54,22,

217,364,23,78,65,22,

216,362,23,96,65,23,

216,359,22,94,67,22,

214,358,23,94,66,22,

213,356,22,93,66,22,

211,354,22,92,65,22,

210,353,22,92,65,22,

209,351,22,91,65,22,

207,349,22,91,64,22,

207,347,22,91,64,22,

206,345,22,90,63,22,

205,344,22,90,63,22,

204,342,22,89,66,22,

203,340,22,89,66,22,

203,338,21,89,66,21,

201,337,21,88,65,21,

199,335,22,88,65,22,

199,334,21,88,65,21,

198,332,21,87,63,21,

198,330,21,87,64,21,

197,327,21,86,63,21,

195,327,21,86,63,21,

195,325,21,85,63,21,

194,323,21,85,62,21,

193,323,21,84,62,21,

192,319,21,83,62,21,

191,319,21,84,62,20,

190,318,21,83,61,21,

189,316,21,83,61,21,

188,314,20,83,61,20,

188,313,20,82,61,20,

187,312,20,82,60,20,

186,310,20,81,60,20,

185,308,20,81,60,20,

184,307,20,80,59,20,

184,305,19,80,59,20,

183,304,20,79,59,20,

182,303,20,79,59,20,

181,301,19,79,58,20,

179,299,19,79,58,20,

179,299,20,78,58,19,

178,295,19,78,57,19,

177,295,19,78,57,19,

176,294,19,78,57,19,

176,293,19,77,57,19,

175,291,19,77,59,19,

174,290,19,76,58,19,

174,288,19,76,58,19,

173,287,19,76,58,19,

172,286,19,76,57,19,

171,285,19,75,57,19,

171,283,19,75,57,19,

170,283,19,74,57,19,

169,281,19,74,56,19,

167,280,19,73,56,19,

167,278,19,73,56,19,

167,277,19,73,56,19,

166,275,19,73,57,19,

166,274,19,73,56,19,

165,273,19,75,56,19,

164,271,19,74,56,18,

163,271,18,74,56,18,

163,269,19,73,55,18,

162,268,18,73,55,18,

161,267,18,73,55,18,

160,266,18,73,54,18,

159,263,18,73,54,17,

159,263,18,71,54,18,

158,262,18,71,54,18,

158,261,18,71,65,18,

157,259,18,71,65,18,

156,259,18,71,64,18,

156,257,18,70,64,18,

155,255,18,70,63,17,

154,255,18,70,63,17,

153,254,18,69,63,17,

153,253,17,69,63,18,

152,252,17,69,63,18,

152,251,17,68,62,17,

152,249,17,68,62,17,

150,248,17,68,61,18,

149,248,17,67,61,17,

149,247,18,67,61,17,

148,245,17,67,60,17,

147,244,17,67,60,17,

147,243,17,67,60,17,

146,242,17,66,60,18,

146,241,17,66,60,17,

145,240,17,99,60,17,

145,239,17,99,59,17,

143,238,17,99,59,17,

143,237,17,98,58,17,

142,236,17,97,58,17,

142,235,16,96,57,16,

141,233,16,96,57,16,

140,231,17,96,57,16,

140,231,16,95,57,16,

139,230,16,95,56,16,

139,229,16,94,56,16,

138,228,16,94,56,16,

137,227,16,93,56,16,

137,226,16,93,56,16,

135,225,16,92,55,15,

135,224,15,92,55,15,

135,224,15,92,55,16,

135,222,16,91,55,16,

134,221,15,90,54,15,

133,221,15,90,54,16,

133,220,16,91,55,16,

135,219,16,91,55,15,

135,218,15,90,55,15,

135,216,15,90,55,15,

134,216,16,89,54,16,

133,215,15,89,54,15,

133,214,15,88,54,15,

131,214,15,88,53,16,

131,212,15,88,54,15,

131,211,15,88,53,15,

130,210,15,87,52,15,

130,210,15,87,53,15,

129,209,15,86,52,15,

128,207,15,85,51,15,

128,207,15,85,52,15,

127,206,15,85,51,15,

127,205,15,85,51,15,

126,204,15,83,51,15,

125,203,15,83,51,15,

125,202,15,83,50,15,

125,201,14,83,50,15,

124,201,15,83,49,15,

124,199,15,82,50,15,

123,199,15,82,49,14,

122,198,14,81,49,15,

122,197,15,81,49,14,

121,197,14,81,49,14,

121,195,14,80,49,14,

120,195,15,79,49,15,

120,194,14,79,48,14,

119,193,15,79,48,15,

119,193,15,79,48,14,

119,192,14,78,48,14,

118,191,14,78,47,14,

117,190,15,79,83,14,

117,189,14,78,83,14,

116,188,14,77,82,14,

116,188,14,77,82,14,

115,187,14,77,81,14,

115,186,14,76,80,14,

115,185,14,76,81,14,

114,185,14,76,80,14,

113,184,14,75,79,14,

113,184,14,75,79,14,

113,182,14,75,79,14,

112,182,14,75,79,14,

112,181,14,74,78,14,

112,181,15,74,78,14,

112,192,14,73,77,14,

110,194,14,73,77,14,

110,193,14,73,76,14,

110,192,14,71,76,14,

109,190,14,71,76,14,

109,190,14,71,76,14,

108,188,14,71,75,14,

108,188,14,71,75,14,

108,187,14,71,74,14,

107,186,14,71,74,14,

107,184,14,71,73,14,

106,184,14,70,73,14,

105,183,14,69,73,14,

105,182,14,69,73,14,

103,181,14,69,71,14,

103,180,14,69,71,14,

103,179,14,68,71,13,

103,178,14,68,71,14,

103,178,14,67,71,13,

103,177,14,67,71,14,

102,177,14,67,70,14,

102,175,14,67,70,13,

101,174,13,66,69,13,

101,174,14,66,69,14,

101,174,14,66,69,13,

100,173,14,66,69,13,

99,172,13,66,68,14,

99,171,13,65,68,13,

99,171,13,65,67,14,

99,169,13,65,67,13,

98,169,13,64,67,13,

98,169,14,64,67,13,

97,167,13,63,66,14,

97,167,13,63,66,13,

96,167,13,63,66,13,

96,166,13,63,65,13,

96,165,13,63,65,13,

96,165,13,63,65,13,

95,164,13,62,65,13,

95,163,13,62,65,14,

95,163,13,62,64,13,

94,162,13,61,63,13,

94,161,13,61,63,13,

93,161,13,61,63,13,

93,160,13,61,63,13,

93,159,13,61,63,13,

92,159,13,60,62,13,

92,158,13,60,63,13,

92,158,13,60,62,13,

91,157,13,59,62,13,

91,157,13,60,62,13,

91,156,13,59,61,13,

90,156,13,59,61,13,

90,155,13,58,61,13,

89,154,13,59,60,13,

89,153,13,58,60,14,

89,153,14,58,60,13,

88,152,12,57,59,12,

88,152,13,57,59,13,

88,151,12,57,59,13,

87,150,13,56,58,12,

87,150,12,56,79,12,

87,149,12,56,78,13,

86,148,12,56,78,12,

86,147,12,56,78,13,

86,147,12,56,77,12,

85,147,12,55,77,12,

85,146,13,56,77,12,

84,146,12,55,76,12,

84,145,12,54,76,12,

83,145,12,54,75,12,

83,143,12,54,75,12,

83,143,12,54,75,13,

83,143,13,54,74,12,

82,142,12,54,74,12,

82,142,13,53,73,12,

82,141,13,56,73,12,

81,141,13,55,73,12,

81,140,12,55,73,12,

81,140,12,55,71,12,

80,139,12,54,71,12,

80,139,12,54,71,12,

79,138,12,53,71,12,

79,138,12,53,71,13,

79,137,12,53,71,12,

79,136,13,53,70,12,

79,135,12,52,70,12,

79,135,12,52,70,12,

78,135,13,52,69,12,

78,135,12,52,69,12,

78,134,12,52,69,12,

77,133,12,51,69,12,

77,133,12,51,68,12,

76,133,12,51,67,12,

76,132,12,51,67,12,

76,131,12,51,67,12,

76,131,12,50,67,12,

76,131,12,51,67,12,

76,130,12,50,66,12,

75,129,12,50,66,12,

75,129,12,50,66,12,

74,128,12,49,66,12,

74,128,12,49,65,12,

74,127,12,49,65,12,

73,127,12,49,65,12,

73,127,12,49,63,12,

73,126,13,49,63,12,

73,126,12,48,63,12,

73,125,12,48,63,12,

71,125,12,48,63,12,

71,124,12,48,63,12,

71,124,12,48,63,12,

71,124,12,48,62,12,

71,123,12,47,62,12,

71,123,12,48,62,12,

71,122,12,47,61,12,

70,121,12,47,61,12,

70,121,12,46,61,12,

69,121,12,46,61,12,

69,120,12,46,60,12,

69,120,12,46,60,12,

69,120,12,46,60,12,

68,119,12,46,60,12,

69,119,12,46,59,12,

68,118,12,46,59,12,

68,118,12,45,59,12,

67,117,12,45,59,12,

67,117,12,45,59,12,

67,116,12,45,58,12,

67,115,12,45,57,12,

67,115,12,45,58,12,

66,115,12,44,57,12,

66,114,12,44,57,12,

66,114,12,44,57,12,

65,114,12,44,56,12,

65,113,12,44,56,12,

65,112,12,44,56,12,

65,112,12,43,56,13,

65,112,12,44,82,12,

65,112,12,43,81,12,

64,112,12,43,80,12,

64,111,12,43,80,12,

63,110,12,43,79,12,

63,110,12,42,79,12,

63,109,12,42,79,12,

63,109,12,43,79,12,

63,109,12,42,78,12,

63,108,12,42,78,12,

63,108,12,41,77,12,

62,108,12,42,77,12,

62,107,12,41,77,12,

62,107,12,42,77,13,

62,107,12,108,76,12,

62,105,12,115,76,12,

61,106,12,114,75,12,

61,105,12,113,75,12,

61,105,12,112,75,12,

60,103,12,112,74,12,

60,103,12,111,74,12,

60,103,12,111,73,12,

60,103,12,110,73,12,

59,103,12,109,73,12,

59,102,12,109,73,12,

59,102,12,108,71,12,

59,102,12,108,71,12,

59,102,12,107,71,12,

58,101,12,107,71,12,

58,101,12,107,71,12,

57,100,12,106,70,12,

57,99,12,105,70,12,

57,99,12,105,70,12,

57,99,12,103,70,12,

57,99,12,103,69,12,

57,98,12,103,69,12,

56,98,12,103,69,12,

56,98,12,102,68,12,

56,97,12,102,68,12,

56,97,12,101,67,12,

56,97,12,101,67,12,

55,96,12,101,67,12,

56,96,12,100,67,12,

55,95,12,100,66,12,

55,95,12,100,67,12,

90,95,12,99,66,12,

89,95,12,99,66,12,

88,94,12,98,65,12,

88,94,12,98,65,12,

88,93,12,97,65,12,

87,93,12,97,64,12,

87,93,12,96,64,12,

86,92,12,96,63,12,

86,92,12,96,63,12,

85,92,12,95,63,12,

85,92,12,94,63,12,

85,91,12,94,63,12,

84,91,12,94,63,12,

84,91,12,94,62,12,

83,90,12,93,62,12,

83,90,12,93,62,12,

83,89,12,92,61,12,

82,89,12,92,61,12,

82,89,12,92,61,12,

82,88,12,91,60,12,

81,88,12,91,60,12,

81,88,12,90,60,12,

80,88,12,90,60,12,

79,88,12,89,60,12,

79,87,12,89,59,12,

79,87,12,89,59,12,

79,87,12,89,59,12,

79,86,12,88,59,12,

78,86,12,88,59,12,

78,86,12,88,59,12,

78,86,12,87,58,12,

77,85,12,87,58,12,

77,85,12,87,57,12,

77,84,12,86,57,12,

77,84,12,86,57,12,

76,84,12,85,57,12,

76,83,12,85,56,12,

75,83,12,85,56,12,

75,83,12,84,56,12,

75,83,12,84,56,12,

74,82,12,83,56,12,

74,82,12,83,56,12,

74,82,12,83,55,12,

73,81,12,83,55,12,

73,81,12,83,55,12,

73,81,12,82,55,12,

71,81,12,82,54,12,

73,80,12,81,55,12,

71,79,12,81,54,12,

71,79,12,80,54,12,

71,79,12,80,53,12,

71,79,12,80,54,12,

71,79,12,79,53,12,

71,79,12,79,53,12,

71,79,12,79,52,12,

70,78,12,79,52,12,

69,78,12,79,52,12,

69,78,12,78,51,12,

69,77,12,78,51,12,

69,77,12,78,51,12,

68,77,12,77,51,12,

68,77,12,77,51,12,

68,76,12,77,51,12,

67,76,12,77,51,12,

67,76,12,76,50,12,

67,76,11,76,51,12,

67,76,12,76,50,12,

66,75,12,75,50,12,

66,75,12,75,50,12,

66,75,12,75,49,12,

66,75,12,74,49,12,

66,74,12,74,49,12,

65,74,12,73,49,12,

65,73,12,73,49,12,

65,73,12,73,48,11,

64,73,12,73,48,12,

64,73,12,71,48,12,

63,73,11,71,48,12,

63,73,12,71,48,12,

63,71,12,71,48,12,

63,71,12,71,47,12,

63,71,12,71,47,12,

63,71,12,71,47,12,

62,71,12,71,47,12,

62,71,12,70,46,12,

62,71,12,70,46,12,

62,71,12,70,46,12,

61,71,12,70,46,12,

61,70,12,69,46,12,

61,70,12,69,46,12,

60,69,12,69,46,12,

60,69,12,68,46,12,

60,69,12,68,45,12,

60,69,12,68,45,12,

60,69,12,67,45,12,

60,68,12,67,45,12,

59,68,12,67,44,12,

59,67,12,67,45,12,

58,68,12,67,44,12,

58,67,12,66,44,12,

58,67,12,66,44,12,

58,67,12,66,44,12,

57,67,12,65,44,12,

57,66,12,65,43,12,

57,66,12,65,43,12,

57,66,12,65,43,12,

57,66,12,64,43,11,

56,65,12,64,43,12,

56,65,12,63,43,12,

56,65,12,63,42,12,

56,65,12,63,42,12,

56,65,12,63,42,12,

56,64,12,63,42,12,

56,64,12,63,42,12,

55,63,12,63,41,12,

55,63,12,63,41,12,

55,63,12,62,41,12,

55,63,12,62,41,12,

54,63,12,61,41,11,

54,63,12,61,41,12,

54,63,11,61,41,12,

54,62,12,61,41,11,

53,62,12,60,40,12,

54,62,12,61,39,12,

53,62,12,60,39,12,

53,61,11,60,39,12,

53,61,12,60,39,12,

60,61,12,60,39,12,

60,84,12,59,39,12,

59,117,12,59,39,12,

59,116,12,59,39,12,

58,115,12,59,39,12,

59,115,12,58,39,12,

58,114,12,58,39,11,

58,113,12,58,38,12,

57,113,12,57,39,11,

57,112,12,57,38,12,

57,112,12,57,38,12,

56,112,12,57,38,12,

56,111,12,57,38,11,

56,110,12,56,38,12,

56,110,12,56,37,12,

56,109,12,56,37,11,

55,109,12,56,37,12,

56,108,12,56,37,12,

55,108,12,56,37,12,

55,107,12,55,37,12,

55,107,12,55,36,12,

54,106,12,55,37,12,

54,106,12,54,36,12,

54,105,12,55,36,12,

54,103,12,54,35,12,

54,103,12,54,37,12,

53,103,12,57,44,12,

53,103,12,57,43,12,

53,103,11,57,43,12,

52,102,12,56,43,12,

52,102,12,56,43,12,

52,101,12,56,43,12,

51,101,12,56,42,12,

51,100,12,56,42,12,

51,100,12,56,42,12,

51,99,12,55,41,12,

51,99,11,55,41,12,

51,98,12,54,41,12,

50,98,12,54,41,12,

51,98,12,54,41,12,

50,97,12,54,41,12,

50,97,12,54,41,12,

50,96,11,53,41,12,

49,96,12,53,39,11,

49,96,12,53,39,11,

49,96,12,53,39,12,

49,95,12,53,39,12,

49,95,12,52,39,12,

49,94,12,52,39,12,

49,94,11,52,39,12,

48,93,12,52,39,12,

48,93,12,51,39,12,

48,93,12,51,39,12,

48,92,12,51,39,12,

48,92,11,51,39,12,

47,91,12,51,38,11,

47,91,12,50,38,12,

50,91,12,50,38,12,

49,90,12,51,38,12,

49,90,12,50,38,12,

49,89,12,50,37,12,

48,89,12,50,38,12,

52,89,12,50,38,12,

51,88,11,49,37,12,

51,88,12,49,37,12,

51,88,12,49,37,12,

51,87,12,49,37,12,

50,87,12,49,36,11,

50,87,12,48,37,12,

50,86,12,48,36,12,

50,86,12,48,36,11,

49,85,12,48,36,12,

49,85,12,48,36,12,

49,85,11,48,35,12,

49,84,12,48,35,12,

49,84,12,47,35,12,

48,83,11,47,35,12,

49,83,12,47,35,12,

48,83,12,47,35,12,

48,83,12,47,35,12,

48,82,12,46,35,12,

48,82,12,46,35,12,

47,81,12,46,35,12,

48,81,12,46,34,12,

47,80,12,46,34,12,

47,81,12,46,34,11,

47,80,12,47,35,12,

46,80,12,103,34,12,

46,79,11,103,34,12,

46,79,12,103,34,12,

46,79,12,102,33,11,

46,78,11,101,33,12,

46,78,12,101,33,12,

45,78,12,101,33,12,

46,77,12,99,33,12,

45,77,12,99,33,12,

45,76,12,99,33,12,

45,76,12,98,32,12,

44,76,12,98,32,12,

44,76,12,97,32,12,

44,76,12,97,32,12,

44,75,12,96,32,11,

44,75,11,96,31,11,

44,75,12,96,31,12,

44,74,12,96,31,12,

43,74,12,95,31,12,

43,74,12,95,31,12,

43,73,12,94,31,12,

43,73,12,94,31,11,

43,72,12,93,31,12,

43,72,12,93,31,12,

42,71,12,93,31,11,

43,71,12,92,31,11,

42,71,12,92,31,12,

42,71,12,91,30,11,

42,71,12,91,30,12,

41,71,12,90,30,11,

42,71,12,90,30,12,

41,70,12,89,30,12,

41,70,12,89,31,12,

41,70,12,89,30,11,

41,69,12,89,31,12,

41,69,12,88,30,12,

41,69,12,88,31,12,

41,69,12,88,31,12,

39,68,12,87,31,12,

39,68,12,87,30,12,

39,68,12,86,30,11,

39,67,12,86,30,12,

39,67,11,86,30,12,

39,67,12,85,30,12,

39,67,12,85,30,12,

39,66,12,85,30,12,

39,66,12,85,30,12,

39,66,12,84,30,12,

39,66,12,83,30,12,

39,66,12,83,29,11,

39,65,12,83,29,12,

39,65,12,83,29,12,

39,65,12,82,29,12,

38,65,12,82,29,12,

38,64,12,82,29,12,

38,64,12,82,29,11,

38,63,12,82,29,12,

38,63,12,81,29,12,

38,64,12,81,58,12,

38,63,12,81,57,12,

38,63,12,81,57,12,

37,62,12,80,57,12,

37,62,12,79,57,12,

37,62,12,79,56,11,

37,62,12,79,56,12,

37,62,11,79,56,12,

37,61,12,79,56,12,

36,61,12,78,56,12,

37,61,12,78,56,12,

36,61,12,77,55,12,

36,61,12,77,55,12,

37,101,12,77,55,12,

35,102,12,77,55,12,

36,101,12,76,54,12,

36,101,12,76,54,12,

35,100,12,75,54,12,

35,100,12,75,53,12,

35,99,12,75,53,12,

35,99,12,75,53,12,

35,98,12,74,53,12,

35,97,11,74,52,12,

35,97,12,74,52,12,

35,97,12,73,52,12,

35,96,12,73,51,12,

34,96,12,73,51,12,

34,96,11,71,51,12,

34,95,12,72,51,11,

34,94,11,71,51,12,

34,94,12,71,51,12,

34,94,12,71,51,12,

34,93,12,71,50,12,

34,93,12,71,50,11,

33,92,11,71,50,12,

33,92,12,70,49,12,

33,92,12,70,49,12,

33,91,12,70,49,12,

33,91,12,69,49,12,

54,91,12,69,49,12,

54,90,12,69,48,12,

54,90,12,69,48,11,

53,89,12,68,48,12,

53,89,12,68,48,12,

53,89,12,68,48,12,

52,88,12,67,48,12,

52,88,12,67,47,12,

52,87,12,67,47,12,

51,87,12,67,47,12,

51,86,11,66,46,12,

51,86,12,66,46,12,

51,86,12,66,46,12,

51,86,12,66,46,12,

50,85,12,66,46,12,

50,85,12,65,46,12,

50,84,11,65,45,12,

50,83,12,65,45,12,

50,83,12,64,45,12,

49,83,12,64,45,12,

50,83,12,63,45,12,

49,83,12,63,45,12,

49,82,11,63,44,12,

48,82,11,63,44,12,

49,81,12,63,44,12,

49,81,12,63,44,12,

48,81,11,62,44,12,

48,80,11,62,44,12,

48,80,12,62,43,12,

48,79,11,62,43,12,

47,79,12,61,43,12,

48,79,12,61,43,12,

47,78,12,61,43,12,

47,78,12,61,43,12,

46,78,12,61,42,11,

46,78,12,60,42,12,

46,77,12,60,42,12,

46,77,12,60,42,12,

46,76,12,60,41,12,

45,76,12,60,41,12,

46,76,12,60,41,12,

46,76,13,60,84,12,

45,76,12,59,83,12,

45,75,12,59,82,12,

45,75,12,59,82,11,

45,75,12,58,81,12,

44,74,12,58,81,11,

44,74,12,58,81,12,

44,73,12,57,80,12,

44,73,12,57,79,12,

44,73,12,57,79,12,

44,71,11,57,79,12,

43,71,12,57,79,12,

43,71,12,66,78,12,

43,71,12,93,78,12,

43,71,12,92,77,11,

42,71,12,91,78,12,

42,71,12,91,77,12,

41,71,12,90,76,11,

42,70,11,89,76,12,

42,70,12,89,76,11,

42,69,12,89,76,12,

41,69,12,89,75,12,

41,69,12,88,75,12,

41,69,12,88,75,12,

41,69,12,87,74,12,

41,68,12,87,74,12,

41,68,12,87,73,12,

40,67,12,86,73,12,

39,67,12,86,73,12,

39,67,12,85,73,12,

39,67,12,85,71,12,

39,67,12,85,71,11,

39,66,12,84,71,12,

39,66,12,84,71,12,

39,66,12,83,71,12,

39,66,12,83,71,12,

39,65,12,83,70,12,

39,65,12,83,70,12,

39,65,12,82,70,12,

39,64,12,82,70,12,

38,63,12,81,69,11,

38,63,12,81,69,12,

38,63,12,81,69,12,

38,63,12,80,68,12,

38,63,12,80,67,12,

38,63,12,79,68,12,

38,63,12,79,67,12,

37,62,12,79,67,12,

37,62,11,79,67,12,

37,62,12,79,67,12,

37,62,12,78,66,12,

36,62,12,78,66,12,

36,61,12,78,66,12,

36,61,12,77,65,12,

36,61,12,77,65,12,

36,60,12,77,65,12,

35,60,12,76,65,12,

35,60,12,76,64,12,

35,60,12,76,63,12,

35,60,12,75,63,12,

35,60,11,75,63,12,

35,59,12,75,63,12,

35,59,11,74,63,12,

35,59,11,74,63,12,

34,59,12,73,62,12,

35,59,12,73,62,12,

34,58,11,73,62,11,

35,57,12,73,62,12,

34,57,12,71,62,12,

34,57,12,71,62,12,

34,58,12,71,61,11,

33,57,12,71,61,12,

34,57,12,71,60,12,

34,57,11,71,61,12,

33,56,11,71,60,12,

33,56,12,71,60,12,

33,56,11,70,59,12,

33,56,12,70,59,12,

33,56,12,70,59,12,

33,56,11,70,59,12,

33,56,11,69,66,12,

33,55,12,69,102,12,

32,55,12,68,100,12,

32,55,12,67,99,12,

32,55,11,67,99,12,

31,54,12,67,99,12,

31,54,11,67,98,11,

31,54,12,67,97,12,

31,54,12,67,97,11,

31,54,12,67,96,12,

31,54,12,66,96,12,

31,53,12,66,96,12,

31,53,11,65,96,12,

31,53,12,65,95,12,

31,53,12,65,94,12,

31,53,12,65,94,12,

30,52,12,65,94,12,

31,52,12,65,93,12,

31,52,12,64,93,11,

31,51,12,64,92,11,

31,51,12,63,92,12,

30,51,12,63,92,12,

30,51,11,63,91,12,

30,51,12,63,91,11,

30,51,11,62,90,12,

30,51,12,63,90,12,

30,50,12,62,89,12,

30,50,12,62,89,12,

30,50,12,61,89,11,

29,50,12,61,89,12,

29,50,12,61,88,12,

29,49,12,61,88,11,

29,50,11,61,88,12,

29,49,12,61,87,12,

29,49,12,61,86,11,

29,49,12,61,86,11,

29,49,11,60,86,12,

29,49,12,60,86,12,

29,49,12,60,85,12,

28,48,11,60,84,12,

28,48,12,60,84,11,

28,48,11,60,83,12,

28,48,12,59,83,12,

28,48,12,59,83,12,

28,48,12,58,82,12,

28,48,12,58,82,12,

28,47,12,58,82,12,

28,48,12,57,82,12,

28,47,12,57,82,12,

28,46,12,57,81,12,

27,46,12,57,80,12,

28,46,11,57,80,12,

27,46,12,57,79,12,

27,46,12,56,79,12,

27,46,12,56,79,12,

27,46,12,56,79,12,

27,45,12,56,78,12,

27,46,12,56,78,12,

26,45,11,56,78,12,

27,45,12,55,78,12,

27,45,12,55,77,11,

26,45,11,55,77,12,

26,45,12,55,76,12,

26,44,12,54,76,11,

26,45,12,54,76,12,

26,44,12,54,76,12,

26,44,12,54,75,12,

26,44,12,54,75,12,

26,44,12,53,75,12,

25,44,12,53,74,12,

25,44,11,53,74,12,

25,44,12,52,74,12,

25,43,12,52,73,11,

25,43,11,51,73,12,

25,43,12,52,73,12,

25,43,12,51,71,12,

25,43,12,51,71,12,

25,42,12,51,71,12,

25,42,12,51,71,12,

25,42,12,51,71,12,

25,42,12,51,71,12,

25,42,12,51,71,12,

25,42,12,50,70,12,

25,42,12,50,70,12,

24,41,12,50,70,11,

24,41,11,50,70,12,

24,41,11,50,69,11,

24,41,12,49,69,11,

24,41,12,49,68,11,

24,41,12,49,69,12,

24,41,12,49,68,12,

24,39,12,49,68,12,

24,39,12,56,67,12,

24,39,12,55,67,12,

24,39,12,55,67,12,

24,39,12,55,67,12,

24,39,12,55,66,11,

24,39,12,54,66,12,

24,39,12,54,66,11,

23,39,12,54,65,11,

23,39,12,53,65,12,

24,39,12,53,65,12,

24,39,12,53,65,12,

23,39,12,52,65,11,

23,39,12,52,64,11,

23,39,12,52,64,12,

23,39,12,52,63,11,

23,38,11,51,63,12,

23,39,12,51,63,11,

22,38,12,51,63,11,

22,38,12,51,63,12,

22,38,12,51,62,12,

22,38,12,50,62,12,

22,38,12,51,62,12,

22,38,11,51,62,11,

22,37,12,50,61,12,

22,37,12,49,62,11,

22,37,11,49,61,11,

22,37,12,49,61,11,

22,37,11,49,61,12,

22,37,12,49,60,12,

22,36,12,49,60,12,

22,37,12,49,60,12,

22,36,12,48,59,12,

21,36,12,48,60,11,

22,36,11,48,59,11,

21,35,11,48,59,12,

21,36,11,48,59,12,

21,35,12,48,59,11,

21,35,11,47,59,12,

21,35,12,47,58,11,

21,35,12,47,58,12,

21,35,12,47,57,11,

21,35,12,47,57,12,

21,35,12,47,57,12,

21,35,12,46,57,12,

21,35,12,46,57,11,

21,35,12,46,56,12,

21,34,11,45,56,12,

20,34,12,46,56,11,

20,35,12,45,56,12,

20,34,11,45,56,12,

20,34,12,45,56,11,

20,34,12,45,55,12,

20,34,12,45,55,12,

20,34,12,71,54,11,

20,34,12,71,54,12,

20,34,12,71,54,12,

20,33,11,70,54,12,

20,33,12,70,54,12,

19,33,12,69,54,12,

19,33,12,69,53,12,

19,33,12,69,53,12,

19,33,11,69,53,12,

19,33,12,68,53,11,

19,32,12,68,52,11,

19,33,11,67,52,12,

19,32,12,67,52,12,

19,33,11,69,51,12,

19,33,12,69,51,11,

19,32,12,69,51,11,

19,31,11,68,51,11,

19,32,12,67,51,12,

19,31,12,67,51,12,

19,31,12,67,50,11,

19,31,12,67,50,11,

19,31,12,67,50,12,

19,31,11,66,50,11,

19,31,12,66,50,12,

19,31,12,66,49,12,

19,31,12,66,49,12,

19,31,11,65,49,12,

19,31,11,65,49,12,

18,31,12,65,49,11,

18,31,11,63,48,12,

18,31,11,63,48,11,

18,31,12,64,48,12,

18,30,11,63,48,12,

19,30,11,63,48,12,

18,30,11,63,48,11,

18,30,12,63,48,12,

18,30,11,62,47,12,

18,30,12,62,47,12,

18,30,12,62,47,12,

18,29,11,62,47,12,

18,30,12,61,47,11,

18,30,12,61,47,12,

18,29,11,61,46,11,

18,29,11,61,46,12,

18,30,12,61,46,12,

18,29,12,61,45,12,

18,29,12,65,46,12,

17,29,12,65,45,11,

17,29,12,64,46,12,

17,29,12,64,45,12,

17,29,12,63,45,11,

17,28,12,63,45,11,

17,29,11,63,44,11,

17,29,12,63,44,12,

17,28,11,62,44,12,

17,28,12,62,44,12,

17,28,12,62,44,12,

17,28,12,87,44,12,

17,28,12,86,44,12,

17,28,12,86,44,11,

17,28,11,86,43,12,

17,28,12,85,43,12,

17,28,12,85,43,11,

17,28,11,84,43,12,

16,28,11,83,43,12,

17,27,12,83,42,11,

17,27,11,83,42,12,

17,27,11,83,42,12,

17,28,12,82,42,12,

16,27,11,82,41,12,

17,27,11,81,42,11,

17,27,12,81,41,11,

16,27,11,81,41,11,

17,27,12,81,41,12,

17,27,11,79,41,12,

16,26,11,79,40,11,

16,26,11,79,39,11,

16,26,12,79,41,11,

16,26,11,79,40,11,

16,26,11,79,39,12,

16,26,12,78,39,12,

16,26,12,78,39,12,

16,26,12,77,39,12,

16,26,12,77,39,11,

15,26,12,77,39,12,

16,26,11,77,39,11,

16,25,12,76,39,11,

15,26,12,76,39,12,

15,25,12,76,39,12,

15,25,11,75,39,12,

15,25,12,75,39,12,

16,25,12,75,39,12,

15,25,12,75,39,11,

16,25,12,74,38,11,

15,25,12,73,38,12,

15,25,11,73,38,11,

15,25,12,73,38,12,

16,25,11,73,38,11,

15,25,11,71,37,11,

15,24,11,71,38,12,

15,25,12,71,37,12,

15,24,12,71,37,12,

15,24,12,71,37,12,

15,24,12,71,37,11,

15,24,11,71,37,12,

15,24,11,71,36,11,

15,24,12,70,36,11,

15,24,11,70,36,12,

15,24,12,70,36,12,

15,24,12,69,36,12,

15,24,12,69,35,11,

15,24,12,69,35,12,

15,24,12,68,35,12,

15,24,12,68,36,12,

15,24,11,67,35,12,

15,24,11,67,35,12,

15,24,12,67,35,12,

15,24,12,70,35,12,

15,24,12,79,35,12,

14,23,11,79,35,12,

15,23,12,79,35,12,

15,24,12,78,35,12,

15,23,12,78,34,12,

15,23,12,78,34,12,

15,23,12,77,34,12,

15,26,11,77,34,12,

15,26,11,77,34,11,

15,25,11,76,33,11,

15,26,11,76,34,12,

15,26,12,76,34,11,

14,26,12,76,33,12,

15,25,12,76,33,12,

15,25,11,75,33,11,

15,25,12,75,33,11,

14,25,11,74,33,11,

14,25,12,74,33,12,

14,25,12,74,33,11,

14,25,11,73,33,11,

15,25,12,73,32,11,

14,25,11,73,31,11,

14,25,12,73,32,11,

14,25,12,71,32,11,

14,25,11,71,32,11,

14,24,12,71,31,12,

14,24,12,71,31,12,

14,24,12,71,31,12,

14,24,12,70,31,11,

14,24,12,70,31,12,

14,24,12,70,31,11,

14,24,11,70,31,11,

14,24,11,70,31,11,

14,24,11,69,31,11,

14,24,12,69,31,11,

14,24,12,69,31,11,

14,24,12,68,30,12,

14,23,11,67,31,12,

14,23,12,67,30,11,

14,24,12,67,30,12,

14,23,12,67,30,11,

14,23,11,66,30,11,

14,23,11,66,30,12,

14,23,12,66,30,12,

14,23,11,66,30,11,

14,23,12,66,30,11,

14,23,11,66,30,11,

13,22,11,65,30,12,

14,22,12,65,30,12,

14,23,12,65,29,11,

14,22,12,64,29,11,

13,23,12,64,29,12,

22,22,12,63,29,11,

22,22,12,63,29,11,

22,22,12,63,29,11,

22,22,12,63,29,12,

21,22,12,63,28,11,

22,21,11,62,29,11,

21,22,12,63,28,12,

22,22,12,63,63,12,

21,22,12,63,63,12,

22,22,12,63,62,12,

21,21,12,62,62,11,

21,21,12,62,62,12,

21,22,12,62,61,12,

21,21,11,62,61,12,

20,21,12,61,61,12,

21,21,12,61,61,12,

20,21,11,61,60,12,

21,21,12,61,60,12,

21,21,12,62,60,12,

20,21,12,100,59,12,

20,21,12,99,59,12,

20,21,11,98,59,11,

20,21,11,97,59,11,

20,21,11,97,58,12,

20,21,11,96,58,11,

19,21,11,96,58,11,

19,21,12,96,57,11,

19,20,11,95,57,11,

19,20,12,95,57,12,

20,20,12,94,57,12,

19,20,12,94,56,12,

19,21,11,94,56,12,

19,20,12,93,56,12,

19,20,11,93,56,12,

19,20,11,92,56,12,

19,20,12,92,56,11,

19,20,12,91,56,11,

19,19,11,91,55,11,

19,20,12,91,54,12,

19,20,11,90,54,12,

19,19,12,91,54,12,

19,20,12,90,54,12,

19,19,12,89,54,12,

19,19,11,89,54,12,

18,19,11,89,53,12,

18,19,11,88,53,12,

18,19,11,88,53,11,

19,19,12,88,53,12,

18,19,12,87,52,11,

18,19,11,87,52,12,

18,19,12,86,51,12,

18,19,12,86,51,11,

18,19,11,85,51,12,

18,19,12,85,51,12,

18,19,12,85,51,11,

18,19,12,84,51,12,

18,19,12,84,50,12,

18,19,11,83,50,11,

18,19,11,83,50,11,

18,19,11,83,50,11,

17,19,12,82,50,12,

18,19,12,82,49,11,

18,18,11,82,49,12,

17,19,12,81,49,11,

17,18,12,81,48,11,

17,18,11,81,49,11,

17,18,11,81,48,11,

17,18,12,80,48,12,

17,18,11,80,48,12,

17,18,12,79,48,11,

17,18,12,79,48,11,

17,18,11,79,48,11,

17,18,12,78,47,12,

17,18,12,78,47,11,

17,18,12,78,47,12,

17,18,12,78,46,11,

17,18,12,77,46,12,

17,18,11,77,46,11,

17,18,12,77,46,12,

16,18,11,76,46,12,

17,18,11,76,46,12,

17,18,12,76,46,11,

16,18,11,75,45,12,

17,17,11,75,45,11,

16,18,12,75,45,11,

16,17,11,74,45,12,

16,17,12,75,45,12,

16,18,12,74,48,11,

16,17,11,73,73,12,

16,17,11,73,73,11,

16,18,12,73,71,12,

15,18,12,73,71,11,

16,17,11,73,71,11,

16,17,12,71,71,11,

16,17,12,71,71,12,

16,17,12,71,70,12,

15,17,12,71,70,11,

16,17,12,71,70,12,

15,17,11,71,70,12,

15,17,12,70,69,12,

16,17,12,70,69,12,

15,17,11,70,68,11,

16,17,12,70,68,11,

15,17,12,69,68,12,

15,17,12,69,67,11,

15,17,11,69,67,12,

15,17,12,68,67,12,

15,17,11,68,66,12,

15,17,12,67,66,11,

15,17,11,67,66,12,

15,16,11,67,66,12,

15,16,12,67,66,12,

15,16,12,67,65,12,

15,16,12,67,65,11,

15,16,11,66,64,12,

15,17,12,66,63,11,

15,16,12,65,64,12,

15,16,12,66,63,11,

15,17,12,65,63,11,

15,16,11,65,63,12,

15,16,12,64,63,11,

15,16,11,64,62,11,

15,16,11,64,62,12,

15,16,12,63,62,12,

15,16,12,63,62,11,

15,16,12,63,61,12,

15,16,11,63,61,12,

15,15,12,63,61,12,

15,15,12,63,61,11,

15,16,11,62,60,12,

15,16,11,62,60,11,

14,16,12,62,60,12,

15,16,12,62,60,11,

15,15,11,62,60,11,

15,15,12,61,59,11,

15,15,11,61,59,12,

15,15,11,61,59,11,

15,15,11,60,59,11,

15,15,11,60,59,12,

15,15,12,60,58,12,

14,15,12,60,58,12,

14,15,11,59,57,12,

14,15,12,59,57,12,

14,15,11,59,57,12,

14,15,11,62,57,12,

15,15,11,62,57,12,

15,15,11,62,56,11,

15,15,12,62,56,11,

14,15,12,61,56,11,

14,15,11,61,56,12,

14,15,12,60,56,12,

15,15,12,61,55,12,

14,15,12,60,55,11,

14,15,12,60,55,11,

14,15,12,60,54,11,

14,15,12,60,54,12,

14,15,11,79,55,12,

15,15,12,90,54,11,

14,15,11,89,53,12,

14,15,11,89,53,11,

14,15,12,89,53,11,

14,15,12,88,53,12,

14,15,12,88,53,12,

14,15,12,87,52,12,

14,15,11,87,52,11,

14,15,12,86,52,11,

14,15,12,85,52,12,

14,15,11,85,52,11,

15,15,12,85,90,12,

14,14,12,85,89,11,

14,15,12,84,89,12,

14,15,11,84,88,11,

14,15,12,84,88,12,

14,15,12,86,88,12,

14,14,12,86,87,12,

14,14,12,86,87,12,

14,15,12,85,86,11,

14,15,12,85,86,12,

14,14,12,84,85,12,

14,14,12,84,85,11,

14,14,12,84,85,12,

14,14,11,83,84,11,

14,14,12,83,83,11,

14,15,12,83,83,11,

14,14,12,82,83,12,

14,14,12,82,83,12,

14,14,12,82,82,12,

14,14,11,81,82,12,

14,14,11,81,82,12,

14,14,12,81,81,11,

14,14,11,80,81,12,

13,14,12,81,81,12,

14,14,12,80,79,12,

14,14,12,81,79,12,

14,14,12,79,79,11,

14,14,11,79,79,11,

13,14,12,79,78,12,

14,14,11,79,79,11,

13,14,12,78,78,12,

14,14,12,78,78,12,

14,14,12,78,77,11,

14,14,12,78,77,11,

14,14,11,77,77,12,

14,14,12,77,76,12,

14,13,11,77,76,12,

14,14,11,76,76,12,

14,14,12,76,75,11,

14,14,12,76,75,11,

14,14,12,75,75,11,

14,14,11,75,75,11,

14,14,11,75,74,12,

14,14,11,74,74,12,

14,14,12,74,73,12,

14,14,12,73,73,12,

14,14,12,73,73,12,

14,14,12,73,72,12,

14,13,11,73,71,11,

14,14,12,73,71,12,

14,13,11,71,71,11,

14,14,11,71,71,12,

14,14,12,71,71,12,

14,14,11,71,71,11,

14,13,11,71,70,12,

14,14,11,71,70,11,

14,14,12,70,70,12,

14,14,12,71,70,12,

14,14,12,70,69,12,

14,14,12,70,69,12,

14,14,11,69,69,11,

14,13,12,69,68,12,

14,14,12,69,67,11,

14,13,11,68,67,12,

14,14,11,68,67,11,

14,13,12,68,67,11,

14,14,12,67,67,12,

14,13,12,67,67,12,

14,13,12,67,66,11,

14,13,12,67,66,11,

14,13,11,67,66,11,

13,13,11,66,65,12,

14,13,12,66,65,12,

13,13,12,66,65,11,

14,13,11,65,64,11,

13,13,12,65,64,12,

14,14,11,65,64,11,

14,13,11,65,64,12,

13,13,11,64,63,11,

13,13,12,63,63,12,

13,13,11,63,63,11,

14,13,12,64,97,12,

13,13,11,63,96,12,

14,13,12,71,95,12,

13,13,11,70,94,12,

13,13,12,70,94,11,

14,13,12,69,93,11,

13,13,11,69,93,12,

14,13,12,69,93,12,

14,13,11,69,92,11,

13,13,11,68,92,11,

13,13,12,67,91,11,

14,13,11,67,91,11,

13,13,11,67,90,12,

13,13,11,67,89,11,

14,13,11,67,89,12,

13,13,11,66,89,12,

13,13,12,66,89,11,

13,13,11,65,88,12,

13,13,12,66,88,12,

13,13,11,65,88,11,

13,13,11,65,87,12,

13,13,12,65,87,11,

13,13,12,66,87,12,

13,13,12,73,86,12,

14,14,12,100,86,12,

13,13,12,115,85,12,

13,13,12,114,85,12,

13,13,12,114,84,12,

13,13,11,113,84,12,

13,13,12,113,83,12,

13,13,12,112,83,12,

13,13,12,112,83,12,

13,13,12,111,83,11,

13,13,12,110,82,11,

13,13,12,110,82,11,

13,13,12,110,82,12,

13,13,12,109,81,12,

13,13,12,109,81,12,

13,13,12,108,80,11,

13,13,12,108,79,12,

13,13,11,107,79,12,

13,13,11,107,79,12,

13,13,11,106,79,11,

13,13,12,105,78,11,

13,13,12,105,78,11,

13,13,11,103,78,11,

13,13,12,103,77,12,

12,13,11,103,77,12,

13,13,11,103,77,12,

13,13,12,103,76,11,

13,13,12,102,76,11,

13,13,12,102,76,12,

13,12,12,101,76,12,

13,12,12,101,75,11,

12,12,12,100,75,12,

12,13,12,100,74,11,

13,12,11,99,74,11,

12,12,11,99,73,12,

13,12,12,99,73,12,

13,13,12,98,73,11,

12,12,12,98,73,12,

12,13,12,98,71,12,

13,13,12,97,73,11,

13,13,12,97,71,12,

12,13,12,96,71,11,

12,12,11,96,71,12,

13,12,12,96,71,12,

12,12,12,95,71,12,

13,12,11,95,71,12,

13,13,12,94,70,12,

13,13,12,94,70,11,

13,13,11,93,69,11,

13,13,12,93,69,12,

13,12,11,92,69,11,

13,13,12,93,69,12,

13,13,11,93,68,12,

13,13,12,92,68,12,

12,12,12,92,67,12,

13,12,11,92,67,12,

13,12,12,91,67,11,

13,12,11,91,67,12,

13,13,11,90,67,12,

13,12,12,90,67,11,

12,13,11,89,66,12,

13,13,12,89,66,12,

13,13,11,89,66,12,

13,12,12,89,65,12,

12,12,11,88,65,11,

12,12,11,88,65,12,

12,12,11,88,65,11,

13,12,11,88,64,12,

13,12,12,87,64,11,

12,12,12,87,63,11,

12,13,11,86,63,12,

13,12,11,86,63,11,

