
39,25,3,88,46,3,

39,25,3,87,46,3,

39,25,3,87,46,3,

39,24,3,87,46,3,

39,24,3,86,46,4,

39,25,3,86,46,3,

39,27,3,86,45,3,

39,26,3,85,45,3,

39,26,3,85,45,3,

39,26,3,85,44,3,

38,26,3,84,44,3,

39,25,3,83,44,3,

38,25,3,83,44,3,

38,25,3,83,44,3,

38,25,3,83,44,3,

38,25,3,82,43,3,

38,25,3,82,43,3,

37,25,3,81,43,3,

38,25,3,81,43,3,

37,25,3,81,43,3,

37,24,3,80,42,4,

37,24,3,80,42,3,

37,24,4,79,42,3,

37,24,3,79,42,3,

49,24,3,79,41,4,

49,24,3,79,41,3,

48,24,3,79,41,3,

48,24,4,78,41,3,

48,24,3,78,41,3,

48,24,3,78,41,3,

48,24,3,78,41,3,

47,24,3,77,39,3,

47,31,3,77,39,3,

47,31,3,77,39,3,

47,31,4,76,39,3,

46,31,3,76,39,3,

48,31,3,76,39,4,

48,31,3,75,39,3,

47,31,3,75,39,3,

47,31,3,75,39,3,

47,30,3,75,39,3,

46,30,3,74,39,3,

46,30,3,74,39,3,

46,30,3,73,38,3,

46,30,3,73,38,3,

45,30,3,73,38,3,

45,30,3,71,38,3,

45,29,4,71,37,3,

45,29,4,71,37,4,

45,29,3,71,37,3,

45,29,4,71,37,3,

50,29,3,71,36,3,

49,29,4,71,36,3,

49,28,3,71,36,4,

49,29,3,70,36,3,

48,28,3,70,36,3,

49,29,3,70,36,3,

48,28,3,70,35,3,

48,28,4,69,36,3,

48,28,3,69,35,3,

48,28,3,69,35,3,

47,28,3,68,35,3,

47,28,3,68,35,3,

47,28,3,68,35,3,

47,27,3,67,35,3,

46,27,3,67,35,3,

46,27,4,67,34,3,

46,27,3,67,34,3,

46,27,3,66,34,3,

46,27,3,66,34,4,

46,26,4,66,83,3,

45,26,3,66,82,3,

45,26,4,65,82,3,

45,26,3,65,81,3,

44,26,3,65,81,3,

45,25,3,65,80,4,

46,26,3,64,79,3,

46,25,3,64,79,3,

46,25,3,63,79,3,

45,25,3,63,79,3,

46,25,3,63,79,3,

45,25,3,63,78,3,

45,25,3,63,78,3,

45,25,4,63,77,3,

45,25,3,62,77,3,

44,25,3,62,76,3,

44,25,3,62,76,3,

44,25,4,62,76,3,

44,25,3,61,76,3,

44,25,3,61,76,3,

44,25,3,61,75,3,

43,25,3,60,75,3,

43,25,3,60,74,3,

43,24,3,60,74,3,

43,24,3,60,74,3,

43,24,3,60,73,4,

43,24,3,60,73,3,

42,27,3,68,73,3,

42,27,3,67,71,3,

42,27,3,67,71,3,

41,26,3,67,71,3,

41,26,3,67,71,3,

41,26,3,67,71,3,

45,25,3,66,71,3,

44,26,3,66,70,3,

44,26,3,65,70,3,

44,25,4,65,70,4,

44,25,3,65,69,3,

44,25,4,65,69,3,

44,25,3,65,69,3,

43,26,3,64,69,3,

43,26,4,63,68,3,

42,25,3,63,68,3,

43,25,3,63,67,3,

42,25,3,63,67,3,

43,25,3,63,67,3,

54,25,3,63,67,3,

54,25,3,62,67,3,

53,24,3,62,66,4,

53,25,4,62,66,3,

52,24,3,61,66,3,

52,24,3,61,65,3,

52,25,3,61,65,3,

52,25,4,61,65,4,

51,25,3,61,64,3,

51,25,4,60,64,3,

51,25,3,60,63,3,

51,25,3,60,63,3,

51,25,3,60,63,4,

63,25,3,59,63,3,

63,24,3,59,63,3,

63,24,3,59,63,3,

63,24,3,59,62,3,

62,24,3,58,62,3,

62,24,3,58,62,3,

62,24,3,58,62,3,

62,24,3,58,62,3,

61,24,3,57,61,3,

61,24,3,57,61,3,

61,24,3,57,61,3,

60,24,3,56,60,3,

60,23,4,57,60,3,

60,23,3,56,60,3,

60,23,3,56,60,3,

59,38,3,56,59,3,

59,48,4,56,59,3,

59,59,3,56,59,4,

59,58,3,56,58,3,

59,58,3,55,58,3,

58,57,3,54,58,3,

58,57,3,54,58,4,

58,57,3,54,58,3,

57,57,3,54,57,3,

57,56,3,54,57,3,

82,56,3,54,57,4,

101,56,3,53,57,3,

101,56,3,53,56,3,

99,55,3,53,56,3,

99,55,3,52,56,4,

99,55,3,52,101,3,

98,54,3,52,99,3,

98,54,3,52,99,3,

97,54,3,51,99,3,

96,54,3,51,98,3,

96,53,3,51,97,3,

96,53,3,51,97,3,

96,53,4,51,97,3,

95,52,3,51,96,3,

94,52,3,51,96,3,

94,52,3,50,96,3,

94,51,3,50,94,3,

93,51,3,50,94,3,

93,51,3,50,94,4,

92,51,3,49,93,3,

92,51,3,49,93,4,

92,51,3,49,93,3,

91,50,3,49,92,3,

91,50,3,48,92,3,

91,50,4,48,91,3,

90,50,3,48,91,3,

89,50,3,48,91,3,

89,49,3,48,90,3,

89,49,3,48,90,3,

88,49,3,48,89,4,

88,49,3,48,89,4,

88,48,3,47,89,3,

88,48,3,47,88,3,

88,48,3,47,88,3,

86,48,3,47,88,3,

87,48,4,47,88,3,

86,48,4,46,87,3,

86,47,3,46,86,3,

85,47,3,46,86,3,

91,47,4,46,86,4,

94,48,4,46,85,3,

94,47,3,45,85,3,

93,47,3,45,85,3,

93,47,3,45,84,3,

92,46,3,45,84,4,

92,46,3,44,83,4,

92,46,3,44,83,3,

91,46,3,44,83,3,

91,45,3,44,82,3,

91,45,3,44,82,3,

90,45,3,44,81,3,

99,49,3,44,81,3,

103,49,3,44,81,4,

103,98,3,44,81,4,

107,190,4,43,80,3,

105,249,3,43,79,4,

105,246,3,43,79,3,

103,244,3,43,79,3,

103,243,3,42,79,3,

103,241,3,42,78,3,

103,240,3,41,78,3,

102,238,3,42,78,3,

102,237,3,41,77,3,

102,236,4,41,77,3,

112,235,4,41,77,3,

126,233,3,41,76,3,

167,255,4,41,76,4,

177,323,3,41,76,3,

176,358,3,41,75,4,

175,359,3,39,75,3,

174,357,3,39,74,3,

172,355,3,39,74,3,

172,353,3,39,74,3,

171,350,3,39,73,3,

170,348,3,39,73,3,

169,346,3,39,73,3,

169,344,3,39,72,3,

171,342,3,39,71,4,

170,340,3,39,71,3,

169,344,3,39,71,3,

167,343,3,39,71,3,

167,377,4,53,71,4,

167,373,3,53,70,4,

166,371,3,52,70,3,

165,369,4,52,70,4,

165,367,4,52,70,4,

163,365,4,51,69,3,

163,362,3,51,69,3,

163,361,3,51,69,3,

176,359,4,51,68,3,

192,356,3,51,67,4,

191,355,4,50,68,4,

190,352,3,50,67,3,

189,351,4,50,67,3,

188,348,3,51,71,4,

187,347,4,88,71,3,

185,345,4,87,71,3,

201,344,4,87,71,5,

306,428,5,86,70,4,

333,463,3,85,69,4,

331,460,4,85,69,4,

327,455,4,85,69,5,

326,453,4,84,68,4,

324,451,4,83,68,4,

322,448,4,83,67,4,

319,446,4,83,67,4,

319,443,4,83,67,4,

317,441,4,82,67,4,

315,439,4,82,66,4,

313,435,4,81,66,4,

312,433,4,81,66,4,

310,430,4,80,65,4,

308,428,4,79,65,4,

307,425,4,79,65,4,

305,423,4,79,65,4,

304,448,4,79,65,4,

302,444,4,79,64,4,

300,442,5,78,63,4,

299,438,4,78,63,4,

297,436,5,77,63,4,

295,433,5,77,63,4,

295,430,4,77,63,5,

324,429,5,77,62,4,

355,425,5,76,62,4,

352,423,5,76,62,5,

350,421,5,76,62,5,

348,419,5,75,61,5,

345,415,5,74,61,5,

344,413,5,74,61,4,

342,412,5,74,61,4,

339,410,5,74,60,4,

338,408,5,75,60,4,

335,407,5,91,60,5,

334,403,5,91,59,5,

332,401,5,90,59,5,

331,399,5,89,59,5,

327,397,5,89,58,5,

327,395,5,88,58,5,

325,393,5,88,58,5,

323,391,5,88,57,5,

322,388,5,87,57,5,

319,387,5,87,57,5,

318,384,5,87,57,4,

317,382,5,86,56,5,

315,380,5,86,56,5,

313,378,5,85,56,5,

312,377,6,85,56,5,

311,374,6,84,56,5,

309,373,6,83,56,5,

307,370,6,83,55,5,

306,368,6,83,55,5,

304,368,6,105,55,5,

303,365,6,103,55,5,

301,363,6,103,54,6,

300,405,6,103,54,6,

298,401,6,102,54,6,

297,399,6,102,54,6,

295,397,6,101,54,6,

294,394,7,101,53,6,

292,391,6,100,53,6,

291,389,6,99,53,6,

289,387,7,99,52,6,

287,384,6,99,52,6,

286,383,7,98,52,6,

285,380,6,97,52,6,

284,378,6,97,51,6,

282,376,6,97,51,6,

281,374,7,96,51,6,

280,372,6,96,51,6,

279,370,7,95,51,7,

277,368,7,95,50,6,

275,366,7,94,50,6,

274,364,6,94,50,6,

273,362,7,93,49,6,

271,359,6,93,49,6,

271,358,7,93,49,7,

269,357,7,92,49,6,

268,355,6,92,48,6,

267,353,7,92,48,6,

265,351,6,91,48,7,

263,350,6,91,48,6,

263,348,7,90,48,7,

262,346,7,90,48,6,

260,344,7,89,47,7,

259,343,7,89,47,6,

258,341,7,89,47,6,

257,339,6,88,46,6,

255,337,6,88,46,7,

255,335,7,88,47,7,

254,334,7,87,46,6,

252,333,6,86,46,6,

251,331,6,86,46,7,

250,329,7,86,45,6,

249,327,7,85,45,6,

248,326,7,85,45,6,

247,324,7,85,45,6,

246,323,6,84,45,6,

244,322,7,84,44,6,

243,319,7,83,44,6,

242,318,6,83,44,6,

241,317,7,83,44,6,

240,316,6,82,44,6,

239,314,7,82,43,6,

238,312,6,81,43,6,

237,312,7,81,43,6,

236,310,7,81,43,6,

235,307,6,80,43,6,

234,307,6,79,42,6,

233,305,6,79,42,6,

231,304,6,79,42,6,

231,302,6,79,42,7,

230,301,6,79,41,6,

229,300,6,78,41,6,

227,298,6,78,41,6,

227,297,7,78,41,6,

226,295,6,77,41,6,

225,294,6,77,39,6,

224,293,6,77,39,6,

223,291,6,76,39,6,

222,290,6,76,39,6,

221,289,6,76,39,6,

220,287,6,75,39,6,

219,286,6,75,39,6,

218,285,6,75,39,6,

217,284,6,74,39,6,

216,283,6,74,39,6,

216,281,6,73,39,6,

214,280,6,73,39,6,

213,279,6,73,39,6,

213,278,6,72,38,6,

211,276,6,71,38,6,

211,275,6,71,38,5,

210,273,6,71,38,6,

209,272,6,71,38,6,

207,271,6,71,37,6,

207,270,6,71,37,6,

207,269,6,70,37,6,

206,268,6,70,37,6,

205,267,6,70,37,6,

204,265,6,69,37,5,

203,263,6,69,36,6,

202,263,6,69,36,5,

201,262,5,68,36,6,

199,261,6,68,36,6,

199,259,6,68,35,6,

199,258,5,67,35,6,

198,257,6,67,35,6,

197,255,5,67,35,5,

197,255,5,110,35,6,

195,254,6,109,35,5,

194,252,5,108,35,6,

194,252,5,107,35,6,

193,250,6,107,35,5,

192,249,5,106,35,5,

191,248,5,105,35,5,

190,247,5,105,34,6,

190,246,5,103,34,5,

189,244,5,103,34,5,

188,243,6,103,34,5,

187,243,5,103,34,6,

186,241,5,102,34,5,

185,240,5,102,33,5,

185,239,5,102,33,5,

184,238,5,101,33,5,

183,237,5,100,33,5,

182,236,5,99,33,5,

182,235,5,99,33,5,

181,234,5,99,32,5,

179,233,6,99,32,5,

179,231,5,98,32,5,

178,231,5,98,31,5,

178,230,5,97,32,5,

177,229,5,97,31,5,

176,228,5,96,31,5,

176,227,5,96,31,5,

175,227,5,96,31,5,

174,225,5,95,31,5,

174,225,5,94,31,5,

173,224,5,94,31,5,

172,223,5,93,30,4,

172,222,5,93,30,5,

171,221,5,93,35,5,

170,220,5,92,35,5,

169,219,5,92,35,5,

169,218,5,92,35,5,

167,217,5,91,34,5,

167,216,5,91,34,5,

167,216,5,90,34,5,

166,214,5,89,34,5,

165,214,5,89,33,5,

165,212,5,89,33,5,

163,211,5,89,33,5,

163,211,5,89,33,5,

163,210,5,88,33,5,

162,209,5,88,33,5,

161,207,5,87,33,5,

160,207,5,87,33,4,

159,206,5,86,32,4,

159,206,4,86,33,5,

158,205,5,85,32,5,

158,204,5,85,32,4,

157,203,5,85,31,4,

156,202,5,84,31,4,

156,201,4,83,31,5,

155,199,5,83,33,5,

155,199,5,83,35,5,

154,199,4,83,38,4,

153,198,5,82,38,4,

153,198,5,82,37,4,

152,196,4,81,37,5,

152,195,5,81,37,4,

152,195,5,81,37,4,

151,194,5,80,37,4,

150,193,4,79,36,4,

149,192,5,79,36,4,

148,192,4,79,36,4,

148,191,4,79,36,4,

147,190,4,79,35,4,

147,190,4,78,35,4,

146,188,4,78,35,4,

145,188,5,78,35,4,

145,187,4,77,35,4,

145,186,5,77,35,4,

143,185,5,77,35,4,

143,185,4,76,34,4,

143,184,4,76,34,4,

142,184,4,76,34,4,

142,183,4,75,34,4,

141,182,5,75,34,4,

141,181,4,75,33,4,

140,180,4,75,51,4,

140,180,4,74,51,4,

139,179,4,73,51,4,

138,178,4,73,50,4,

138,178,4,73,50,4,

137,177,4,73,50,4,

137,176,4,73,49,4,

135,176,4,71,49,4,

135,175,4,71,49,4,

135,174,5,71,49,4,

135,174,5,71,49,4,

134,173,4,71,49,4,

133,172,4,71,49,4,

133,172,4,70,48,4,

133,171,4,70,48,4,

132,170,4,70,48,4,

131,169,4,69,48,4,

131,167,4,69,48,4,

130,167,4,69,47,4,

130,167,4,68,47,3,

129,167,3,68,46,4,

129,166,4,67,47,4,

128,165,4,67,46,4,

127,165,4,67,46,5,

127,163,4,67,46,4,

127,163,4,66,46,4,

126,163,4,66,45,4,

126,162,4,66,45,4,

126,161,4,66,45,4,

125,161,4,66,45,4,

125,159,4,65,44,4,

124,159,4,65,44,4,

123,159,4,65,44,4,

123,159,4,64,44,4,

123,158,4,66,44,4,

122,157,4,65,45,4,

121,156,4,65,44,4,

121,156,4,65,44,4,

120,155,4,64,44,4,

120,155,4,64,44,4,

120,154,4,63,43,4,

120,153,4,63,43,4,

119,152,4,63,42,4,

118,152,4,63,42,4,

118,152,4,63,42,4,

117,152,4,62,44,4,

117,150,4,62,43,4,

116,150,4,62,43,3,

115,149,4,61,43,4,

115,149,3,61,43,4,

115,148,4,61,42,4,

115,147,4,61,42,4,

114,147,4,61,42,4,

114,146,4,60,41,4,

113,145,3,60,41,4,

113,145,4,60,41,4,

112,144,3,59,40,3,

112,143,4,59,41,4,

111,143,4,59,39,4,

111,142,4,59,39,3,

110,142,3,58,39,3,

110,142,4,58,39,4,

110,141,4,57,39,3,

109,141,3,57,39,3,

109,140,3,57,39,4,

108,140,4,57,39,4,

108,139,3,57,39,4,

108,139,4,56,39,4,

107,138,4,56,39,4,

107,137,4,56,38,4,

106,137,3,56,38,4,

106,135,4,56,38,4,

105,135,3,56,38,4,

105,135,4,55,37,4,

105,135,3,55,38,3,

103,134,3,55,37,4,

103,134,3,54,37,4,

103,133,3,54,36,4,

103,133,4,54,36,3,

103,132,4,53,36,4,

102,131,4,54,36,3,

102,131,4,53,71,4,

101,131,3,53,71,3,

101,130,4,53,71,3,

101,130,3,52,71,4,

100,129,3,52,70,4,

110,129,3,52,70,3,

109,127,3,51,69,4,

109,127,4,51,69,4,

108,127,3,51,68,4,

108,127,4,51,68,3,

107,126,4,51,67,4,

107,126,3,51,67,4,

106,125,4,50,67,3,

105,125,3,50,67,4,

105,124,3,50,66,3,

103,124,3,50,66,4,

103,123,4,50,66,4,

103,123,3,49,66,4,

103,122,3,49,65,4,

103,122,4,49,65,3,

102,121,3,48,64,4,

102,121,4,48,64,3,

101,120,4,48,63,3,

101,120,4,48,63,4,

100,120,3,48,63,3,

99,119,4,48,63,4,

99,119,4,47,62,3,

99,118,3,47,62,3,

99,118,3,47,62,4,

98,117,4,47,62,4,

98,117,3,46,61,3,

98,116,3,46,61,3,

97,116,3,46,61,3,

97,115,3,46,60,3,

97,115,3,46,60,3,

96,115,3,46,60,3,

96,114,4,46,60,3,

95,114,3,45,59,4,

95,113,3,45,59,3,

95,113,3,45,59,3,

94,112,3,45,59,4,

94,112,4,44,58,3,

93,112,3,45,58,3,

93,112,4,44,57,3,

93,111,4,44,57,3,

93,111,3,44,57,3,

92,110,4,44,57,3,

92,110,4,44,57,4,

92,110,3,43,56,4,

91,109,4,43,56,3,

91,108,4,43,56,3,

91,108,3,42,56,3,

90,108,3,43,56,4,

90,108,4,42,56,3,

89,107,3,42,55,4,

89,107,3,42,55,3,

89,106,3,42,54,4,

88,106,3,42,54,3,

88,105,4,41,54,4,

88,105,3,41,54,3,

88,105,3,41,53,3,

88,103,3,41,53,3,

87,103,4,41,53,4,

87,103,3,40,52,3,

86,103,4,39,52,3,

86,103,4,39,52,3,

86,102,4,39,52,3,

85,102,3,39,51,3,

85,102,4,39,51,3,

84,102,3,39,51,4,

84,101,3,39,51,4,

84,100,3,39,51,3,

83,100,3,39,51,3,

83,99,3,39,50,3,

83,99,4,39,50,4,

83,99,3,39,50,4,

83,99,3,39,50,3,

82,98,4,38,49,3,

82,98,3,38,49,3,

82,98,4,38,49,3,

81,97,3,38,49,3,

81,97,4,38,48,4,

81,97,3,37,48,4,

81,96,3,37,48,4,

80,96,4,39,83,3,

80,96,3,39,83,3,

79,96,3,39,82,3,

79,95,3,39,81,3,

79,95,4,39,81,3,

79,94,3,38,81,3,

79,94,4,38,80,3,

78,94,3,38,79,3,

78,93,3,38,79,4,

78,93,3,38,79,3,

77,93,3,37,79,3,

77,92,3,37,78,3,

77,92,3,37,78,3,

77,92,3,37,78,3,

76,92,3,37,77,3,

76,92,3,37,77,3,

76,91,3,36,77,3,

76,91,3,36,76,3,

75,90,3,36,76,4,

75,90,3,36,76,3,

75,90,3,36,75,3,

74,89,3,35,75,3,

74,89,4,36,75,3,

74,89,3,35,74,3,

74,88,3,35,74,3,

73,88,3,35,73,3,

73,88,4,35,73,3,

73,88,3,35,73,3,

73,88,3,35,71,4,

71,87,3,35,71,3,

71,87,3,34,71,3,

71,86,3,34,71,3,

71,86,3,34,71,3,

71,85,3,34,71,4,

71,85,3,34,71,3,

71,85,3,33,70,3,

71,85,3,34,70,3,

70,85,3,34,70,3,

70,84,3,33,69,3,

70,84,4,34,69,4,

70,84,4,69,69,3,

70,83,4,81,69,3,

69,83,3,81,68,3,

69,83,3,80,68,3,

69,82,4,80,67,3,

68,82,3,79,67,3,

68,82,3,79,67,3,

71,81,3,79,67,3,

71,81,3,79,66,3,

70,81,3,78,66,3,

70,81,3,78,66,4,

70,81,4,78,66,3,

70,80,3,77,65,3,

69,79,3,77,65,3,

69,79,3,76,65,3,

69,79,3,76,65,4,

68,79,3,76,64,3,

68,79,4,76,64,3,

68,79,3,75,63,4,

67,78,3,75,63,4,

67,78,3,75,63,4,

67,78,4,74,63,3,

66,78,4,74,62,3,

66,77,3,73,62,3,

66,77,3,73,62,3,

66,77,3,72,62,3,

66,76,3,71,61,3,

65,76,3,71,61,3,

65,76,3,71,61,3,

65,76,4,71,61,3,

65,76,3,71,60,3,

65,75,3,71,60,3,

65,75,3,71,60,3,

64,75,3,70,60,3,

63,75,3,70,60,3,

63,74,3,70,59,4,

63,74,3,69,59,3,

63,73,3,69,58,3,

63,73,4,69,58,3,

62,73,4,69,58,3,

62,73,3,68,58,3,

62,73,4,68,57,3,

62,71,3,71,57,4,

62,71,4,71,57,3,

61,71,3,71,57,3,

62,71,3,71,57,3,

61,71,3,71,56,3,

61,71,3,71,56,4,

61,71,3,71,56,3,

60,70,4,71,56,3,

60,70,3,70,56,3,

61,70,3,69,55,3,

60,70,3,70,56,3,

60,70,3,69,57,3,

60,69,3,69,57,3,

59,69,3,69,57,3,

59,69,3,68,57,3,

59,68,3,68,57,4,

59,68,3,67,56,3,

59,68,4,67,56,3,

58,67,3,67,56,3,

58,67,3,67,56,3,

58,67,3,67,56,3,

58,67,3,66,55,3,

57,67,3,66,55,3,

57,67,3,65,55,3,

57,67,3,65,54,3,

57,66,3,65,54,3,

57,66,3,65,54,3,

56,65,3,64,54,3,

56,66,3,64,53,3,

56,65,4,63,54,3,

56,65,3,63,53,3,

57,65,3,63,53,3,

57,64,4,63,53,4,

57,64,4,63,52,4,

56,64,3,63,52,3,

56,64,4,62,51,3,

56,63,3,62,51,4,

56,63,4,62,51,3,

56,63,3,62,51,4,

55,63,3,62,51,3,

55,63,3,61,51,3,

55,62,3,61,50,3,

54,62,3,61,50,3,

54,62,3,61,50,3,

54,62,4,60,50,3,

54,62,3,60,50,3,

54,62,3,60,49,3,

54,61,3,60,49,3,

53,61,3,60,49,3,

53,61,3,59,49,3,

53,60,3,59,48,3,

52,61,3,59,48,3,

53,60,4,59,48,3,

52,60,3,58,48,3,

52,60,3,58,48,4,

51,60,4,58,47,3,

51,60,3,57,47,3,

51,59,3,57,47,3,

51,59,3,57,47,3,

51,58,3,57,46,3,

51,58,4,56,46,3,

51,58,3,56,46,4,

50,58,4,56,46,3,

50,57,3,56,46,3,

50,57,3,56,46,3,

50,57,4,56,46,3,

50,57,3,56,45,3,

50,57,3,55,45,3,

49,57,3,55,45,4,

49,57,3,54,45,3,

52,57,3,54,44,3,

51,56,4,54,45,3,

51,56,4,54,44,3,

51,56,3,53,44,3,

51,56,4,53,44,3,

51,56,3,53,44,3,

51,56,3,53,44,3,

50,56,4,52,43,3,

50,55,3,53,43,3,

50,55,3,52,43,3,

50,54,3,51,43,4,

50,54,3,52,43,3,

49,54,4,51,43,3,

49,54,3,51,42,3,

49,54,3,51,42,3,

49,53,3,51,42,3,

49,53,3,51,41,4,

49,53,3,51,42,3,

49,53,3,51,41,3,

49,53,3,50,42,3,

48,53,3,50,42,3,

48,52,3,50,41,4,

48,52,4,49,42,3,

48,52,4,49,41,3,

48,51,3,49,41,3,

47,51,3,49,41,3,

47,51,3,49,41,3,

47,51,3,49,41,3,

47,51,3,48,41,3,

46,51,3,48,39,3,

46,51,3,48,45,3,

46,51,4,48,45,3,

46,50,3,48,45,3,

46,50,3,47,44,4,

46,50,3,47,45,3,

45,50,3,47,44,3,

46,50,3,47,44,3,

45,50,3,46,44,3,

45,49,3,46,44,3,

45,49,3,46,43,3,

45,49,4,46,43,4,

45,49,3,46,42,3,

44,49,3,46,43,3,

44,48,3,46,43,4,

44,48,4,45,42,4,

44,48,3,45,42,3,

44,48,3,45,42,3,

44,48,3,45,42,3,

43,48,3,45,41,3,

43,48,3,45,41,3,

43,47,3,44,41,3,

46,47,3,44,41,3,

71,47,3,44,41,3,

71,47,3,44,41,3,

70,46,3,44,39,4,

70,47,4,119,39,4,

69,46,3,118,39,3,

69,46,4,117,39,3,

69,46,3,115,39,3,

68,46,3,115,39,3,

68,45,4,115,39,3,

67,46,3,114,39,3,

67,45,3,114,39,3,

67,45,3,113,39,3,

67,45,3,113,39,4,

67,45,3,112,38,3,

66,44,3,111,38,3,

66,44,3,111,38,3,

65,44,3,111,38,3,

65,44,3,110,38,4,

65,44,3,109,38,3,

64,43,3,109,37,3,

64,44,3,108,37,3,

63,43,3,108,37,3,

63,43,3,107,37,3,

63,43,3,107,37,4,

63,43,3,106,36,3,

63,43,3,106,36,3,

63,43,3,105,36,3,

62,43,3,105,36,3,

62,42,3,103,35,3,

62,42,3,103,35,3,

62,42,3,103,35,3,

61,41,3,103,35,3,

61,41,3,103,35,3,

60,41,3,102,35,4,

60,41,4,102,35,3,

60,41,3,101,35,3,

60,41,3,101,35,3,

59,41,3,100,34,3,

60,39,3,100,35,4,

59,159,4,100,35,3,

59,179,3,99,34,3,

59,177,4,99,45,3,

58,176,3,98,60,3,

58,175,3,98,60,3,

57,174,3,97,60,4,

57,173,4,97,59,3,

57,172,4,97,59,3,

57,172,4,96,58,3,

57,171,3,96,58,4,

56,170,3,95,58,4,

56,167,3,95,58,3,

56,167,3,95,57,3,

56,167,3,94,57,3,

56,167,3,94,57,4,

56,166,4,119,63,3,

55,165,3,117,63,3,

54,164,3,117,63,4,

54,163,3,116,63,3,

54,162,3,115,62,3,

54,161,3,115,62,3,

54,161,3,114,62,4,

53,159,3,113,61,3,

53,159,3,113,61,3,

53,158,3,113,61,3,

52,158,4,112,60,3,

52,157,4,111,60,3,

51,156,4,111,60,3,

51,155,3,110,60,3,

51,155,3,110,59,4,

51,154,4,110,59,4,

51,153,3,109,58,3,

51,152,3,108,58,4,

50,152,3,108,58,3,

50,151,3,107,57,3,

50,151,3,107,57,3,

50,150,3,106,57,3,

49,149,3,106,57,3,

49,148,3,105,57,4,

49,147,3,105,56,4,

49,147,3,105,56,3,

48,146,3,103,56,3,

48,145,4,103,56,3,

48,145,3,103,55,3,

48,143,3,102,55,4,

48,143,4,102,55,3,

52,143,3,101,54,3,

52,142,3,101,54,3,

51,142,3,100,54,3,

51,141,3,100,54,3,

51,140,3,100,53,3,

51,140,3,99,53,3,

51,139,3,99,53,3,

51,138,4,98,53,3,

50,138,3,98,52,3,

50,137,3,98,52,4,

50,137,3,97,51,3,

50,135,3,97,51,3,

49,135,3,96,51,3,

49,135,3,96,51,3,

49,134,3,96,51,3,

49,134,3,96,51,3,

48,133,3,95,50,3,

48,133,3,94,50,3,

48,132,3,94,50,3,

48,131,3,93,50,3,

48,131,3,93,49,3,

47,131,3,93,49,3,

47,130,3,92,49,3,

47,129,4,92,48,3,

47,129,4,92,49,3,

46,127,3,92,48,4,

47,127,3,91,48,3,

46,127,3,90,48,3,

46,127,3,90,48,4,

46,126,3,89,48,3,

45,125,3,89,47,3,

45,125,3,89,47,3,

45,124,3,89,46,4,

45,124,3,88,46,3,

44,123,3,88,46,4,

44,123,3,88,46,3,

44,122,3,87,46,3,

45,121,3,87,46,3,

45,121,3,86,46,3,

45,121,3,86,45,3,

44,120,3,86,45,3,

44,120,3,85,45,3,

44,120,3,85,45,3,

44,119,4,85,44,3,

43,118,3,84,44,3,

43,118,3,83,44,3,

43,117,3,83,44,3,

43,117,3,83,43,3,

43,116,4,83,43,3,

44,116,3,82,43,3,

45,115,3,82,43,4,

44,115,3,82,43,3,

44,114,3,81,43,3,

45,114,3,81,42,3,

44,113,3,80,42,3,

44,113,3,81,42,3,

43,113,3,79,42,3,

44,112,3,79,41,4,

44,112,3,79,42,3,

43,111,3,79,41,3,

43,111,3,79,41,3,

43,110,3,78,41,3,

43,109,3,78,41,3,

43,109,3,78,41,3,

43,109,3,77,39,3,

43,109,3,77,39,3,

43,108,3,77,39,3,

42,108,4,76,39,3,

42,107,3,76,39,4,

41,106,3,76,39,3,

41,106,3,75,39,3,

41,105,3,75,39,3,

41,105,3,75,39,3,

41,105,3,74,38,3,

41,103,3,75,39,3,

41,103,3,74,38,3,

41,103,3,73,38,3,

39,103,3,73,38,3,

39,103,3,73,38,3,

39,103,3,73,38,3,

39,102,4,71,37,3,

39,102,3,71,37,3,

39,101,3,71,37,3,

39,101,3,71,37,3,

39,100,3,71,37,3,

39,99,3,71,36,3,

39,99,3,71,36,3,

39,99,4,70,36,4,

38,99,3,70,36,3,

38,98,3,70,36,3,

38,98,3,69,36,4,

38,97,3,69,35,3,

38,97,3,69,37,3,

38,97,3,70,39,3,

38,96,3,70,39,4,

38,96,4,70,39,3,

37,96,3,69,39,3,

37,95,3,69,39,3,

37,95,4,68,39,4,

37,95,4,68,39,3,

37,94,3,68,38,3,

37,94,3,67,39,3,

37,93,3,67,38,3,

36,93,3,67,38,3,

36,93,4,67,38,3,

35,92,3,66,37,3,

36,92,3,66,37,3,

36,92,3,66,38,3,

35,91,4,66,37,3,

35,91,3,66,37,3,

35,91,3,65,37,3,

35,91,3,65,37,3,

35,89,3,65,37,3,

36,89,4,65,37,3,

37,89,3,64,36,3,

36,89,3,63,36,3,

35,88,3,63,35,3,

35,88,3,63,35,3,

35,88,4,63,35,3,

35,88,3,63,35,4,

35,88,3,63,35,3,

35,87,3,62,35,3,

35,87,4,62,35,3,

35,86,3,62,35,3,

35,86,3,62,35,3,

35,85,3,61,34,3,

34,86,3,61,34,4,

34,85,3,61,34,4,

34,84,3,61,34,3,

34,83,3,61,34,3,

34,83,3,60,34,3,

34,83,3,60,33,3,

33,83,3,60,33,3,

34,83,3,60,34,4,

33,82,3,60,34,3,

33,82,3,59,33,3,

33,82,3,59,33,3,

33,82,4,59,33,3,

33,81,3,59,33,3,

32,81,3,58,33,3,

33,81,4,58,33,3,

32,80,3,58,33,3,

32,79,3,57,32,3,

31,79,3,57,32,3,

31,79,4,57,32,4,

31,79,3,57,32,3,

31,79,3,57,31,3,

31,78,3,57,69,4,

31,78,3,103,71,3,

31,78,3,107,71,3,

31,78,3,106,70,3,

31,77,3,105,70,3,

33,77,3,105,70,3,

33,77,3,103,69,3,

33,77,3,103,69,3,

33,76,3,103,69,3,

32,76,3,103,68,3,

31,75,3,103,67,3,

32,75,4,102,67,3,

31,75,3,102,67,3,

31,75,3,101,67,3,

31,74,3,100,66,3,

31,74,3,100,66,3,

31,73,3,99,66,3,

31,73,3,99,65,3,

31,73,3,99,65,3,

31,71,3,98,65,3,

30,73,4,98,65,3,

31,71,3,97,64,3,

30,71,3,97,63,3,

30,71,4,97,63,3,

30,71,4,96,63,3,

30,71,3,96,63,3,

30,71,3,96,63,3,

30,71,4,95,62,3,

30,70,3,95,62,3,

30,70,3,94,62,3,

30,69,3,94,62,4,

30,69,3,94,61,3,

29,69,3,93,61,3,

29,69,3,93,61,3,

29,69,3,92,61,3,

29,69,4,92,60,3,

29,68,3,92,60,3,

29,68,3,91,60,3,

28,67,3,91,60,3,

28,67,3,90,60,3,

28,67,4,90,59,3,

28,67,3,89,59,3,

28,67,4,89,58,3,

28,66,3,89,58,4,

28,66,4,89,58,3,

28,66,3,88,57,3,

28,65,3,88,57,3,

28,65,3,88,57,3,

28,65,3,87,57,3,

27,65,4,87,57,3,

27,64,3,87,56,3,

27,64,3,86,56,3,

27,64,3,85,56,4,

27,63,3,86,56,3,

27,63,3,85,56,3,

27,63,3,85,56,3,

36,63,3,84,56,3,

42,63,3,84,55,3,

41,63,3,84,54,3,

41,62,3,83,55,3,

41,62,3,83,54,3,

41,62,3,82,54,3,

39,62,3,83,54,3,

39,62,4,82,53,3,

39,61,3,81,53,3,

39,61,3,81,53,3,

39,61,3,81,53,3,

39,61,3,81,52,3,

39,61,3,80,52,4,

39,60,3,79,52,3,

39,60,3,79,52,3,

39,60,3,79,51,3,

39,59,3,79,51,3,

38,59,3,79,51,3,

39,59,3,78,51,3,

38,59,4,78,51,3,

38,58,3,78,51,3,

38,58,3,77,50,3,

38,58,3,77,50,3,

37,57,3,77,50,3,

38,57,3,77,50,3,

37,57,3,76,49,3,

37,57,3,76,49,3,

37,57,3,76,49,4,

37,57,3,76,48,3,

36,57,3,75,48,3,

36,56,3,75,48,3,

36,56,3,75,48,3,

36,56,3,74,48,3,

35,56,4,73,96,3,

35,56,3,73,95,3,

35,55,3,73,94,3,

35,55,3,73,94,4,

35,55,3,73,93,3,

35,54,4,71,93,3,

35,54,3,71,92,3,

35,55,3,71,92,3,

34,54,4,71,92,3,

34,53,3,71,91,3,

34,53,3,71,91,3,

34,53,3,71,90,3,

34,53,3,70,89,3,

34,53,3,70,89,4,

33,52,3,70,89,3,

33,53,3,70,89,3,

33,52,3,69,88,3,

33,52,3,69,88,3,

33,52,3,68,88,3,

33,51,3,68,88,3,

33,51,3,68,87,3,

33,51,3,68,86,3,

32,51,3,67,86,3,

32,51,3,67,85,3,

32,51,3,67,85,3,

32,50,3,67,85,3,

31,50,3,67,84,4,

31,50,4,67,84,3,

31,50,3,66,83,3,

31,50,3,66,83,3,

31,50,3,66,83,3,

31,49,3,66,83,3,

31,49,3,65,82,3,

31,49,3,65,82,3,

30,49,3,65,81,3,

31,49,3,65,81,3,

31,48,3,64,81,3,

30,48,3,64,80,3,

30,48,3,63,79,3,

30,48,3,63,79,3,

30,48,3,63,79,3,

30,47,3,63,79,3,

30,47,3,63,79,3,

30,47,3,63,78,3,

31,47,4,63,79,3,

37,47,3,62,78,3,

37,46,3,62,77,3,

37,46,3,62,77,3,

36,46,3,61,77,3,

36,46,3,61,76,3,

36,46,3,61,76,3,

35,46,4,60,76,3,

35,46,3,60,76,3,

35,45,3,60,75,3,

35,45,3,60,75,3,

35,45,3,71,74,3,

35,45,3,71,74,4,

35,45,3,70,74,3,

35,45,4,70,74,3,

49,44,3,69,73,3,

48,44,4,70,73,3,

48,44,3,69,71,3,

48,44,3,69,71,4,

48,44,3,68,71,3,

48,44,3,68,71,3,

47,43,3,67,71,3,

47,43,3,67,71,3,

47,43,3,67,71,4,

46,43,3,67,71,4,

46,43,4,67,70,3,

46,42,3,66,70,3,

46,43,3,66,70,3,

46,42,3,65,70,3,

45,42,3,65,69,3,

45,42,3,65,69,3,

45,41,3,65,68,3,

45,41,3,64,67,3,

45,41,3,65,67,3,

44,41,3,63,67,3,

44,41,3,63,67,3,

44,41,3,63,67,3,

44,41,3,63,67,3,

44,39,3,63,66,3,

44,41,3,62,66,3,

43,39,3,62,66,3,

43,39,3,62,66,3,

43,39,3,62,65,3,

43,39,3,62,65,3,

42,39,3,61,65,3,

42,39,3,61,84,4,

42,39,4,61,83,4,

41,39,4,61,83,3,

41,39,3,60,82,3,

41,39,3,60,82,3,

41,39,3,60,82,3,

41,38,3,60,81,3,

41,38,3,60,81,3,

41,38,3,59,80,3,

41,38,3,59,80,3,

41,38,3,59,79,3,

39,38,3,58,79,3,

39,38,3,58,79,3,

39,38,3,58,78,3,

39,38,3,57,78,3,

39,37,3,57,78,3,

39,37,3,57,78,3,

39,37,3,57,77,3,

39,37,3,57,77,3,

39,37,3,57,77,3,

39,37,3,56,77,3,

38,36,3,56,76,3,

38,36,3,56,76,4,

38,36,3,56,76,3,

38,36,3,56,75,4,

38,35,3,82,75,3,

38,35,3,81,75,4,

37,35,3,81,74,3,

37,35,3,81,73,3,

37,35,3,80,73,3,

37,35,3,79,73,3,

37,35,3,79,73,4,

36,35,3,79,71,3,

36,35,3,78,71,3,

36,35,3,78,71,3,

41,35,3,78,71,3,

41,34,3,78,71,3,

41,34,3,77,71,3,

41,34,3,77,71,3,

41,34,3,77,70,3,

41,34,3,76,70,3,

39,34,3,76,70,3,

40,34,3,77,70,3,

39,34,3,99,69,3,

39,34,4,97,69,3,

39,33,3,97,68,3,

39,33,3,96,68,3,

39,33,3,96,68,3,

42,33,3,96,67,3,

41,33,3,95,67,3,

41,33,4,95,67,3,

41,32,3,94,67,3,

41,32,3,94,66,3,

41,32,3,93,66,3,

39,31,3,93,66,3,

39,32,3,93,65,3,

39,31,3,92,65,3,

39,31,3,92,65,3,

39,31,3,91,64,3,

39,31,3,91,65,3,

39,31,3,90,64,3,

39,31,3,90,63,3,

39,31,3,89,63,3,

39,31,3,89,63,3,

39,31,3,89,63,3,

38,31,3,89,63,3,

38,31,3,89,63,3,

38,30,3,88,62,3,

38,30,3,88,62,3,

38,30,3,87,62,3,

38,30,3,87,61,3,

37,30,3,86,61,3,

37,30,3,86,61,3,

38,30,3,86,61,4,

43,30,3,86,61,3,

43,30,3,85,61,3,

42,30,3,85,60,3,

42,29,3,85,60,3,

42,29,3,84,60,3,

41,29,3,83,60,3,

41,29,3,83,59,3,

41,29,3,83,58,3,

41,29,3,83,59,4,

41,29,3,82,58,3,

41,29,4,82,58,3,

41,28,4,82,58,3,

39,28,3,81,57,3,

39,28,3,80,57,3,

39,28,3,80,57,3,

39,28,3,79,57,3,

39,28,3,79,66,3,

39,28,3,79,65,3,

39,28,3,79,65,3,

39,28,3,79,77,3,

39,28,3,79,77,3,

39,28,3,78,76,3,

38,27,3,78,76,3,

38,27,3,78,76,3,

38,27,4,77,75,3,

38,27,3,77,75,4,

57,27,3,77,74,3,

57,27,3,76,74,3,

56,27,3,76,73,3,

56,27,3,76,73,3,

56,26,3,76,73,3,

56,26,3,75,73,3,

56,26,3,75,72,3,

55,27,3,75,71,3,

55,26,3,74,71,3,

55,26,3,73,71,3,

54,26,3,73,71,3,

54,25,3,73,71,3,

54,26,3,73,71,3,

53,25,3,73,70,3,

53,25,3,73,70,3,

53,25,3,71,70,3,

53,25,3,71,69,3,

53,25,3,71,69,3,

52,25,3,71,68,3,

52,25,3,71,68,3,

52,25,3,71,68,3,

51,24,3,70,67,3,

51,25,3,70,67,3,

51,25,4,70,67,3,

51,25,3,70,67,4,

51,25,3,69,66,3,

50,25,3,69,66,3,

52,24,3,69,66,3,

51,24,3,69,66,4,

52,24,4,68,65,3,

51,24,3,68,65,3,

51,24,3,67,65,3,

51,24,3,67,64,4,

51,24,3,67,64,3,

51,24,3,71,63,3,

51,24,3,71,63,3,

50,23,3,71,63,3,

50,23,3,70,63,3,

50,24,3,70,63,3,

49,23,3,70,62,3,

50,23,3,69,62,3,

50,24,3,69,62,3,

50,23,3,69,62,3,

49,23,4,69,62,4,

49,23,3,68,61,3,

49,23,3,68,61,3,

49,22,3,68,61,4,

48,23,3,67,60,3,

48,22,3,67,60,3,

48,22,3,67,60,3,

48,22,3,66,60,3,

48,22,3,67,60,3,

48,22,4,66,60,3,

48,22,3,66,59,3,

47,22,4,66,59,3,

47,21,3,65,58,3,

47,22,3,65,58,3,

46,21,4,65,58,3,

47,22,3,64,58,3,

46,21,3,64,57,3,

46,21,3,63,57,4,

46,21,3,63,57,3,

46,21,3,63,57,3,

45,21,3,63,56,3,

45,21,3,63,56,3,

45,21,3,63,56,3,

45,20,3,62,56,4,

45,21,3,62,56,3,

45,20,3,62,56,3,

45,20,3,62,55,3,

45,20,3,61,55,3,

44,20,3,61,55,3,

44,20,3,61,54,3,

44,20,3,61,55,3,

44,20,3,60,54,3,

43,20,3,60,54,3,

43,20,3,60,54,3,

43,19,3,60,53,4,

43,20,3,60,53,3,

43,20,3,59,53,3,

43,19,4,59,53,4,

43,19,3,59,52,3,

43,19,4,59,52,3,

42,19,3,58,52,4,

42,19,3,58,52,4,

42,19,3,57,51,3,

42,19,3,57,51,3,

41,19,3,57,51,3,

41,19,3,57,51,3,

41,19,3,57,51,3,

41,19,4,57,50,3,

41,19,3,57,50,3,

41,18,3,56,50,3,

41,19,3,56,50,3,

39,18,3,56,49,3,

39,18,3,56,49,3,

39,18,3,56,49,3,

39,18,3,58,49,3,

39,18,3,93,49,3,

39,18,3,92,49,3,

39,19,3,92,48,3,

39,19,3,91,48,3,

39,18,3,91,48,3,

39,18,3,90,48,3,

38,18,3,90,48,3,

47,18,3,90,47,3,

47,18,3,89,47,3,

47,18,4,89,47,3,

47,18,3,88,47,3,

46,18,3,88,46,3,

46,18,3,88,46,4,

46,18,3,88,47,3,

46,18,3,87,46,3,

45,17,3,87,46,3,

45,17,3,86,46,3,

45,17,3,86,46,4,

45,17,3,85,46,3,

45,17,3,85,45,3,

53,17,3,85,45,3,

53,17,3,84,45,3,

52,17,3,84,45,3,

52,17,3,83,45,4,

51,17,3,83,44,3,

51,16,3,83,45,3,

51,17,3,83,44,3,

51,16,3,82,44,3,

51,16,3,82,44,3,

51,16,3,82,44,3,

50,16,3,81,44,3,

50,16,3,81,44,3,

50,16,4,81,43,3,

49,16,3,79,43,4,

49,16,3,79,43,3,

49,16,3,79,43,3,

49,16,3,79,43,3,

48,16,3,79,42,3,

48,15,3,78,42,3,

48,16,3,78,42,3,

48,16,3,78,42,3,

48,15,3,77,41,3,

48,15,3,77,41,3,

47,15,3,77,41,3,

48,15,3,77,41,3,

47,15,3,77,41,3,

47,15,3,76,41,3,

46,15,3,76,39,4,

46,15,3,76,39,3,

46,15,4,76,39,3,

46,15,3,75,39,3,

46,15,3,75,39,3,

45,15,3,74,39,3,

45,15,3,74,39,3,

45,15,3,73,39,3,

45,15,3,73,39,3,

45,15,3,73,39,3,

45,15,3,73,39,3,

44,14,3,72,39,3,

53,15,3,71,38,3,

53,14,3,71,39,3,

52,14,3,71,38,3,

51,14,3,71,38,3,

52,14,4,71,38,3,

51,14,3,71,38,3,

51,14,3,71,38,3,

51,14,3,70,37,3,

51,14,3,70,37,3,

50,14,3,70,37,3,

50,14,3,69,37,3,

50,14,3,69,36,3,

50,14,3,68,36,3,

49,14,3,68,36,3,

50,14,3,68,36,3,

49,14,3,68,36,3,

49,14,3,67,35,3,

49,13,3,67,36,4,

49,14,3,67,35,3,

48,13,3,67,35,3,

48,14,3,67,35,3,

48,13,3,66,35,3,

48,14,3,66,35,3,

48,13,3,66,35,3,

47,13,3,66,35,3,

47,13,3,65,35,3,

50,13,3,65,35,3,

50,13,3,65,34,3,

50,13,3,64,34,3,

50,13,3,64,34,3,

49,13,3,63,34,3,

49,13,3,63,34,3,

49,13,3,63,34,3,

48,13,4,63,33,3,

48,13,3,63,33,3,

48,12,3,62,33,3,

48,13,3,62,33,3,

48,13,3,62,33,3,

47,12,3,62,32,3,

48,12,3,62,33,3,

47,13,3,61,32,3,

47,12,3,61,32,3,

47,12,3,61,31,3,

47,12,3,60,32,3,

46,12,3,60,31,3,

46,12,3,60,31,3,

46,12,3,60,31,3,

46,12,3,60,31,3,

45,12,3,59,31,3,

45,12,3,59,31,3,

45,12,3,59,31,3,

45,12,3,59,31,3,

53,12,3,59,31,3,

53,12,3,58,30,3,

53,12,3,58,30,3,

53,11,3,57,30,3,

52,11,3,57,30,3,

52,11,4,57,30,3,

51,11,3,57,30,3,

51,11,3,57,33,3,

51,11,4,56,33,3,

51,12,3,57,33,3,

51,11,3,56,33,3,

50,11,3,56,33,3,

50,11,3,56,32,3,

50,11,3,55,32,3,

54,11,3,56,32,3,

54,11,3,55,31,4,

54,11,3,55,31,3,

53,11,3,55,31,3,

53,11,3,54,31,4,

53,11,3,54,31,3,

53,11,3,54,31,3,

52,11,3,54,31,3,

52,11,3,54,31,3,

52,11,3,53,31,3,

52,11,3,53,31,3,

51,10,3,53,31,3,

51,10,3,53,30,3,

52,11,3,52,30,4,

51,11,3,52,30,3,

51,10,3,52,30,3,

51,11,3,51,30,3,

51,10,3,51,30,3,

51,11,3,51,30,3,

50,10,3,51,30,3,

50,10,3,51,29,3,

50,10,3,51,29,3,

50,10,4,51,29,3,

50,10,3,50,29,3,

50,10,3,50,29,3,

53,10,3,50,29,3,

53,10,3,50,29,3,

52,10,3,49,29,3,

52,10,3,49,28,3,

52,9,3,49,28,3,

51,9,3,49,28,3,

51,9,3,49,28,3,

51,9,3,48,28,3,

51,10,3,48,28,4,

51,10,3,48,28,3,

51,9,3,48,28,3,

50,9,3,48,27,3,

50,9,3,48,28,3,

50,9,3,47,27,3,

50,9,3,48,27,3,

49,9,3,47,27,3,

49,9,3,47,27,3,

49,9,3,47,27,3,

49,9,3,47,27,3,

49,9,3,46,27,3,

48,9,3,46,27,3,

48,9,3,46,27,3,

48,9,3,46,27,3,

48,9,3,46,26,3,

48,9,4,46,27,3,

48,9,3,46,26,3,

47,9,3,45,26,3,

47,9,3,45,26,3,

46,9,3,45,25,3,

47,9,3,45,25,3,

46,9,3,45,26,3,

46,8,3,44,25,3,

46,9,3,44,25,3,

46,9,3,44,25,3,

45,7,3,44,25,3,

45,9,3,44,25,3,

45,9,3,44,25,3,

45,8,3,43,25,3,

45,7,3,43,25,3,

44,8,3,43,25,3,

44,7,3,43,25,3,

44,7,3,43,24,3,

44,7,3,43,24,3,

44,8,3,43,24,3,

44,7,3,42,24,3,

44,7,3,42,24,3,

43,8,3,42,24,3,

43,7,3,42,24,3,

43,7,3,41,24,3,

43,7,3,41,24,3,

43,7,3,70,24,3,

42,7,3,69,24,3,

42,7,3,68,23,3,

42,7,3,68,24,3,

43,7,3,68,24,3,

42,7,3,67,24,3,

42,7,3,67,23,3,

42,7,3,67,24,3,

42,7,3,66,24,3,

41,7,3,66,23,3,

41,7,3,66,23,3,

41,7,4,65,23,3,

41,7,3,65,24,3,

41,7,3,65,23,3,

41,7,3,65,24,3,

41,7,3,65,24,3,

41,7,3,64,23,3,

39,7,3,64,23,3,

39,7,3,63,23,3,

39,7,3,63,23,3,

39,7,3,63,22,3,

39,7,3,63,23,3,

39,7,3,62,23,3,

39,7,3,62,22,3,

39,7,3,62,22,3,

39,7,3,62,22,3,

39,7,3,62,22,4,

39,7,4,61,22,3,

39,7,3,61,22,3,

38,14,3,61,22,3,

38,13,3,61,22,3,

38,13,3,60,22,3,

38,14,3,60,21,3,

56,13,3,60,21,3,

55,13,3,60,21,3,

55,13,3,59,21,3,

54,13,3,59,21,3,

54,13,3,59,21,3,

53,13,3,58,21,3,

54,13,3,59,21,3,

53,12,3,58,21,3,

53,12,3,58,21,3,

52,13,3,58,21,3,

52,12,3,57,21,3,

51,13,3,57,21,3,

52,12,3,57,20,3,

51,12,3,56,21,3,

51,12,3,56,20,3,

51,12,3,56,21,3,

51,12,3,56,20,3,

51,12,3,56,20,3,

50,12,3,55,20,4,

50,12,3,56,20,3,

50,12,3,56,37,4,

50,12,3,55,67,3,

49,12,3,54,66,3,

49,12,3,54,66,3,

49,12,3,54,65,3,

49,12,3,54,65,3,

49,12,3,54,64,3,

48,12,3,54,64,3,

48,12,3,53,63,3,

48,11,3,53,63,3,

48,11,3,52,63,3,

48,11,3,52,63,3,

47,11,3,51,63,3,

47,11,3,51,62,3,

47,11,3,51,62,3,

46,11,3,51,62,3,

47,11,3,51,62,3,

46,11,3,51,61,3,

46,11,3,51,61,3,

49,11,3,51,61,3,

49,11,3,50,60,3,

49,11,3,50,60,3,

48,11,3,50,60,3,

48,10,3,49,60,3,

48,10,3,49,59,3,

48,11,3,49,59,3,

48,10,3,49,59,3,

47,10,3,49,59,3,

48,10,3,48,58,3,

47,10,3,48,58,3,

47,10,3,48,58,3,

46,10,3,48,57,3,

46,10,3,48,57,3,

46,9,3,48,57,3,

46,10,3,48,57,3,

46,10,3,47,57,4,

46,9,3,47,56,3,

46,10,3,47,56,3,

45,10,3,47,56,3,

45,10,3,47,56,3,

45,10,3,46,56,3,

45,10,3,46,55,3,

45,9,4,46,55,3,

44,10,3,46,55,3,

44,10,3,46,54,3,

51,10,3,46,54,3,

51,9,3,45,54,3,

51,10,3,45,54,3,

51,9,3,45,53,3,

50,9,3,45,53,3,

50,9,3,45,53,3,

50,9,3,45,53,3,

50,9,3,44,52,4,

50,9,3,44,52,3,

50,9,3,44,52,3,

49,9,3,44,52,3,

49,9,3,44,51,4,

49,9,3,49,51,3,

49,9,3,49,51,3,

49,9,3,49,51,3,

48,9,3,49,51,3,

48,9,3,48,51,3,

48,9,3,48,50,3,

48,9,3,48,50,3,

47,9,3,47,49,3,

47,7,3,47,50,3,

47,8,3,47,49,3,

47,8,3,47,50,3,

46,8,3,47,49,3,

46,8,3,47,49,3,

46,8,3,46,49,3,

46,8,3,46,48,3,

46,9,3,46,48,3,

47,8,3,46,48,3,

46,8,3,46,48,3,

46,7,3,46,48,3,

46,7,3,45,47,3,

46,7,3,45,47,3,

45,8,3,45,47,3,

45,7,3,44,47,3,

45,7,3,45,46,3,

45,7,3,45,46,3,

45,7,3,44,46,3,

44,7,3,44,46,3,

44,7,3,44,46,3,

44,7,3,44,46,3,

44,7,3,43,46,4,

44,7,3,43,45,3,

43,7,3,43,45,3,

44,7,3,43,45,3,

43,7,3,43,45,3,

43,7,3,42,44,3,

43,7,3,43,64,3,

43,7,3,42,85,3,

42,7,3,42,84,3,

42,7,3,42,84,3,

42,7,3,41,83,3,

42,7,3,41,83,3,

42,7,3,41,83,3,

41,7,3,41,82,3,

41,7,3,41,82,3,

41,7,3,41,82,3,

41,7,3,41,81,3,

41,7,3,39,81,3,

41,7,3,41,81,3,

41,7,3,39,79,3,

39,7,3,39,79,3,

41,7,3,39,79,3,

39,7,3,39,79,3,

39,7,3,39,79,3,

39,7,3,41,78,3,

39,7,4,41,78,3,

39,7,3,41,78,3,

39,7,3,41,78,3,

39,7,3,41,77,3,

39,7,3,41,77,3,

39,7,3,41,77,3,

39,7,3,39,76,3,

39,7,3,39,76,3,

39,7,3,39,76,3,

39,7,3,39,75,3,

39,7,3,39,75,3,

39,7,3,39,75,3,

39,7,3,39,75,3,

38,10,3,39,74,3,

39,10,3,39,73,3,

38,10,3,39,74,3,

38,10,3,39,73,3,

43,10,3,38,73,3,

43,10,3,39,73,3,

43,10,3,38,71,3,

43,10,3,38,71,3,

42,9,3,38,71,3,

41,10,3,38,71,3,

41,9,3,38,71,3,

41,10,3,38,71,3,

41,10,3,37,71,3,

41,9,3,37,70,3,

41,9,3,37,70,3,

41,9,3,37,70,4,

41,9,3,37,70,3,

40,9,3,37,69,3,

39,9,3,37,69,3,

39,9,3,36,68,3,

39,9,3,36,68,3,

39,9,3,36,67,3,

39,9,3,36,67,3,

39,9,3,35,67,3,

39,9,3,41,67,3,

39,9,3,55,67,3,

39,9,3,55,66,3,

39,9,3,55,66,3,

39,9,3,54,66,3,

39,9,3,54,65,3,

38,9,3,54,65,3,

38,9,3,54,65,3,

38,8,3,53,65,3,

38,9,3,53,65,3,

38,8,3,53,64,3,

38,8,3,53,63,3,

37,9,3,52,63,3,

37,9,3,51,63,3,

37,9,3,52,63,3,

37,7,3,51,63,3,

37,22,3,51,63,3,

37,22,3,51,63,3,

37,22,3,51,62,3,

36,21,3,51,62,3,

36,21,3,50,62,3,

36,21,3,50,62,3,

37,21,3,50,61,3,

37,21,3,50,61,3,

36,21,3,50,60,3,

36,20,3,49,60,3,

36,20,3,49,60,3,

35,20,3,49,60,3,

35,20,3,49,60,3,

35,19,3,48,59,3,

35,20,3,48,59,3,

35,20,3,48,59,3,

35,19,3,48,58,3,

35,19,3,47,58,3,

36,19,3,48,58,3,

35,20,3,47,58,3,

35,19,3,47,57,3,

35,19,3,46,57,3,

35,19,4,47,66,3,

35,19,3,46,66,3,

34,19,3,46,65,3,

34,19,3,46,65,3,

34,19,3,52,66,3,

34,18,3,56,65,3,

34,19,3,55,64,3,

33,18,3,55,65,3,

34,18,3,54,64,3,

35,18,3,54,63,3,

35,18,3,54,63,3,

