
67,79,0,395,298,66,

67,78,0,393,295,66,

67,78,0,390,295,65,

67,78,0,388,293,65,

66,77,0,385,291,62,

66,77,0,384,309,63,

65,76,0,433,323,63,

65,76,0,429,321,62,

65,76,0,427,319,61,

64,76,0,423,318,63,

63,75,0,421,315,60,

63,89,0,418,313,61,

63,88,0,415,312,62,

63,88,0,412,310,62,

63,88,0,409,308,61,

62,87,0,408,306,61,

62,86,0,404,304,60,

61,86,0,405,323,60,

61,85,0,403,319,61,

61,85,0,399,319,60,

61,84,0,398,316,60,

60,84,0,395,315,60,

60,83,0,393,313,57,

60,83,0,390,311,57,

59,83,0,387,309,56,

59,82,0,385,307,55,

59,82,0,384,306,57,

59,81,0,381,304,55,

58,81,0,436,304,56,

57,81,0,440,302,57,

57,80,0,436,300,54,

57,79,0,433,299,56,

57,79,0,431,295,53,

56,79,0,428,295,54,

62,79,0,23,293,57,

61,78,0,422,291,60,

61,78,0,419,290,60,

61,77,0,417,287,60,

60,77,0,414,287,60,

60,77,0,414,286,60,

60,76,0,422,284,59,

59,76,0,418,283,56,

59,76,0,415,281,55,

59,75,0,413,280,56,

58,75,0,411,278,55,

58,74,0,408,277,55,

57,74,0,405,275,57,

57,73,0,403,274,54,

57,73,0,399,272,56,

57,73,0,398,271,53,

56,73,0,395,278,56,

56,71,0,393,279,53,

6,71,0,391,277,55,

56,71,0,387,275,52,

55,71,0,386,273,55,

55,71,0,384,271,55,

56,73,0,381,271,56,

55,73,0,379,269,54,

54,72,0,376,268,54,

54,71,0,375,266,53,

54,71,0,371,265,50,

54,71,0,370,291,52,

54,71,0,471,316,51,

53,71,0,466,313,50,

53,70,0,463,312,50,

53,70,0,60,310,53,

52,69,0,457,307,52,

52,73,0,454,306,1,

54,73,0,451,304,50,

54,73,0,448,302,53,

53,73,0,444,300,49,

53,71,0,442,299,51,

53,71,0,439,297,49,

52,71,0,436,295,52,

52,71,0,433,294,51,

51,71,0,430,292,49,

51,70,0,428,291,51,

51,70,0,425,289,48,

51,79,0,423,287,50,

64,83,0,419,286,66,

81,82,0,417,284,71,

79,82,0,415,283,74,

79,81,0,412,281,73,

79,80,0,409,280,71,

78,80,0,417,315,76,

78,79,0,435,312,73,

78,79,0,433,310,75,

77,79,0,430,308,73,

76,79,0,428,306,73,

76,78,0,423,304,71,

76,80,0,422,303,73,

75,79,0,419,301,70,

75,79,0,415,299,70,

75,79,0,414,297,71,

74,78,0,411,295,69,

73,78,0,410,312,71,

73,77,0,419,310,70,

73,77,0,415,307,67,

71,77,0,413,305,67,

71,76,0,410,304,67,

71,76,0,408,302,66,

71,76,0,405,301,66,

71,75,0,402,299,67,

70,75,0,399,297,69,

70,74,0,398,295,65,

70,74,0,396,293,67,

69,73,0,395,312,67

69,73,0,463,327,67,

69,73,0,459,326,63,

68,71,0,455,324,63,

68,71,0,452,322,63,

67,71,0,449,319,63,

67,73,0,446,318,64,

67,73,0,443,316,65,

67,73,0,440,315,62,

66,71,0,437,312,63,

66,71,0,434,311,61,

65,71,0,432,318,64,

65,71,0,429,333,60,

65,71,0,425,331,61,

64,70,0,423,327,61,

63,70,0,419,326,62,

63,70,0,418,324,62,

63,77,0,415,323,62,

63,78,0,413,319,62,

6,77,0,410,318,59,

62,77,0,408,317,59,

62,76,0405,315,59,

62,76,0,402,313,58,

61,75,0,417,312,57,

61,75,0,413,310,61,

61,74,0,410,309,57,

60,74,0,408,307,60,

60,73,0,405,305,57,

60,74,0,403,303,56,

60,75,0,399,302,56,

59,75,0,397,300,58,

59,74,0,395,298,55,

58,74,0,393,295,54,

58,73,0,391,295,54,

58,73,0,388,295,54,

57,71,0,386,292,57,

57,71,0,384,291,54,

57,71,0,381,290,56,

57,71,0,380,287,54,

56,71,0,377,286,53,

56,70,0,376,285,52,

56,70,0,372,284,56,

56,69,0,370,281,51,

56,69,0,369,280,52,

55,69,0,366,279,51,

55,69,0,374,284,55,

55,68,0,389,283,51,

54,67,0,386,281,50,

54,67,0,384,280,51,

53,67,0,381,278,50,

53,67,0,379,276,50,

53,66,0,376,275,50,

53,66,0,375,273,50,

52,65,0,371,271,49,

52,65,0,369,271,52,

51,65,0,368,269,52,

51,64,0,365,280,52,

51,64,0,382,284,48,

51,63,0,379,283,50,

51,63,0,376,281,47,

50,63,0,374,279,47,

50,63,0,371,278,48,

50,67,0,370,275,48,

50,67,0,367,275,47,

49,67,0,365,273,47,

49,67,0,363,271,47,

49,66,0,359,270,49,

48,65,0,359,286,47,

48,65,0,457,318,46,

48,65,0,454,316,46,

48,64,0,450,313,45,

48,64,0,446,312,48,

47,63,0,444,310,45,

47,63,0,440,307,48,

47,63,0,438,306,45,

47,63,0,435,304,45,

46,63,0,432,303,46,

46,62,0,429,301,46,

46,62,0,425,299,43,

46,62,0,423,302,43,

46,62,0,421,300,43,

45,61,0,418,299,43,

45,61,0,415,295,43,

45,61,0,413,295,43,

44,78,0,411,293,42,

45,81,0,408,291,44,

44,81,0,40,290,42,

44,80,,403,287,42,

44,79,0,399,287,44,

44,79,0,398,285,44,

44,79,0,396,284,44,

44,78,0,396,282,44,

43,78,0,393,281,42,

43,77,0,391,280,44,

43,77,0,389,278,44,

43,77,0,386,277,42,

42,76,0,384,275,43,

42,76,0,381,273,39,

41,76,0,380,271,39,

41,75,0,377,270,39,

41,75,0,375,269,42,

41,74,0,384,295,40,

41,74,0,444,293,41,

41,73,0,441,291,38,

40,73,0,438,289,39,

39,73,0,435,287,39,

39,71,0,432,286,40,

39,79,0,429,284,39,

39,78,0,427,282,39,

39,78,0,423,281,38,

39,78,0,421,280,39,

39,77,0,419,278,39,

39,77,0,415,280,39,

39,76,0,413,281,39,

38,76,0,410,280,39,

38,75,0,408,279,37,

38,75,0,405,276,36,

38,75,0,403,275,35,

39,79,0,400,273,36,

41,79,0,398,271,39,

39,78,0,396,270,38,

39,78,0,393,269,38,

39,78,0,390,268,39,

39,77,0,388,268,39,

39,77,0,398,294,39,

39,76,0,396,291,39,

39,76,0,393,290,36,

38,76,0,390,287,36,

39,75,0,388,286,39,

39,84,0,386,285,41,

43,86,0,384,283,43,

43,86,0,381,281,44,

43,85,0,379,280,44,

43,84,0,377,278,43,

43,83,0,374,277,39,

42,83,0,375,276,39,

42,83,0,379,275,39,

41,83,0,376,273,39,

41,82,0,374,271,39,

41,81,0,371,270,42,

41,95,0,370,269,42,

41,95,0,367,268,41,

40,94,0,366,266,40,

39,94,0,363,265,39,

39,93,0,361,263,38,

39,92,0,359,262,39,

39,92,0,370,278,37,

39,91,0,369,276,39,

39,91,0,366,275,41,

39,90,0,364,273,41,

39,89,0,361,271,39,

38,89,0,359,270,39,

39,92,0,357,268,39,

38,92,0,355,267,35,

38,91,0,353,265,36,

38,91,0,351,263,36,

37,90,0,348,262,35,

37,90,0,348,287,39,

37,89,0,355,285,39,

37,89,0,353,283,35,

37,88,0,351,282,37,

36,88,0,348,280,37,

36,88,0,346,278,37,

36,87,0,344,277,33,

36,86,0,343,275,36,

35,86,0,340,273,34,

35,85,0,339,271,37,

35,85,0,337,270,35,

35,84,0,335,280,39,

35,83,0,376,309,36,

35,83,0,372,307,32,

35,83,0,370,305,35,

34,82,0,368,304,35,

34,82,0,365,301,31,

34,81,0,363,300,31,

34,81,0,359,298,32,

34,81,0,359,295,35,

34,80,0,356,295,34,

34,79,0,353,293,35,

33,79,0,352,291,34,

33,79,0,391,312,34,

33,79,0,389,310,33,

33,78,0,385,308,31,

32,78,0,384,306,33,

32,77,0,381,30430,

33,78,0,378,303,38,

46,78,0,376,300,44,

46,78,0,373,299,43,

46,77,0,371,297,45,

45,77,0,369,295,45,

45,76,0,366,294,41,

45,76,0,398,292,41,

45,76,0,395,291,41,

44,75,0,393,289,44,

44,75,0,390,287,41,

44,74,0,387,286,44,

43,74,0,385,284,44,

43,73,0,382,283,40,

43,73,0,380,281,43,

43,73,0,377,280,39,

42,73,0,376,278,42,

42,71,0,373,276,39,

42,71,0,371,284,42,

41,71,0,369,281,39,

41,71,0,367,280,39,

41,71,0,365,278,41,

41,70,0,362,277,42,

41,70,0,359,275,38,

41,70,0,359,274,39,

41,70,0,355,272,38,

39,70,0,354,271,39,

39,69,0,352,269,38,

39,69,0,350,268,38,

39,69,0,348,273,38,

39,68,0,348,271,37

39,67,0,345,269,39,

39,67,0,344,268,37,

39,67,0,342,266,39,

38,67,0,340,265,36,

39,79,0,338,263,37,

39,79,0,335,262,37,

39,79,0,334,261,37,

39,78,0,332,259,36,

39,78,0,331,258,39,

39,77,0,329,267,38,

39,77,0,363,290,38,

38,76,0,359,287,37,

38,76,0,358,286,36,

38,76,0,355,285,36,

38,75,0,353,283,35,

58,78,0,352,281,51,

69,77,0,349,280,60,

68,77,0,347,278,62,

68,77,0,345,277,63,

67,76,0,344,275,66,

67,76,0,341,273,63,

67,75,0,368,301,66,

66,75,0,365,299,62,

66,74,0,363,297,62,

65,73,0,359,295,61,

65,73,0,358,293,63,

65,74,0,355,291,60,

64,80,0,354,289,63,

64,79,0,351,287,60,

63,79,0,349,286,63,

63,78,0,347,285,59,

63,78,0,345,284,59,

63,78,0,365,283,59,

62,77,0,370,281,58,

62,77,0,368,280,59,

62,76,0,365,278,58,

61,76,0,363,276,58,

61,76,0,361,275,57,

61,75,0,358,273,60,

60,75,0,356,271,60,

60,74,0,354,270,59,

60,73,0,352,269,58,

59,73,0,350,268,58,

59,73,0,348,289,55,

58,72,0,359,286,55,

58,71,0,355,285,56,

58,71,0,354,283,56,

58,71,0,352,281,54,

57,76,0,350,280,55,

57,85,0,348,278,55,

56,85,0,345,277,54,

56,84,0,344,27553,

56,83,0,341,274,52,

56,83,0,339,271,53,

56,83,0,348,307,54,

55,82,0,451,305,56,

55,81,0,449,302,56,

55,81,0,445,301,55,

54,80,0,443,299,54,

54,79,0,440,297,51,

53,82,0,435,295,52,

53,81,0,433,294,50,

53,81,0,430,292,49,

53,80,0,428,290,49,

52,79,0,425,289,49,

52,79,0,423,287,50,

51,79,0,419,297,50,

51,78,0,417,295,49,

51,78,0,414,294,48,

51,78,0,412,292,50,

50,77,0,409,291,47,

51,77,0,407,289,48,

50,77,0,403,287,50,

50,76,0,401,285,50,

49,76,0,399,284,50,

49,75,0,397,282,47,

49,75,0,394,281,47,

48,75,0,391,280,46,

48,74,0,390,278,48,

48,74,0,387,277,48,

48,73,0,385,275,48,

48,73,0,382,274,45,

47,73,0,381,272,46,

54,71,0,378,271,50,

54,71,0,376,269,54,

54,71,0,374,268,50,

54,71,0,371,266,53,

53,71,0,369,265,50,

53,70,0,382,287,51,

53,70,0,379,286,52,

52,70,0,376,284,51,

52,69,0,374,283,51,

51,69,0,371,281,51,

51,73,0,369,280,50,

58,96,0,367,278,56,

57,95,0,365,275,57,

58,94,0,363,275,56,

57,94,0,361,273,56,

57,93,0,359,271,56,

56,93,0,363,310,56,

56,92,0,433,307,54,

56,92,0,429,305,55,

56,91,0,427,304,52,

55,91,0,423,302,54,

55,90,0,421,300,51,

54,89,0,418,299,52,

57,89,0,415,295,56,

56,89,0,413,295,53,

56,88,0,410,293,55,

56,88,0,408,291,54,

56,87,0,405,290,51,

55,87,0,402,287,51,

55,86,0,399,287,54,

55,86,0,397,285,54,

54,85,0,395,283,54,

54,85,0,391,282,55,

54,157,0,390,280,53,

53,156,0,387,279,52,

53,154,0,385,277,50,

52,153,0,382,275,49,

52,152,0,380,274,51,

51,152,0,378,273,49,

51,150,0,376,271,51,

51,150,0,373,270,51,

51,149,0,371,268,51,

51,147,0,369,267,48,

50,147,0,366,265,53,

69,146,0,364,263,61,

69,145,0,361,263,63,

69,144,0,359,261,66,

68,143,0,358,259,63,

68,143,0,355,258,66,

67,142,0,362,273,64,

67,141,0,373,271,65,

66,140,0,371,269,65,

66,140,0,368,267,65,

65,139,0,366,266,63,

65,138,0,364,263,62,

65,137,0,361,263,62,

64,137,0,359,261,60,

63,135,0,356,259,60,

63,135,0,354,258,63,

63,135,0,352,256,60,

63,134,0,388,295,63,

63,133,0,388,295,62,

62,132,0,385,293,61,

62,131,0,384,291,59,

61,131,0,380,289,63,

113,130,0,377,287,93,

113,129,0,375,285,103,

112,128,0,372,283,103,

111,127,0,370,281,103,

110,127,0,367,280,99,

110,127,0,365,299,100,

109,126,0,363,297,99,

108,125,0,359,295,101,

107,125,0,358,293,97,

107,124,0,355,291,101,

106,123,0,353,289,97,

105,122,0,351,287,96,

105,121,0,348,285,97,

103,121,0,347,284,97,

103,120,0,344,282,97,

103,120,0,349,289,94,

102,119,0,348,287,96,

102,118,0,345,286,93,

101,118,0,343,284,93,

100,117,0,341,282,93,

100,116,0,339,280,95,

99,115,0,337,279,94,

99,115,0,335,277,94,

98,115,0,333,275,89,

98,114,0,331,274,88,

97,113,0,329,272,88,

97,112,0,327,300,87,

96,112,0,326,298,86,

96,112,0,324,297,87,

95,111,0,322,295,88,

94,110,0,319,293,87,

94,123,0,318,291,88,

93,122,0,317,289,88,

93,121,0,315,287,85,

92,120,0,313,286,85,

92,120,0,312,284,83,

92,120,0,321,287,84,

91,119,0,346,287,87,

90,118,0,344,285,83,

90,117,0,342,283,86,

89,116,0,339,282,85,

89,115,0,337,280,82,

89,115,0,335,278,82,

88,115,0,333,276,79,

88,14,0,331,275,79,

87,113,0,327,273,79,

87,113,0,327,271,83,

87,112,0,340,287,82,

86,112,0,339,286,81,

85,111,0,336,284,81,

85,110,0,335,281,80,

84,109,0,332,280,78,

84,109,0,330,279,78,

83,109,0,327,277,77,

83,108,0,326,275,77,

83,107,0,324,273,79,

82,107,0,322,271,78,

82,106,0,319,270,75,

81,106,0,318,270,76,

81,105,0,316,268,74,

80,105,0,315,266,74,

79,103,0,312,264,75,

79,103,0,311,263,74,

79,103,0,309,262,76,

79,103,0,307,260,76,

78,102,0,306,259,71,

78,101,0,304,257,74,

78,101,0,303,255,71,

77,100,0,302,298,74,

77,100,0,415,295,73,

76,99,0,413,294,71,

76,99,0,409,291,71,

76,98,0,407,291,71,

75,98,0,404,288,70,

75,98,0,401,287,73,

75,97,0,399,285,69,

74,96,0,396,284,70,

73,96,0,393,282,71,

73,95,0,391,280,71,

73,95,0,388,280,71,

71,95,0,387,277,70,

71,94,0,384,276,67,

71,94,0,381,274,70,

71,93,0,379,273,70,

71,93,0,377,271,69,

71,92,0,375,270,69,

70,92,0,372,269,68,

70,91,0,370,267,65,

70,91,0,368,265,65,

69,91,0,365,263,67,

69,90,0,364,262,63,

69,89,0,381,291,67,

68,89,0,379,289,63,

68,88,0,376,287,63,

67,88,0,374,286,65,

67,88,0,371,284,63,

67,117,0,369,282,66,

69,132,0,367,281,63,

69,131,0,365,279,63,

68130,0,362,277,63,

67,129,0,359,275,63,

67,129,0,357,274,64,

67,127,0,385,307,66,

67,127,0,382,305,62,

66,126,0,379,304,61,

65,126,0,376,302,63,

65,125,0,374,300,61,

65,124,0,371,298,63,

65,124,0,369,295,61,

64,123,0,367,295,63,

64,122,0,364,293,60,

63,121,0,363,291,60,

63,121,0,359,292,59,

63,120,0,358,291,58,

63,120,0,355,289,61,

62,119,0,354,287,58,

62,118,0,352,286,60,

62,118,0,350,284,58,

61,117,0,347,283,59,

61,116,0,345,281,60,

61,115,0,344,280,57,

60,115,0,341,277,57,

60,114,0,339,276,58,

60,114,0,339,307,57,

60,113,0,339,305,59,

59,112,0,337,304,57,

59,112,0,335,302,56,

59,111,0,333,300,56,

59,111,0,331,298,57,

58,110,0,329,295,56,
58,110,0,327,294,54,

58,109,0,325,292,57,

57,108,0,323,291,54,

57,108,0,322,289,53,

57,107,0,359,290,52,

56,107,0,355,288,51,

56,106,0,354,287,56,

56,105,0,351,285,56,

56,105,0,49,284,56,

56,103,0,346,281,54,

56,103,0,344,280,53,

56,103,0,343,278,52,

56,103,0,339,277,51,

56,102,0,338,275,54,

55,102,0,335,291,53,

55,101,0,339,300,55,

55,100,0,337,299,54,

54,100,0,335,295,54,

54,99,0,333,295,54,

54,99,0,331,293,50,

53,99,0,329,291,52,

53,98,0,327,290,51,

53,97,0,325,287,49,

53,97,0,323,286,48,

52,97,0,321,285,48,

52,96,0,319,283,51,

52,96,0,334,282,51,

51,95,0,331,280,51,

51,95,0,329,278,51,

51,94,0,327,277,47,

51,94,0,326,275,50,

51,105,0,323,274,47,

51,110,0,321,272,48,

50,109,0,319,271,47,

50,108,0,318,269,47,

50,108,0,316,267,46,

49,107,0,313,267,47,

49,107,0,333,277,48,

49,106,0,331,275,48,

48,105,0,327,274,48,

48,105,0,327,272,46,

48,103,0,324,271,46,

48,103,0,322,269,45,

48,103,0,319,267,46,

48,103,0,318,266,45,

47,102,0,316,263,45,

47,101,0,315,263,45,

47,100,0,321,275,47,

46,100,0,348,273,46,

46,99,0,345,271,43,

46,99,0,344,269,43,

46,99,0,341,268,42,

45,98,0,339,267,45,

45,97,0,337,265,46,

47,97,0,335,263,48,

47,96,0,333,262,46,

47,96,0,331,261,46,

46,96,0,329,259,46,

47,95,0,327,260,43,

46,94,0,376,259,43,

46,94,0,373,257,44,

46,94,0,370,255,43,

45,93,0,368,254,45,

45,92,0,366,253,45,

46,94,0,364,252,46,

46,94,0,361,251,46,

46,93,0,359,249,46,

45,92,0,356,248,45,

45,92,0,355,247,42,

45,92,0,352,263,45,

45,91,0,350,275,43,

45,90,0,348,274,46,

44,90,0,346,271,44,

44,89,0,344,271,45,

44,89,0,342,269,44,

67,90,0,340,268,58,

69,90,0,338,266,64,

69,89,0,335,265,65,

68,89,0,334,263,63,

68,88,0,332,262,62,

67,88,0,330,260,62,

67,88,0,329,260,65,

67,87,0,327,259,65,

67,87,0,324,257,65,

66,86,0,323,255,64,

66,86,0,321,254,63,

65,103,0,319,253,63,

65,102,0,317,252,60,

64,102,0,316,250,60,

64,101,0,313,249,60,

63,100,0,312,248,63,

63,99,0,311,246,60,

63,99,0,326,249,59,

62,99,0,324,248,59,

62,98,0,322,246,60,

62,97,0,319,245,57,

61,97,0,318,243,58,

62,97,0,317,243,61,

63,96,0,315,241,63,

64,96,0,312,240,62,

6,95,0,312,239,62,

63,94,0,309,238,60,

63,94,0,307,236,62,

63,93,0,306,241,62,

62,93,0,315,240,61,

62,92,0,313,239,59,

62,92,0,311,238,58,

61,92,0,309,236,57,

61,91,0,307,235,58,

61,91,0,305,234,61,

60,90,0,304,231,57,

60,90,0,302,231,59,

60,89,0,301,230,56,

60,89,0,299,229,56,

59,88,0,314,259,59,

59,88,0,332,258,58,

58,88,0,329,255,58,

58,87,0,327,254,57,

58,86,0,325,253,55,

57,86,0,323,252,57,

57,86,0,321,250,57,

57,85,0,319,249,56,

57,85,0,317,248,56,

56,84,0,315,246,56,

56,83,0,313,245,53,

56,83,0,316,285,55,

56,83,0,374,283,53,

56,82,0,371,281,51,

55,82,0,369,280,53,

54,82,0,367,278,51,

54,81,0,364,276,52,

57,81,0,361,275,56,

57,81,0,359,273,56,

57,79,0,358,271,56,

57,79,0,355,270,52,

56,79,0,353,26,52,

56,79,0,351,267,53,

56,79,0,350,281,56,

56,78,0,347,280,54,

55,78,0,345,278,56,

55,77,0,343,277,56,

54,77,0,341,275,54,

54,77,0,339,273,53,

54,77,0,337,271,54,

54,77,0,335,270,50,

54,76,0,333,269,50,

54,76,0,332,267,49,

53,75,0,329,266,50,

53,75,0,339,271,53,

52,75,0,337,270,52,

52,74,0,335,268,51,

52,74,0,334,267,51,

51,73,0,332,265,51,

51,73,0,329,263,49,

53,73,0,327,262,53,

55,73,0,326,261,51,

54,71,0,324,259,54,

54,71,0,322,258,54,

54,71,0,320,257,54,

53,71,0,369,257,52,

53,71,0,393,255,52,

53,71,0,391,254,52,

52,70,0,388,253,49,

52,70,0,386,251,48,

52,73,0,384,250,49,

51,77,0,380,248,48,

51,76,0,379,248,51,

51,76,0,376,246,51,

50,75,0,374,245,48,

50,75,0,371,243,49,

50,74,0,369,269,51,

50,74,0,367,267,50,

50,73,0,365,266,46,

49,73,0,363,263,48,

49,73,0,359,263,47,

49,71,0,359,261,49,

48,71,0,356,259,48,

48,71,0,354,258,49,

48,71,0,352,257,48,

48,71,0,350,255,44,

47,71,0,348,253,46,

47,70,0,346,261,48,

47,70,0,353,275,44,

47,69,0,352,274,44,

46,69,0,349,271,43,

46,69,0,347,270,43,

46,68,0,345,269,46,

46,75,0,343,268,46,

46,75,0,341,266,46,

46,74,0,339,263,42,

45,73,0,337,263,45,

45,73,0,335,261,42,

45,73,0,333,259,45,

45,73,0,332,261,41,

44,71,0,329,259,43,

45,71,0,327,257,45,

44,71,0,326,255,42,

44,71,0,324,255,43,

44,77,0,322,253,44,

44,77,0,319,252,39,

43,76,0,319,251,43,

43,76,0,317,249,39,

43,76,0,315,248,39,

43,75,0,313,246,39,

43,75,0,355,249,43,

42,74,0,353,248,43,

42,73,0,351,247,39,

41,73,0,349,245,41,

41,73,0,346,243,39,

41,73,0,345,242,41,

41,71,0,343,241,39,

41,71,0,340,240,39,

41,710,338,239,38,

39,71,0,335,238,39,

39,71,0,334,236,39,

39,70,0,380,275,42,

39,70,0,385,271,37,

39,70,0,384,270,39,

39,69,0,380,269,37,

39,69,0,378,267,37,

39,68,0,376,265,36,

39,70,0,373,263,38,

38,69,0,371,263,37,

38,69,0,368,261,35,

38,68,0,367,259,38,

38,68,0,364,258,35,

38,67,0,362,266,39,

37,67,0,361,263,35,

37,67,0,359,263,35,

37,67,0,357,261,35,

37,66,0,355,259,35,

37,75,0,353,258,34,

45,111,0,351,255,50,

62,110,0,348,255,54,

61,110,0,347,254,59,

61,109,0,344,252,57,

61,108,0,342,251,57,

60,108,0,365,295,60,

60,107,0,368,295,5,

59,106,0,365,293,56,

59,105,0,363,291,54,

59,105,0,359,289,55,

88,178,0,358,287,97,

133,227,0,355,286,113,

131,225,0,353,284,116,

130,223,0,351,282,113,

129,222,0,348,280,115,

128,220,0,346,278,113,

127,219,0,450,276,113,

126,217,0,446,275,112,

126,216,0,442,273,115,

125,215,0,439,271,115,

124,213,0,434,270,110,

124,211,0,431,268,109,

123,210,0,428,266,108,

121,209,0,425,263,108,

121,207,0,422,263,110,

120,207,0,419,269,108,

120,205,0,415,268,105,

119,204,0,413,266,105,

118,203,0,409,263,103,

118,201,0,407,263,105,

117,229,0,403,261,98,

116,227,0,401,259,94,

115,225,0,399,258,93,

115,224,0,396,255,94,

114,222,0,393,255,94,

114,221,0,396,271,96,

113,219,0,429,269,92,

112,218,0,425,267,93,

112,217,0,423,265,96,

111,216,0,419,263,95,

110,214,0,415,26,91,

110,213,0,413,260,93,

109,211,0,410,259,90,

156,233,0,408,257,152,

249,345,0,404,255,169,

245,353,0,402,255,167,

243,350,0,399,255,169,

241,387,0,396,253,171,

240,381,0,393,252,167,

238,377,0,391,251,166,

236,375,0,388,249,167,

235,372,0,385,248,165,

233,369,0,382,246,59,

231,367,0,380,245,165,

231,369,0,377,243,174,

257,423,0,375,249,170,

255,419,0,376,248,173,

253,415,0,372,245,167,

251,451,0,370,243,170,

249,494,0,368,242,167,

248,489,0,365,241,169,

246,484,0,363,240,173,

245,480,0,359,238,177,

243,477,0,358,237,176,

244,473,0,355,236,174,

243,470,0,396,257,169,

241,466,0,393,255,170,

240,463,0,390,253,169,

238,459,0,387,251,172,

237,455,0,385,249,179,

273,452,0,382,248,202,

310,449,0,380,247,207,

307,569,0,376,245,201,

304,563,1,373,243,206,

302,557,0,371,242,198,

300,552,0,369,271,199,

298,547,0,368,270,201,

295,543,0,365,268,197,

295,537,0,363,266,198,

292,534,0,359,263,202,

291,529,0,358,263,204,

289,525,1,355,261,20,

287,521,1,353,259,196,

285,517,0,350,258,191,

284,513,0,348,255,195,

281,509,0,383,275,197

280,505,0,380,274,195,

278,502,1,377,271,193,

277,497,1,375,270,192,

275,493,0,371,268,194,

273,489,0,369,266,192,

271,486,1,367,265,192,

271,483,0,364,263,191,

269,479,0,361,262,190,

268,476,1,359,268,190,

265,472,1,417,280,186,

263,469,0,414,278,177,

263,466,1,410,275176,

261,462,1,408,274,180,

259,459,0,404,271,184,

258,455,0,401,270,184,

255,453,1,399,269,182,

255,449,0,395,267,184,

254,446,1,391,65,182,

252,444,1,420,286,182,

251,441,1,434,24,184,

249,438,0,431,281,184,

248,435,1,28,279,175,

247,432,1,423,277,173,

245,429,1,422,275,173,

243,426,1,418,273,172,

242,423,1,415,271,175,

245,421,1,412,270,172,

243,418,1,409,268,191,

242,415,1,406,267,194,

240,413,2,403,265,192,

239,410,2,400,263,192,

238,408,2,398,262,190,

236,404,2,395,260,191,

235,402,2,391,258,192,

233,399,2,390,257,191,

231,397,2,86,255,185,

231,395,2,384,254,189,

230391,2,31,252,184,

229,390,3,423,300,179,

227,87,2,421,297,183,

226,385,2,417,295,183,

225,383,3,414,293,184,

224,380,3,411,291,183,

22,377,3,408,289,183,

221,376,3,405,287,184,

220,373,3,401,285,181,

219,370,3,399,284,171,

217,368,3,396,281,167,

217,366,3,505,335,166,

215,364,3,499,332,163,

214,361,3,495,329,157,

213,359,3,491,327,157,
211,357,3,487,324,152

211,355,3,483,322,153,

209,353,3,480,319,153,

07,351,3,475,318,159,

207,349,3,472,316,176,

206,347,3,467,321,177,

205,345,3,464,344,13,

204,343,3,461,41,172,
203,341,3,457,338,170,

201,339,3,455,335,172,

199,335,3,451,334,169,

199,335,3,448,331167,

198,333,3,445,329,167,

197,331,3,441,327,171,

196,327,3,438,325,170,

195,327,3,447,327,169,

194,325,3,464,326,163,

193,323,3,461,323,164,

192,321,3,457,319,166,

191,319,3,454,319,163,

190,318,3450,316,162,

189,316,3,447,315,162,

188,314,3,443,312,159,

187,312,3,440,311,165,

186,311,3,436,308,163,

185,309,3,492,329,164,

184,307,2,492,326,159,

183,305,3,487,323,159,

182,304,2,484,321,161,

181,302,3,480,319,158,

180,300,2,476,317,159,

179,299,2,473,315,158,

179,97,2,469,312,156,

177,295,2,465,311,156,

176,294,2,62,308,155,

176,292,2,458,310,155,

15,291,2,455,308,154,

173,289,2,451,306,154,

173,287,2,448,304,156,

172,286,2,445,302,152,

171,284,2,442,300,154,

170,283,2,439,298,153,

169,281,2,435,295,150,

167,280,2,432,295,150,

167,279,2,429,293,151,

167,277,2,507,309,149,

166,25,2,502,307,152,

165,274,2,498,305,148,
164,272,2,494,302,149,

163,271,2,490,300,146,

163,269,2,486,299,149,

161,268,2,483,297,143,

161,267,2,478,295,143,

159,265,2,474,293,143,

159,263,2,471,291,144,

159,263,1,485,306,14,

157,261,2,481,304,145,

156,259,2,477,301,141,

156,258,1,473,300,143,

155,257,2,470,297,143,

154,255,2,466,295,140,

153,254,1,463,294,141,

153,253,1,460,291,139,

152,251,1,455,290,139,

152,250,2,455,307,138,

150,249,2,459,305,137,

150,248,1,455,304,139,

149,246,1,452,301,135,

148,245,1,449,299,135,

147,243,1,446,297,137,

147,243,1,442,295,134,

146,241,1,440,293,133,

145,240,1,436,29,135,

144,239,1,432,289,135,

143,238,1,430,327,132,

143,237,1,443,325,131,

142,235,1,440,322,131,

142,234,1,436,319,129,

141,233,1,433,318,129,

140,231,1,430,316,131,

139,231,1,427,313,127,

139,229,1,423,312,127,

138,227,1,421,309,129,

137,227,1,417,307,129,

137,226,1,481,338,126,

135,224,1,477,335,125,

135,224,1,473,333,124,

135,223,1,469,331,125,

134,221,1,465,327,126,

133,220,1,462,326,126,

132,219,1,459,323,122,

131,217,1,455,321,124,

131,216,1,451,319,123,

131,216,1,448,317,121,

130,215,1,532,352,120,

129213,1,527,349,119,

128,212,1,523,347,121,

127,211,1,518,344,120,

127,210,1,514,342,121,

128,259,1,510,339,11,

127,257,1,505,337,118,

127,255,1,502,335,120,

126,254,1,497,332,120,

125,252,0,493,330,115,

125,251,1,493,329,115,

124,249,1,489,326,115,

123,248,0,485,324,114,

123,246,1,481,322,114,

122,244,1,478,319,116,

121,243,1,475,318,115,

121,241,1,471,316,113,

120,240,1,467,313,112,

120,238,1,463,312,114,

119,237,1,460,317,110,

119,236,1,457,315,110,

118,234,0,454,312,109,

117,231,0,450,311,109,

117,231,1,447,309,111,

116,230,1,444,306,108,

115,228,1,441,304,108,

115,227,0,438,303,107,

115,226,1,435,300,107,

114,224,0,432,299,110,

113,223,1,489,326,107,

113,222,1,496,323,104,

112,220,0,492,321,103,

112,219,0,487,319,103,

111,218,1,484,317,106,

111,217,1,481,314,103,

110,216,1,477,312,103,

109,214,0,473,310,105,

109,213,0,470,307,105,

108,211,0,466,306,103,

108,211,0,513,327,101,

107,209,1,508,325,102,

107,207,0,504,323,100,

105,207,0,499,319,99,

105,206,0,496,318,103,

105,205,0,492,316,98,

103,204,0,487,314,98,

103,203,0,484,312,100,

103,202,0,481,310,100,

103,201,1,477,307,99,

103,199,1,530,326,96,

102,199,0,527,323,96,

102,198,0,523,321,96,

101,198,0,519,319,98,

100,196,0,514,316,94,

100,195,0,509,314,97,

99,194,0,507,312,96,

99,194,0,503,310,96,

99,193,0,499,309,95,

99,192,0,495,307,93,

98,191,0,492,319,94,

97,190,0,487,317,92,

97,189,0,484,315,91,

96,188,0,481,313,93,

96,188,0,478,311,93,

96,187,0,475,309,93,

95,186,0,472,307,93,

95,185,0,467,305,89,

94,184,1,465,304,89,

94,184,0462,302,88,

94,183,0,459,300,88,

93,182,0,455,299,88,

92,181,0453,295,90,

92,179,0,450,295,87,

92,179,0,447,293,89,

91,178,0,444,291,89,

91,177,0,441,289,88,

90,176,0,438,287,5,

90,176,0,435,287,84,

89,175,0,432,285,83,

89,174,0,430,284,85,

89,174,0,427,282,87,
88,173,0,425,312,87,

88,172,0,422,310,83,

88,172,0,419,307,84,

87,171,0,416,306,82,

87,170,0,414,304,82,

86,169,0,412,302,83,

86,167,0,408,300,81,

85,167,0,407,298,83,

85,167,0,403,295,82,

85,166,0,401,295,79,

84,165,0,399,303,83,

83,165,0,399,322,79,

83,163,1,396,319,81,

83,163,0,393,318,79,

83,162,0,391,316,80,

82,162,0,389,313,78,

82,161,0,387,312,78,

82,159,0,384,310,79,

81,159,0,382,308,79,

81,159,0,380,306,78,

80,158,0,377,304,78,

79,158,0,382,311,78,

79,157,0,380,309,76,

79,156,0,377,306,78,

78,155,0,375,304,75,

78,155,0,373,303,74,

78,154,0,371,301,92,

111,153,0,368,299,102,

110,152,0,366,297,102,

109,152,0,364,295,103,

109,152,0,361,293,103,

108,150,0,359,307,101,

107,149,0,455,304,99,

106,148,0,450,303,103,

106,148,0,447,300,102,

105,147,0,443,299,99,

103,147,0,440,295,112,

188,146,0,436,295,154,

185,145,0,433,293,10,

184,144,0,429,291,158,

182,143,0,425,289,157,

181,143,0,432,315,157,

179,143,0,458,318,156,

178,142,0,455,315,156,

177,141,0,451,313,157,

176,140,0,448,311,156,

175,140,0,444,308,153,

174,139,0,441,306,155,

173,138,0,437,304,154,

172,138,0,433,302,151,

171,137,0,430,301,150,

170,135,0,427,299,148,

169,135,0,423,297,147,

167,135,0,421,295,146,

167,135,0,418,292,150,

166,134,0,415,291,149,

165,133,0,412,289,145,

164,32,0,409,287,145,

163,131,0,407,285,148,

161,131,0,403,284,143,

161,131,0,400,282,143,

159,130,0,398,288,143,

159,129,0,395,286,142,

158,128,0,391,285,145,

157,127,0,390,282,142,

157,127,0,387,280,142,

156,126,0,385,279,141,

155,126,0,382,277,140,

153,125,0,380,275,141,

153,125,0,376,274,137,

152,124,0,374,273,135,

152,124,0,385,312,135,

150,123,0,382,309,135,

149,122,0,379,307,137,

149,122,0,376,304,135,

147,121,0,374,302,133,

147,121,0,371,300,135,

146,120,0,369,298,135,

145,120,0,367,295,135,

144,119,0,364,294,130,

143,119,0,361,292,134,

143,118,0,408,315,129,

142,117,0,403,312,128,

141,117,0,400,311,131,

140,116,0,397,307,127,

140,121,0,395,306127,

139,130,0,391,304,129,

138,129,0,389,302,129,

137,128,0,386,300,126,

137,127,0,383,298,125,

135,127,0,380,304,127,

135,126,0,377,304,125,

134,125,0,375,301,125,

134,125,0,372,300,126,

133,124,0,370,29,123,

132,123,0,367,295,121,

131,122,0,365,294,123,

131,121,0,363,291,120,

130,121,0,359,289,120,

129,120,0,357,287,120,

128,120,0,355,316,123,

127,119,0,354,314,119,

127,118,0,351,312,120,

126,117,0,349,310,120,

126,117,0,347,307,117,

125,115,0,345,305,115,

124,115,0,343,303,118,

124,115,0,341,301,115,

123,114,0,339,299,115,

122,114,0,336,297,116,

122,113,0,335,295,115,

121,113,0,332,294,113,

121,112,0,331,291,114,

120,112,0,327,290,114,

119,111,0,327,287,111,

119,110,0,325,286,110,

118,110,0,323,284,112,

117,109,0,321,283,112,

117,109,0,319,280,109,

116,108,0,317,279,110,

115,108,0,316,311,111,

115,107,0,313,308,110,

114,107,0,312,306,107,

113,106,0,310,304,107,

113,105,0,308,302,105,

112,105,0,307,300,105,

112,103,0,305,297,108,

111,103,0,303,295,107,

110,103,0,301,294,103,

110,103,0,300,292,105,

109,103,0,298,290,102,

109,102,0,295,287,103,

108,102,0,295,287,102,

107,101,0,293,285,101,

107,101,0,291,283,103,

106,100,0,290,281,99,

105,99,0,287,280,102,

105,99,0,287,278,102,

103,99,0,285,276,97,

103,98,0,284,275,99,

103,98,0,293,309,100,

103,97,0,291,306,97,

102,97,0,289,304,96,

102,96,0,287,303,98,

101,96,0,286,300,97,

101,96,0,284,299,98,

101,96,0,283,295,97,

99,95,0,281,295,96,

99,94,0,280,293,94,

99,94,0,279,291,94,

99,93,0,277,290,92,

98,93,0,275,289,93,

97,93,0,274,287,95,

97,92,0,273,285,94,

97,92,0,271,284,93,

96,92,0,271,281,92,

96,91,0,269,281,92,

96,91,0,268,279,90,

95,90,0,267,277,92,

95,90,0,265,275,89,

94,89,0,263,274,92,

93,89,0,263,273,91,

93,89,0,317,295,92,

93,89,0,341,294,89,

92,88,0,338,292,89,

92,88,0,335,290,89,

92,88,0,334,289,86,

91,87,0,332,287,85,

91,87,0,330,286,86,

90,86,0,327,284,84,

89,86,0,326,282,87,

89,86,0,324,281,87,

89,85,0,323,279,86,

88,85,0,321,278,86,

88,84,0,319,275,85,

88,84,0,317,275,85,

88,83,0,315,273,81,

87,83,0,313,271,83,

86,83,0,312,270,81,

86,83,0,310,269,85,

85,82,0,307,268,83,

5,82,0,306,266,83,

85,81,0,304,263,82,

84,81,0,303,263,79,

83,81,0,301,267,81,

83,80,0,300,266,81,

83,80,0,298,263,78,

83,79,0,295,263,77,

82,79,0,295,261,78,

82,79,0,293,260,77,

81,79,0,291,259,79,

81,78,0,290,257,80,

81,78,0,287,255,79,

80,78,0,287,254,78,

79,77,0,286,253,77,

79,77,0,284,257,76,

79,77,0,283,275,77,

79,76,0,281,274,73,

78,76,0,280,273,74,

78,76,0,278,271,76,

78,75,0,277,270,74,

77,75,0,275,268,75,

77,75,0,273,266,75,

77,74,0,271,264,71,

77,74,0,271,263,74,

76,73,0,269,262,71,

76,73,0,268,261,74,

75,73,0,270,280,71,

75,73,0,268,279,74,

75,73,0,267,276,74,

74,71,0,265,275,70,

74,71,0,263,273,71,

74,71,0,263,271,70,

73,71,0,262,270,71,

73,71,0,261,269,69,

71,71,0,259,268,69,

71,70,0,258,265,67,

71,70,0,257,263,68,

71,70,0,255,263,69,

71,69,0,254,262,70,

71,69,0,253,259,67,

71,69,0,252,258,69,

70,69,0,251,257,67,

70,67,0,249,255,68,

70,68,0,248,254,66,

70,67,0,248,253,67,

69,67,0,246,252,65,

69,67,0,245,250,67,

68,67,0,244,249,67,

68,66,0,243,260,65,

67,66,0,244,259,67,

67,66,0,243,257,63,

67,65,0,242,255,63,

67,65,0,241,254,63,

67,65,0,240,253,63,

67,64,0,239,251,62,

67,64,0,237,250,66,

66,63,0,236,249,63,

66,63,0,236,248,63,

66,63,0,234,246,62,

66,63,0,233,267,63,

65,63,0,274,265,61,

65,62,0,271,263,61,

64,62,0,270,262,61,

64,62,0,268,260,60,

63,62,0,267,259,60,

63,61,0,265,257,60,

63,61,0,263,255,63,

63,61,0,262,254,60,

63,61,0,261,253,62,

63,60,,259,252,62,

62,60,0,258,250,60,

62,60,0,257,249,58,

62,60,0,255,248,61,

62,59,0,254,247,58,

61,59,0,253,245,59,

61,59,0,251,244,59,

60,59,,250,243,61,

60,58,0,248,242,57,

60,58,0,247,241,57,

60,58,0,246,239,56,

59,57,0,244,238,56,

59,57,0,243,237,57,

59,57,0,293,255,56,

59,57,0,291,253,56,

59,56,0,289,252,56,

58,56,0,287,251,58,

57,56,0,286,249,58,

57,56,0,284,248,57,

57,56,0,283,247,54,

57,56,0,281,245,57,

57,56,0,279,243,53,

56,56,0,278,242,53,

56,56,0,276,241,54,

56,55,0,275,270,55,

56,55,0,273,268,53,

56,55,0,271,267,53,

55,54,0,270,265,53,

55,54,0,268,263,55,

55,54,0,267,262,51,

55,53,0,265,261,51,

54,53,0,263,259,51,

54,53,0,263,257,51,

54,53,0,261,255,53,

53,52,0,260,254,54,

53,52,0,290,259,54,

53,52,0,302,257,51,

53,51,0,300,255,50,

52,51,0,298,255,52,

51,51,0,295,253,49,

52,51,0,294,252,49,

51,51,0,293,250,51,

51,51,0,291,249,49,

51,50,0,290,248,49,

51,50,0,287,246,49,

51,50,0,286,245,49,

51,50,0,285,271,49,

50,49,0,287,269,50,

50,49,0,285,267,47,

50,49,0,284,265,48,

50,49,0,281,263,50,

49,48,0,280,263,49,

49,48,0,279,261,50,

49,48,0,278,259,47,

48,48,0,275,258,47,

48,48,0,274,257,49,

48,47,0,273,255,48,

48,47,0,271,259,48,

48,47,0,291,271,45,

47,47,0,288,270,45,

47,46,0,287,268,45,

47,46,0,285,266,45,

46,46,0,284,265,48,

47,46,0,282,263,45,

46,46,0,280,262,47,

46,46,0,279,260,44,

46,45,0,277,259,44,

46,46,0,275,257,46,

45,45,0,274,260,46,

46,45,0,345,294,46,

45,45,0,343,291,46,

45,45,0,339,290,43,

45,44,0,337,287,45,

44,44,0,335,286,46,

44,44,0,333,285,45,

44,44,0,332,283,44,

44,43,0,329,281,44,

44,43,0,327,280,41,

44,43,0,325,278,41,

44,43,0,323,277,41,

43,43,0,329,291,39,

43,43,0,327,289,43,

42,43,0,327,287,40,

42,42,0,324,286,41,

42,41,0,322,284,43,

42,41,0,320,281,43,

42,41,0,319,281,42,

41,41,0,317,279,39,

41,41,0,315,277,39,

41,41,0,313,275,39,

41,41,0,312,274,41,

41,40,0,310,307,42,

41,39,0,311,304,42,

39,39,0,308,302,42,

39,39,0,307,300,41,

39,39,0,305,298,39,

39,39,0,304,297,38,

41,61,0,302,295,38,

41,60,0,300,294,39,

39,60,0,299,291,38,

39,59,0,297,290,39,

39,59,0,295,287,41,

39,59,0,294,287,38,

39,58,0,316,285,39,

39,57,0,34,283,36,

39,57,0,312,282,39,

39,57,0,310,280,37,

39,57,0,309,279,39,

39,57,0,307,277,35,

39,56,0,305,275,39,

38,56,0,303,274,39,

38,56,0,302,273,39,

38,55,0,300,271,38,

38,55,0,298,284,39,

37,55,0,356,310,38,

37,54,0,353,307,35,

37,54,0,351,305,35,

37,54,0,349,304,35,

37,53,0,346,302,34,

36,53,0,344,300,34,

37,53,0,343,299,37,

36,53,0,340,297,35,

36,52,0,338,295,36,

35,52,0,335,293,36,

35,52,0,334,291,36,

35,51,0,332,310,33,

35,51,0,331,307,35,

35,51,0,329,306,33,

35,51,0,327,304,37,

35,50,0,326,302,35,

35,50,0,323,300,33,

35,50,0,321,299,35,

34,50,0,319,297,31,

34,50,0,318,295,34,

34,49,0,316,294,34,

34,49,0,314,291,31,

34,49,0,313,294,31,

34,49,0,311,291,31,

33,48,0,309,290,31,

33,48,0,307,289,34,

33,48,0,305,287,35,

33,48,0,304,285,41,

67,48,0,302,284,56,

67,47,0,301,282,62,

67,47,0,299,281,62,

66,47,0,297,279,64,

66,46,0,295,277,61,

65,46,0,344,305,66,

65,46,0,371,303,63,

65,46,0,368,301,61,

64,46,0,366,299,63,

63,45,0,364,297,63,

63,45,0,361,295,60,

63,45,0,359,294,62,

63,45,0,356,292,59,

62,45,0,355,290,61,

62,44,0,352,289,59,

62,44,0,350,287,62,

61,44,0,348,301,62,

61,44,0,382,300,57,

61,43,0,380,297,60,

61,43,0,377,295,60,

60,43,0,375,294,59,

60,43,0,372,292,56,

60,44,0,370,291,60,

60,43,0,368,289,57,

60,43,,365,287,57,

59,43,0,364,286,58,

59,43,0,361,284,58,

59,42,0,359,283,56,

58,42,0,357,300,58,

58,42,0,354,299,56,

57,41,0,352,297,57,

57,41,0,350,295,55,

57,41,0,348,293,56,

57,41,0,346,291,54,

56,41,0,344,290,56,

56,41,0,342,287,56,

56,39,0,340,287,53,

56,39,0,339,285,56,

56,39,0,337,284,52,

55,39,0,335,282,55,

55,39,0,333,280,52,

54,39,0,331,280,51,

54,39,0,329,277,51,

54,39,0,327,276,54,

53,39,0,325,275,50,

53,39,0,323,273,51,

53,39,0,321,271,50,

53,38,0,319,270,49,

52,38,0,318,269,49,

52,38,0,316,267,48,

51,38,0,315,266,49,

51,38,0,313,265,48,

51,38,0,312,263,48,

51,37,0,310,262,48,

50,37,0,308,260,51,

50,61,0,307,259,48,

51,69,0,305,258,52,

52,69,0,304,255,49,

52,68,0,302,255,49,

51,68,0,300,253,48,

51,67,0,299,252,51,

51,67,0,345,287,49,

51,67,0,393,286,49,

51,66,0,390,284,49,

51,66,0,387,282,51,

50,65,0,384,281,48,

50,65,0,382,280,47,

49,67,0,380,277,47,

49,66,0,377,275,47,

49,66,0,376,274,46,

48,65,0,372,273,46,

48,65,0,371,271,46,

48,64,0,368,275,46,

48,64,0,366,273,49,

48,63,0,364,271,48,

48,63,0,361,270,48,

47,63,0,359,269,45,

