
17,38,9,48,45,9,

18,37,10,48,44,9,

18,37,9,48,44,9,

18,37,9,48,44,9,

18,37,9,47,44,10,

18,37,9,47,44,9,

18,37,9,47,44,10,

18,37,9,46,43,9,

18,36,9,47,43,9,

18,37,10,46,43,9,

17,37,9,46,43,9,

18,37,9,46,43,9,

18,36,10,46,43,9,

17,36,9,46,42,9,

18,36,10,45,42,9,

18,36,9,45,41,9,

18,35,9,45,41,9,

18,35,9,45,41,9,

18,35,9,45,41,9,

18,35,9,45,41,9,

18,35,9,44,41,9,

18,35,9,44,41,10,

18,35,9,44,41,10,

18,35,9,79,39,10,

17,35,9,78,41,9,

18,35,9,77,39,9,

17,34,9,77,39,9,

18,35,9,77,39,9,

18,34,9,76,39,9,

18,34,9,76,39,9,

18,34,9,76,39,9,

18,34,9,75,39,9,

17,34,9,75,39,9,

18,34,9,75,39,9,

17,33,9,74,39,9,

18,34,9,74,39,9,

17,33,9,73,38,9,

17,33,9,73,38,9,

17,33,9,73,38,9,

17,33,9,73,38,10,

18,33,9,73,38,9,

18,33,10,72,38,9,

18,32,9,71,38,9,

18,32,9,71,37,9,

18,32,10,71,37,10,

18,31,9,71,37,9,

17,31,9,71,37,9,

18,35,10,71,37,9,

17,52,9,70,37,9,

17,51,9,70,36,10,

17,51,9,70,36,9,

17,51,9,70,36,9,

18,51,9,69,35,9,

20,51,9,69,35,9,

21,50,9,69,36,9,

21,50,9,68,35,9,

21,50,9,68,35,9,

20,49,10,68,35,9,

21,49,9,67,35,9,

21,49,9,67,35,9,

21,49,10,67,39,9,

21,50,9,67,39,9,

20,49,9,67,39,9,

20,49,9,66,38,9,

22,49,10,66,39,9,

22,48,9,66,38,9,

25,49,9,66,38,9,

24,48,9,65,38,9,

24,48,9,65,38,9,

24,48,9,65,38,9,

24,48,9,65,38,9,

24,48,9,64,37,9,

24,48,9,63,37,9,

24,47,9,63,37,9,

24,47,9,63,37,9,

24,47,10,63,37,9,

24,46,9,63,36,9,

24,46,9,63,36,9,

23,46,9,63,36,9,

23,46,9,62,36,9,

24,46,9,62,36,9,

24,46,9,62,35,9,

24,45,9,61,36,10,

23,45,9,61,35,9,

24,45,9,61,35,9,

23,45,9,61,35,9,

23,45,10,61,35,9,

23,46,9,60,35,9,

23,46,9,60,35,9,

23,45,9,60,35,10,

23,45,9,60,35,9,

22,45,9,59,34,9,

22,45,9,60,34,9,

25,45,9,59,34,9,

25,44,9,59,34,9,

25,44,9,59,34,9,

25,44,9,59,34,9,

25,44,9,58,33,9,

25,44,10,58,39,10,

24,43,9,58,40,9,

25,44,10,57,39,9,

25,44,9,57,39,9,

24,44,9,57,39,9,

24,44,9,57,39,9,

24,44,9,57,39,9,

24,44,9,57,39,9,

24,43,9,56,39,9,

24,43,9,56,39,9,

24,43,9,56,39,9,

24,43,9,56,39,9,

24,43,9,56,39,9,

24,42,9,56,38,10,

24,43,10,56,39,9,

24,47,9,55,38,9,

24,46,9,55,38,9,

24,46,10,55,38,9,

24,46,9,54,38,9,

23,46,9,54,38,9,

24,46,9,54,37,9,

23,46,9,54,37,9,

23,46,9,54,37,10,

23,45,9,53,37,9,

23,45,9,53,37,9,

23,45,9,53,36,9,

22,45,9,52,36,10,

23,45,9,53,35,9,

22,44,9,51,36,10,

22,44,9,51,36,9,

22,44,9,52,35,9,

22,44,9,51,36,9,

22,44,9,51,35,9,

22,44,9,51,35,10,

22,43,9,51,35,9,

22,43,9,51,35,9,

22,43,10,52,35,10,

22,43,9,53,35,9,

22,42,9,53,35,9,

21,42,9,53,35,9,

21,44,9,53,35,10,

21,43,9,52,35,9,

21,43,9,52,35,9,

21,43,9,51,35,9,

21,42,9,51,34,9,

21,42,9,51,34,10,

21,42,9,51,34,9,

21,41,9,51,34,9,

21,42,9,51,33,9,

20,41,9,51,34,9,

20,41,9,50,34,9,

21,41,9,50,33,9,

20,41,9,50,33,9,

21,41,9,50,33,9,

20,41,9,50,33,9,

21,41,9,50,33,9,

20,41,9,49,33,9,

21,41,9,50,33,9,

21,39,9,49,32,9,

21,39,9,49,31,9,

20,39,9,49,32,9,

21,39,9,48,32,9,

20,39,9,49,31,9,

21,39,9,48,31,9,

20,39,9,48,31,9,

21,39,9,48,31,9,

21,50,9,48,31,9,

20,68,9,51,31,10,

20,67,9,51,31,9,

19,67,10,51,31,9,

20,67,9,51,31,9,

20,67,9,51,31,9,

20,66,9,50,30,9,

20,66,9,50,31,10,

19,65,9,50,30,10,

19,65,9,50,30,9,

20,65,9,49,35,10,

20,65,9,49,36,9,

19,65,9,49,36,9,

20,64,10,75,36,9,

19,63,9,88,36,9,

19,63,9,87,35,9,

19,63,10,86,35,9,

20,63,9,86,35,9,

22,63,9,86,35,9,

21,62,9,85,35,9,

21,62,9,85,34,10,

21,62,9,84,34,9,

21,62,9,84,34,9,

21,61,9,83,34,9,

21,62,10,83,46,10,

21,61,9,83,46,9,

21,61,9,83,46,10,

21,61,9,82,46,10,

21,61,9,82,46,9,

20,60,10,81,45,9,

24,60,9,81,45,9,

23,60,10,81,45,9,

24,60,9,80,45,9,

23,60,10,80,45,9,

23,60,9,79,45,9,

22,59,9,79,44,9,

23,59,9,79,44,9,

22,59,9,79,44,10,

22,59,10,78,44,9,

22,58,9,78,44,9,

22,57,9,78,43,9,

22,58,9,77,43,9,

22,57,9,77,43,9,

22,57,9,77,43,9,

22,57,10,77,43,9,

22,57,9,76,42,10,

22,56,9,76,42,9,

21,56,9,76,42,9,

22,56,10,76,42,9,

21,56,9,75,42,10,

21,56,10,75,42,9,

21,61,9,75,42,9,

21,65,9,74,41,9,

21,65,9,74,41,9,

21,65,9,73,41,9,

21,64,9,73,41,9,

21,64,9,73,41,9,

20,63,10,73,41,9,

20,63,9,71,39,9,

21,63,9,71,39,9,

21,63,9,71,39,9,

21,63,10,71,39,10,

52,97,10,71,39,10,

51,140,9,71,39,10,

51,139,9,71,39,9,

51,138,9,71,39,9,

50,137,9,70,39,9,

50,135,10,70,39,9,

50,135,9,70,39,9,

50,135,9,69,39,9,

49,134,9,69,38,9,

49,134,9,69,38,9,

49,133,9,69,38,9,

49,132,9,68,38,10,

49,131,9,68,38,9,

48,131,9,68,38,10,

48,130,9,67,37,9,

48,130,9,67,38,10,

48,129,9,67,37,9,

47,128,9,67,37,9,

48,127,9,67,37,9,

47,127,9,66,37,10,

47,127,9,66,36,9,

47,126,9,66,36,9,

46,126,9,65,36,9,

46,125,9,65,36,10,

46,124,9,65,36,9,

46,124,9,65,35,9,

46,124,9,64,42,9,

46,123,9,64,42,9,

45,123,9,63,41,9,

45,121,10,63,41,9,

45,121,9,63,41,9,

45,120,9,63,41,9,

44,120,9,62,41,9,

44,120,9,62,39,9,

45,119,9,62,39,9,

51,119,10,62,39,10,

51,118,9,62,39,9,

50,118,9,62,39,10,

50,117,9,61,39,9,

50,117,9,61,39,9,

50,116,10,61,39,9,

49,115,9,61,39,9,

49,115,9,60,39,9,

49,115,9,60,39,9,

49,114,9,60,39,9,

49,113,9,59,38,10,

49,113,9,59,38,9,

48,112,9,59,38,9,

48,112,9,59,38,9,

48,112,9,59,38,10,

48,112,9,58,37,10,

48,111,9,58,37,10,

48,110,9,58,37,10,

48,112,10,58,37,10,

71,112,9,57,37,9,

71,111,9,57,37,10,

71,111,9,57,37,9,

71,110,10,57,37,9,

71,109,9,57,36,9,

70,109,9,56,36,9,

70,109,9,56,36,9,

69,108,9,56,36,9,

69,108,10,56,35,10,

69,107,10,56,36,9,

69,126,9,56,35,9,

68,127,10,55,35,9,

68,126,9,55,35,9,

78,126,9,55,35,10,

89,125,9,54,35,9,

88,124,9,54,35,9,

88,124,10,54,34,9,

87,123,9,54,34,9,

87,122,9,53,34,9,

86,122,9,54,34,9,

86,121,9,53,34,10,

85,121,9,53,35,9,

85,120,10,52,35,9,

85,120,10,52,35,9,

87,119,9,52,35,9,

86,119,9,52,35,9,

86,118,9,51,35,9,

85,118,9,51,34,9,

85,117,9,51,35,11,

103,130,10,51,34,9,

102,132,9,51,34,9,

101,131,10,51,35,11,

166,205,10,51,35,10,

187,327,10,51,34,10,

185,357,10,50,33,9,

184,354,9,50,33,10,

182,351,9,50,33,9,

182,349,9,49,33,9,

181,347,9,49,33,10,

211,345,10,49,33,10,

215,343,10,49,33,10,

213,340,9,48,31,9,

212,338,10,48,32,10,

211,337,9,48,32,9,

209,335,9,48,32,10,

209,333,10,48,31,10,

207,331,10,48,31,10,

207,409,10,48,31,10,

206,470,10,48,31,9,

204,465,10,47,31,9,

203,462,9,47,31,9,

202,459,10,46,31,10,

201,455,10,46,31,9,

201,452,10,47,31,9,

263,449,9,46,33,10,

262,447,9,46,33,9,

259,444,10,46,33,10,

258,440,9,45,33,9,

257,438,10,46,33,9,

255,435,10,45,33,9,

253,433,10,45,32,9,

252,430,9,44,32,10,

251,428,9,45,33,10,

249,425,10,44,32,9,

249,422,9,44,31,10,

248,420,10,44,32,10,

246,526,10,96,32,10,

244,519,10,98,31,9,

243,515,9,97,31,10,

242,512,10,97,31,9,

240,508,9,96,31,9,

239,504,9,96,31,10,

238,501,9,96,31,9,

237,497,9,95,31,9,

237,495,10,95,31,11,

236,493,11,94,31,11,

235,591,11,95,31,11,

233,658,11,94,31,10,

231,653,10,93,31,10,

231,646,10,92,30,10,

230,639,11,92,31,11,

228,635,11,92,31,11,

227,631,11,92,31,11,

227,625,11,91,30,11,

225,620,11,90,30,11,

224,615,12,91,31,11,

223,611,12,90,48,11,

222,606,12,89,57,11,

221,600,12,89,57,12,

220,595,12,89,57,12,

219,591,12,89,56,12,

217,588,12,89,56,12,

216,583,12,88,56,13,

221,579,13,88,56,13,

220,575,13,88,55,13,

219,570,13,88,56,13,

217,566,13,86,54,13,

216,562,14,86,55,13,

216,560,14,120,56,13,

215,555,14,124,55,13,

213,551,14,123,54,14,

211,547,14,122,54,14,

211,542,14,121,54,14,

210,539,15,121,54,15,

209,536,15,121,54,15,

207,532,15,120,53,15,

207,527,15,120,53,15,

206,525,16,119,54,16,

205,521,16,118,53,16,

204,517,17,118,53,17,

204,514,17,117,52,17,

203,510,18,116,52,17,

201,507,18,115,51,18,

199,504,18,115,52,19,

199,500,18,114,51,19,

199,497,19,114,51,19,

198,494,19,113,51,19,

197,491,19,113,51,19,

261,501,19,113,51,19,

258,519,20,112,50,19,

255,515,20,111,50,20,

254,510,20,111,50,21,

252,507,21,110,49,20,

251,503,21,109,49,21,

249,499,21,109,49,21,

248,496,21,108,49,21,

247,493,21,108,48,21,

245,489,21,108,49,21,

243,486,21,108,61,22,

243,483,22,110,60,21,

241,480,22,108,60,22,

240,476,22,109,60,22,

239,473,22,108,59,22,

238,472,22,108,60,22,

237,467,22,107,59,22,

236,465,22,107,59,23,

235,463,23,107,59,23,

233,460,23,106,58,22,

231,457,23,105,59,23,

231,454,23,105,57,23,

230,451,24,105,59,24,

228,449,24,103,57,23,

227,446,24,103,57,24,

226,444,24,103,57,24,

225,441,24,102,57,24,

224,438,24,102,57,24,

223,435,24,101,56,24,

222,433,24,101,56,24,

221,430,24,100,56,24,

219,428,24,99,56,24,

218,425,24,100,56,24,

217,423,25,114,55,24,

216,421,24,126,56,24,

215,418,24,125,55,24,

214,415,24,124,55,24,

213,413,24,123,54,24,

211,411,24,123,54,24,

211,408,24,122,54,25,

210,406,25,121,71,24,

209,403,25,121,73,24,

207,401,24,120,71,25,

206,399,24,120,71,25,

205,396,24,119,71,24,

204,395,24,118,71,24,

203,391,24,118,71,24,

202,390,24,117,70,24,

201,387,24,117,70,24,

199,386,24,115,69,24,

199,384,24,115,69,24,

198,382,24,115,70,24,

198,380,24,114,70,24,

196,377,24,114,70,24,

195,376,24,113,69,24,

194,373,24,113,69,24,

193,371,24,112,68,24,

193,369,24,112,68,24,

193,368,24,111,68,23,

227,365,23,110,67,24,

226,363,24,110,67,24,

225,361,24,109,67,24,

224,359,24,110,67,23,

222,358,23,109,67,23,

221,356,23,108,66,23,

219,354,23,108,66,23,

218,352,23,107,65,23,

217,350,22,107,65,22,

216,348,23,106,65,22,

215,347,23,106,64,23,

214,345,22,105,68,23,

212,343,23,105,69,22,

211,341,22,103,68,22,

210,339,22,103,67,22,

209,337,22,103,67,22,

207,335,22,102,67,22,

207,334,22,102,67,22,

206,333,22,102,66,22,

205,331,21,101,66,22,

204,329,21,100,65,22,

203,327,21,100,65,21,

201,326,22,100,65,22,

201,324,22,105,69,21,

199,323,21,103,68,21,

198,321,21,103,68,21,

197,319,21,103,67,21,

196,317,21,103,67,21,

195,316,21,102,67,21,

194,314,21,102,67,21,

193,313,21,101,66,21,

192,311,21,100,65,20,

192,310,20,100,66,21,

190,308,21,100,65,21,

190,307,20,101,72,21,

189,305,20,99,71,20,

188,304,20,99,71,21,

187,302,20,99,71,20,

186,300,20,98,71,20,

185,300,20,98,71,20,

184,297,19,97,71,20,

239,297,19,97,70,20,

237,295,19,97,70,19,

236,294,19,96,70,19,

234,293,20,96,69,19,

233,291,19,95,68,19,

231,289,19,95,67,19,

230,287,19,95,68,19,

230,287,19,94,67,19,

228,285,19,93,67,19,

227,284,19,93,66,19,

226,283,19,92,66,19,

225,281,19,92,66,19,

224,281,19,92,66,19,

222,280,19,92,66,19,

221,278,19,91,66,19,

220,277,19,105,65,19,

219,275,19,105,65,18,

217,274,18,104,64,18,

217,273,18,103,65,18,

216,271,18,103,64,18,

214,270,18,103,63,18,

213,268,18,102,63,18,

211,268,18,102,63,19,

211,266,18,101,63,18,

209,265,18,101,62,18,

208,263,18,100,62,18,

207,263,18,99,61,18,

206,262,18,99,61,18,

205,260,17,99,61,17,

205,259,18,98,61,17,

204,258,18,98,61,17,

203,257,18,122,61,18,

201,255,18,122,61,17,

199,254,17,121,60,17,

199,253,17,120,60,17,

199,252,17,120,60,17,

198,251,17,119,60,17,

197,249,17,119,59,17,

195,248,17,118,58,17,

194,248,17,117,59,17,

193,246,17,116,58,17,

193,245,17,116,58,17,

192,244,17,115,58,17,

191,243,17,115,57,17,

189,242,17,114,57,17,

189,241,17,114,57,16,

189,240,17,113,57,16,

187,239,16,112,56,16,

187,238,16,112,56,17,

185,236,16,112,56,16,

185,235,16,111,56,16,

184,234,16,110,56,16,

183,233,16,110,55,16,

182,231,16,109,55,16,

181,231,16,109,55,16,

181,230,16,108,54,16,

179,229,16,108,54,16,

179,227,16,107,54,16,

178,227,15,107,54,16,

177,226,16,106,54,15,

176,225,15,105,53,16,

175,224,15,105,53,15,

174,223,16,103,53,15,

173,222,15,103,52,15,

173,221,15,103,52,15,

172,220,15,103,52,15,

171,219,15,102,51,15,

171,218,15,103,51,15,

170,217,15,102,51,15,

169,216,15,101,51,15,

167,216,15,100,51,15,

167,215,15,100,51,15,

167,214,15,99,50,15,

166,213,15,99,50,15,

165,211,15,99,50,15,

164,211,15,98,49,15,

163,210,15,98,49,15,

163,209,15,97,49,15,

162,207,15,97,49,15,

161,207,15,97,48,15,

161,207,15,96,49,15,

159,206,15,96,48,15,

159,205,15,95,48,14,

158,204,15,95,48,15,

158,203,15,94,48,15,

157,203,15,94,48,14,

156,201,14,93,47,15,

156,201,15,93,47,15,

155,199,15,93,47,15,

155,199,14,92,46,14,

154,198,15,92,47,15,

153,197,14,92,46,14,

153,196,14,91,46,14,

152,195,13,90,45,13,

151,194,14,89,45,14,

150,193,14,89,45,14,

149,192,13,89,44,14,

149,192,14,89,44,13,

148,191,14,88,44,13,

147,190,14,88,44,14,

147,189,13,88,44,13,

146,189,13,87,44,13,

146,188,14,87,44,14,

145,189,14,87,44,14,

145,309,14,86,43,13,

143,307,13,85,43,13,

143,305,13,85,42,13,

142,303,14,85,42,13,

142,302,14,84,42,13,

141,300,13,103,43,13,

141,298,14,103,42,13,

140,295,13,103,41,13,

140,294,13,102,41,13,

139,292,13,102,41,13,

138,290,13,101,41,13,

137,289,13,100,41,13,

137,287,13,99,41,13,

135,285,13,99,41,13,

135,284,13,99,39,13,

135,283,13,99,41,13,

135,281,13,98,39,13,

134,280,13,98,39,13,

133,278,13,97,39,13,

133,276,13,96,39,13,

132,275,13,96,39,13,

131,273,13,96,39,13,

131,271,13,95,39,13,

131,271,13,95,39,13,

130,270,13,94,39,13,

130,268,13,94,39,13,

129,267,13,93,39,12,

128,265,13,93,39,13,

128,263,12,92,38,13,

127,262,13,92,38,13,

127,261,12,92,38,12,

127,260,12,92,38,13,

126,259,13,91,37,12,

125,257,12,91,37,12,

125,255,13,90,37,13,

124,255,13,90,37,13,

124,253,12,89,37,12,

123,252,12,89,37,13,

123,251,13,89,36,12,

122,249,13,88,36,13,

122,248,12,88,35,12,

121,247,12,87,36,12,

120,245,12,87,35,12,

120,244,12,86,35,12,

120,243,12,86,35,12,

119,242,12,86,35,12,

119,240,12,85,35,12,

118,240,12,85,35,12,

118,238,12,84,35,12,

117,237,12,84,35,12,

117,236,12,83,35,12,

131,235,12,83,34,12,

149,234,12,83,34,12,

148,231,12,82,34,12,

147,231,12,82,34,12,

146,230,12,82,34,12,

145,229,12,81,34,12,

145,227,12,81,33,12,

143,227,12,81,34,12,

143,225,12,80,33,12,

143,224,12,79,33,12,

142,224,12,79,33,12,

141,223,12,79,33,12,

141,222,12,85,33,12,

140,221,12,84,33,12,

139,220,12,83,32,12,

138,218,12,83,32,12,

137,217,12,83,31,12,

137,216,12,82,32,12,

135,216,12,82,31,12,

135,214,12,81,31,12,

135,213,12,81,31,12,

134,212,12,81,31,12,

134,211,12,80,31,12,

133,210,12,79,31,12,

132,209,12,79,31,12,

131,208,12,79,31,12,

131,207,12,79,31,12,

131,207,12,79,44,12,

130,205,12,78,44,11,

129,204,12,78,43,12,

128,204,12,78,43,12,

127,203,12,77,43,12,

127,201,12,77,43,12,

127,199,12,76,42,12,

126,199,12,76,42,12,

125,199,12,76,42,11,

125,198,12,76,41,12,

125,197,11,75,41,11,

124,196,11,75,41,12,

123,195,12,75,43,12,

123,194,11,74,43,12,

122,193,12,74,43,12,

121,193,12,74,42,12,

121,192,12,73,42,12,

120,191,12,73,41,11,

120,190,12,73,41,12,

119,189,11,71,41,11,

119,188,12,71,41,12,

118,188,12,71,41,11,

117,187,11,71,41,11,

117,186,12,71,41,12,

116,185,12,71,39,11,

116,185,12,71,39,11,

115,184,12,70,39,12,

115,184,11,70,39,12,

114,182,12,70,39,11,

114,181,12,69,39,12,

113,180,11,69,39,11,

113,179,11,69,39,12,

113,179,12,69,39,11,

112,178,12,68,39,12,

112,177,11,68,38,11,

111,177,11,67,38,11,

111,176,11,67,39,11,

110,176,12,67,38,11,

110,175,11,67,38,12,

109,174,12,66,38,11,

109,173,11,66,37,11,

108,173,12,66,37,11,

108,172,11,65,38,11,

108,171,11,66,39,12,

107,170,12,65,39,11,

107,169,11,65,39,11,

106,169,11,65,39,11,

106,167,12,64,39,12,

105,167,11,63,38,11,

105,167,11,63,38,11,

103,167,12,63,38,11,

103,166,11,63,38,11,

103,165,11,63,38,11,

103,164,11,63,38,11,

103,163,12,75,38,11,

102,163,11,74,37,12,

102,162,11,74,37,12,

101,162,11,74,37,11,

101,161,11,73,36,11,

100,159,11,72,37,11,

100,159,11,73,36,11,

99,159,11,71,35,11,

99,158,11,71,36,11,

98,157,11,71,35,11,

98,157,11,71,35,11,

98,156,11,71,35,11,

97,156,10,70,35,11,

97,155,11,70,35,11,

96,154,11,69,35,11,

121,155,11,69,35,11,

180,153,11,68,35,11,

178,153,11,68,34,11,

177,152,11,68,34,11,

176,152,11,67,34,11,

175,151,11,67,34,11,

174,150,11,67,34,11,

173,149,11,67,34,10,

172,149,11,67,33,11,

171,148,11,66,34,10,

171,148,11,66,34,11,

169,147,11,65,33,11,

167,155,11,65,33,11,

167,153,10,65,33,11,

167,152,11,64,32,11,

166,152,11,64,32,11,

165,152,11,63,32,10,

164,150,11,63,31,11,

163,150,11,63,31,11,

163,149,10,63,32,11,

162,148,11,63,31,11,

161,147,11,63,31,10,

159,147,10,62,31,11,

159,146,11,62,31,10,

159,146,11,62,31,10,

158,145,11,61,31,10,

157,144,11,61,31,11,

157,144,11,83,31,11,

156,143,10,84,30,11,

155,143,11,84,33,11,

154,142,11,83,33,11,

153,142,11,83,33,11,

153,141,11,83,33,10,

152,140,10,82,32,11,

151,140,11,82,32,11,

150,139,11,81,32,11,

150,139,11,81,31,10,

149,138,10,80,31,11,

148,137,10,79,31,11,

147,137,11,79,31,11,

147,135,10,79,31,10,

147,153,11,79,31,11,

145,204,11,79,31,11,

144,203,11,78,31,11,

143,201,10,78,31,11,

143,199,11,78,31,11,

142,199,11,77,30,11,

142,198,11,76,30,11,

141,197,10,76,30,10,

141,195,11,76,30,11,

140,195,11,76,31,10,

139,194,10,75,30,11,

139,193,11,75,30,11,

138,192,11,75,30,10,

137,191,11,74,30,11,

137,190,11,73,30,10,

135,189,10,73,30,11,

135,188,11,73,29,10,

135,187,11,73,30,11,

135,268,11,71,30,11,

134,273,10,71,29,11,

133,271,10,71,29,11,

132,269,10,71,29,11,

132,268,11,71,29,11,

131,266,11,71,28,11,

184,265,11,71,29,10,

248,263,11,71,29,11,

245,262,11,70,28,10,

243,260,11,70,28,10,

242,259,10,69,28,10,

241,257,11,69,28,11,

240,255,11,87,28,11,

238,254,11,90,28,11,

237,253,11,89,27,11,

235,251,11,88,28,11,

234,250,11,88,27,11,

233,249,10,88,27,10,

231,248,11,87,27,10,

230,246,11,87,27,11,

229,245,11,87,27,11,

261,243,11,86,28,11,

258,243,11,86,28,11,

255,241,11,85,28,10,

255,240,10,84,28,10,

253,239,11,84,27,11,

252,238,11,83,27,11,

250,236,11,83,27,10,

249,235,11,83,27,11,

248,233,11,82,27,10,

247,231,10,82,27,10,

245,231,11,82,27,10,

243,230,10,81,26,10,

242,229,10,81,27,10,

241,227,10,80,26,11,

240,227,11,80,27,10,

239,226,11,79,26,10,

237,224,10,79,26,10,

236,223,10,79,25,10,

235,222,10,78,26,10,

233,221,10,78,25,11,

231,220,10,78,25,10,

231,219,10,78,26,10,

230,218,10,77,25,11,

229,217,10,77,25,10,

227,216,11,77,25,10,

227,215,10,76,25,10,

225,214,10,76,25,11,

224,212,10,75,25,11,

223,211,10,75,24,10,

221,211,11,76,25,11,

222,211,11,76,25,11,

221,209,11,75,25,11,

220,207,11,74,25,11,

219,207,11,74,25,12,

218,252,12,75,25,12,

216,285,11,73,25,11,

216,283,11,73,25,11,

214,281,12,73,25,11,

214,279,11,71,25,11,

230,278,11,71,24,11,

228,275,11,71,24,11,

227,274,11,71,24,11,

226,272,11,71,24,11,

225,271,11,71,26,12,

224,307,11,71,29,11,

223,304,12,70,29,11,

221,301,11,70,29,11,

220,300,11,70,29,12,

219,299,11,70,28,11,

218,295,11,70,29,12,

216,319,11,69,28,11,

216,317,11,68,28,11,

215,315,11,68,28,12,

213,313,11,67,28,11,

212,311,11,67,27,11,

211,310,11,67,28,11,

210,307,11,67,27,11,

209,306,11,67,27,11,

207,304,11,66,27,11,

207,302,11,66,27,11,

206,300,11,65,27,11,

205,299,12,65,27,11,

204,297,11,65,26,11,

204,295,12,77,27,12,

203,294,11,84,31,11,

201,292,11,83,31,11,

199,291,11,83,31,11,

199,289,11,82,31,11,

198,287,12,82,31,11,

198,286,11,82,31,11,

196,284,11,81,31,11,

195,283,11,81,31,11,

195,281,11,81,31,11,

194,280,11,79,31,11,

193,279,11,79,30,11,

192,277,11,79,30,11,

191,275,11,79,30,11,

191,274,11,85,30,11,

189,272,11,83,30,12,

188,271,11,83,30,11,

188,270,11,83,29,11,

187,268,11,83,29,12,

186,267,11,82,29,11,

185,265,11,82,29,12,

184,263,12,81,29,11,

184,263,11,81,29,11,

183,262,11,80,29,12,

182,260,12,80,31,11,

180,259,11,79,30,11,

179,257,11,79,30,11,

179,255,11,79,30,11,

178,255,11,79,30,11,

178,253,11,78,30,12,

177,253,11,78,30,11,

176,251,11,78,30,12,

175,250,11,77,29,11,

174,248,11,77,29,11,

173,248,11,77,29,11,

173,246,11,76,31,12,

172,245,11,76,31,11,

171,243,11,76,31,11,

171,243,11,75,31,11,

169,241,11,75,31,11,

169,240,11,75,31,11,

167,239,12,74,30,11,

167,238,11,74,30,12,

167,237,11,73,30,11,

165,236,11,73,30,11,

165,234,11,73,30,11,

165,233,11,72,31,11,

163,231,11,71,30,12,

163,231,11,71,31,11,

162,230,11,71,30,11,

161,229,11,71,30,11,

161,228,11,71,30,11,

159,227,11,70,30,12,

159,225,12,70,30,11,

159,224,11,70,30,11,

158,224,11,70,31,11,

157,222,11,69,31,11,

156,221,11,68,31,11,

156,220,11,68,30,11,

155,219,11,67,30,11,

154,217,11,67,30,11,

153,217,11,67,30,11,

153,216,11,67,30,11,

152,214,11,67,30,11,

152,213,11,66,30,11,

151,212,11,66,29,10,

150,211,11,66,30,11,

150,211,11,65,29,10,

149,210,11,65,29,11,

147,208,11,64,29,11,

147,207,11,65,29,11,

146,207,11,64,29,11,

146,206,11,63,28,11,

145,204,11,63,28,11,

145,204,11,63,28,10,

143,203,10,63,29,11,

143,202,11,63,28,11,

143,201,11,62,28,11,

142,199,11,62,28,11,

142,199,11,62,28,11,

141,199,11,62,28,11,

140,198,11,61,28,11,

140,196,11,61,28,11,

140,195,11,61,28,11,

139,195,11,60,27,11,

137,194,11,60,28,11,

137,193,11,60,27,11,

137,192,11,60,27,10,

135,192,11,60,27,11,

135,190,11,59,27,11,

135,190,11,59,27,11,

135,188,11,59,27,11,

134,188,11,58,26,11,

134,187,10,58,26,11,

133,186,11,58,26,11,

132,185,10,58,26,10,

131,184,11,57,26,11,

131,184,11,57,26,11,

130,183,11,57,25,10,

130,182,11,57,25,11,

129,182,11,57,25,11,

129,180,10,56,25,10,

128,179,11,56,25,11,

127,179,11,56,25,11,

127,178,11,56,25,11,

126,177,11,56,25,11,

126,176,11,55,25,11,

126,176,11,55,25,11,

125,175,11,55,25,11,

125,174,11,54,25,11,

124,174,11,54,28,11,

124,172,11,54,28,11,

123,172,11,54,28,11,

122,171,11,54,28,10,

122,170,11,53,28,11,

121,169,11,53,27,11,

121,169,11,53,27,11,

120,167,10,52,27,10,

120,167,10,52,26,10,

119,166,10,52,26,10,

119,165,10,51,26,11,

118,164,10,55,26,10,

118,163,10,54,26,10,

117,163,10,54,26,10,

116,163,10,54,25,10,

116,161,10,53,26,10,

115,161,10,66,25,10,

115,159,10,66,25,10,

115,159,10,66,25,10,

114,159,10,65,25,11,

114,158,10,65,25,10,

113,158,10,65,25,10,

112,157,10,65,25,10,

112,156,10,63,25,10,

112,156,11,63,25,10,

111,155,10,63,25,10,

111,154,10,63,24,10,

110,153,10,63,24,10,

110,153,10,62,24,10,

109,152,10,62,24,10,

109,152,10,62,24,10,

108,151,10,62,24,10,

108,150,10,61,24,10,

107,149,10,61,24,10,

107,149,10,61,24,10,

107,148,10,61,24,10,

106,147,10,60,24,10,

105,146,9,59,23,9,

103,146,9,59,22,9,

103,145,9,58,22,9,

103,144,9,59,22,9,

103,143,9,58,22,9,

103,143,9,57,22,9,

102,142,9,57,22,10,

102,142,9,57,22,9,

102,141,9,57,22,9,

101,141,9,57,21,9,

101,141,9,56,22,9,

100,140,9,56,22,9,

100,139,9,56,21,9,

99,139,9,56,21,9,

99,138,9,56,21,9,

99,138,9,56,21,9,

99,137,9,55,21,9,

99,137,10,55,21,9,

98,135,9,55,21,9,

97,135,9,54,21,9,

97,135,9,54,21,9,

97,135,9,54,20,9,

96,135,9,54,21,9,

96,134,9,53,21,9,

96,134,9,53,20,9,

96,133,9,53,20,9,

95,132,9,53,20,9,

95,132,9,53,20,9,

94,131,9,53,20,10,

94,131,9,52,24,9,

94,131,9,52,25,10,

94,130,9,65,25,9,

93,130,9,65,25,9,

93,129,9,63,24,9,

92,129,9,63,24,9,

92,128,9,63,24,9,

92,127,9,63,24,9,

91,127,9,63,24,9,

91,127,9,63,24,9,

91,127,9,62,24,9,

91,126,9,62,24,9,

90,126,9,62,24,9,

90,125,9,61,24,9,

89,125,9,61,23,9,

89,124,9,61,23,9,

89,124,9,61,24,9,

89,124,9,60,24,9,

88,123,9,60,23,9,

88,123,9,60,23,9,

88,122,9,60,23,9,

88,122,9,59,23,9,

87,121,9,60,22,9,

87,121,9,59,23,9,

86,120,9,59,22,9,

86,120,9,59,22,9,

86,120,9,59,22,9,

85,120,9,58,22,9,

85,119,9,57,22,9,

85,118,9,57,22,10,

84,118,9,57,22,9,

84,117,9,57,22,9,

84,118,9,57,22,9,

83,117,9,56,22,9,

83,117,9,56,21,9,

83,116,9,56,21,9,

83,116,9,56,21,9,

83,115,9,56,21,9,

82,115,9,56,21,9,

82,115,9,56,21,9,

81,114,9,55,21,9,

81,113,9,55,21,10,

81,114,9,55,21,9,

80,113,9,55,21,9,

80,113,9,54,21,9,

79,112,9,54,21,9,

79,112,9,54,21,9,

79,112,9,53,20,9,

79,111,9,53,20,9,

79,111,9,53,20,10,

78,110,9,53,20,9,

78,110,9,53,20,9,

78,109,9,52,20,9,

78,109,9,51,20,9,

78,109,9,51,20,9,

77,108,9,51,19,9,

77,108,9,51,20,9,

77,108,9,51,19,9,

76,107,9,51,19,9,

76,107,9,51,19,9,

76,107,9,51,19,9,

76,107,9,50,19,9,

76,106,9,50,19,9,

76,106,10,50,21,9,

75,105,9,50,21,9,

75,105,9,49,21,9,

75,105,9,49,21,9,

74,103,9,49,21,9,

74,103,9,49,21,9,

73,103,9,49,21,9,

73,103,9,49,21,9,

73,103,9,49,21,9,

71,103,9,48,20,9,

71,102,9,48,21,10,

71,102,9,48,20,9,

71,101,9,48,20,10,

71,101,9,48,20,9,

71,101,9,48,20,9,

71,101,9,47,20,9,

71,99,9,47,20,9,

71,99,9,47,19,9,

70,99,9,46,19,9,

70,99,9,46,19,9,

70,98,9,46,19,9,

70,98,9,46,19,9,

70,98,9,47,19,10,

69,98,9,46,20,9,

69,97,9,46,19,9,

69,97,9,46,19,9,

69,97,9,45,19,9,

68,96,9,45,19,9,

68,96,9,45,19,9,

68,96,9,45,19,9,

67,96,9,45,19,9,

67,96,9,44,19,9,

67,95,9,44,19,9,

67,95,9,45,19,9,

67,94,9,44,20,9,

66,94,9,44,18,9,

66,94,9,44,19,9,

66,93,9,44,19,9,

66,93,9,44,19,9,

66,93,9,43,18,9,

65,92,9,43,19,9,

65,92,9,43,18,9,

65,92,9,43,19,9,

65,92,9,43,18,9,

64,91,9,43,18,9,

65,91,9,43,19,9,

63,91,9,43,18,9,

63,91,9,42,18,9,

64,90,9,42,18,9,

63,90,9,42,18,9,

63,90,9,42,18,9,

63,89,9,41,18,9,

63,89,10,42,18,9,

63,89,9,41,18,9,

62,88,9,41,18,9,

62,88,9,41,17,9,

62,88,9,41,18,9,

62,88,9,41,17,9,

62,88,9,41,17,9,

61,88,9,41,17,9,

61,87,9,39,18,9,

61,87,9,41,17,9,

61,87,9,39,17,9,

60,86,9,39,17,9,

61,86,9,39,17,9,

60,85,9,39,17,9,

60,85,9,39,17,9,

60,85,9,39,17,9,

60,85,9,39,17,9,

60,84,9,39,17,9,

59,84,9,39,17,9,

59,83,9,39,17,9,

59,83,9,39,16,9,

59,83,9,38,16,9,

59,83,9,38,17,9,

59,83,9,38,17,9,

58,83,9,38,16,9,

58,82,9,38,16,9,

58,82,9,38,16,9,

57,82,9,38,16,9,

57,81,9,38,16,9,

57,81,9,38,16,9,

57,81,9,37,16,9,

57,80,9,37,16,9,

57,81,9,38,16,9,

56,80,9,37,15,9,

56,79,9,37,16,9,

56,80,9,37,16,9,

56,79,9,37,16,9,

56,79,9,37,16,9,

56,79,9,36,16,9,

56,79,9,36,17,9,

55,78,9,36,17,9,

55,78,9,36,17,10,

54,78,9,36,16,9,

54,78,9,36,17,9,

54,78,9,35,16,9,

54,77,9,36,16,9,

54,77,9,35,16,9,

54,77,9,35,16,9,

54,77,9,35,16,9,

54,76,9,35,16,9,

53,76,9,35,16,9,

53,76,9,35,16,9,

53,75,9,35,16,9,

53,75,9,35,16,9,

53,75,9,34,15,9,

53,75,9,34,15,9,

52,74,9,35,16,9,

52,74,9,34,16,9,

52,74,9,34,15,9,

51,73,9,34,15,9,

51,73,9,34,16,9,

51,73,9,34,15,9,

51,73,9,34,15,9,

51,73,9,33,15,9,

51,73,9,33,15,9,

51,71,9,33,15,9,

51,71,9,33,15,9,

50,71,9,33,15,9,

50,71,9,33,15,9,

50,71,9,33,15,9,

50,71,9,32,15,9,

49,71,9,33,15,9,

50,71,9,32,15,9,

49,71,9,32,15,9,

49,71,9,32,15,9,

49,70,9,32,15,9,

49,70,9,31,15,9,

48,70,9,31,15,9,

49,70,9,31,15,9,

48,69,9,31,15,9,

48,69,9,31,15,9,

48,69,9,31,15,9,

48,69,9,31,15,9,

48,68,9,31,15,9,

48,68,9,31,15,9,

48,68,9,31,14,9,

47,68,9,31,15,9,

47,67,9,31,14,9,

47,67,9,31,14,9,

46,67,9,31,15,9,

47,67,9,32,30,10,

47,67,9,73,33,9,

46,67,9,77,31,9,

46,66,9,77,32,9,

46,66,9,77,31,9,

46,66,9,76,31,9,

46,66,10,76,31,9,

46,66,9,75,31,9,

45,65,9,75,31,9,

45,65,9,75,31,9,

45,65,9,74,31,9,

45,65,9,74,30,9,

45,65,9,74,30,9,

45,64,9,73,31,9,

45,65,9,74,31,9,

45,63,9,77,31,9,

45,63,10,76,31,9,

44,63,9,76,31,9,

44,63,9,76,31,9,

44,63,9,76,31,9,

44,63,9,75,31,9,

44,62,9,75,31,9,

44,62,9,74,31,9,

43,63,9,74,31,9,

43,62,9,74,31,9,

43,62,9,73,30,9,

43,62,9,73,30,9,

43,61,10,73,30,9,

43,61,9,73,30,9,

43,61,9,71,30,9,

42,61,9,71,30,9,

42,61,9,71,30,9,

42,60,9,71,29,9,

42,60,9,71,29,9,

42,60,9,71,29,9,

41,60,9,71,29,9,

41,60,9,71,29,9,

41,60,9,71,29,9,

41,60,10,71,30,9,

41,60,9,70,30,9,

41,59,9,70,30,9,

41,59,9,69,30,9,

40,59,9,69,30,9,

41,59,9,69,29,9,

39,58,9,68,30,9,

39,58,9,68,29,9,

39,57,9,68,29,9,

39,58,10,68,29,9,

39,57,9,67,29,9,

39,57,9,67,29,9,

39,57,9,67,29,9,

39,57,9,66,29,9,

39,57,9,66,29,9,

39,57,9,66,29,9,

39,56,9,66,29,9,

39,56,9,66,28,9,

39,56,9,65,29,9,

39,56,9,65,29,9,

39,56,9,65,28,9,

38,56,9,65,28,9,

39,56,9,64,28,9,

38,56,9,63,28,9,

38,56,9,63,28,9,

38,55,9,63,28,9,

38,55,9,63,28,9,

37,55,9,63,28,9,

38,54,9,87,28,9,

38,54,9,86,30,9,

37,54,9,85,30,9,

37,54,9,85,29,9,

37,54,9,84,29,9,

37,54,9,84,29,9,

37,54,9,83,29,9,

36,53,9,83,29,9,

37,53,9,83,29,9,

36,53,9,83,29,9,

36,53,9,82,28,9,

36,52,9,82,28,9,

36,52,9,82,28,9,

36,52,9,81,28,9,

35,52,9,81,28,9,

35,51,9,80,28,9,

36,51,9,81,28,10,

35,51,9,81,28,9,

35,51,9,80,28,9,

35,51,9,80,28,10,

35,51,9,79,28,9,

35,51,9,79,27,9,

35,50,9,79,27,9,

35,51,9,78,27,9,

35,50,9,78,27,9,

35,50,9,78,27,9,

35,50,9,78,27,9,

34,50,9,77,26,9,

34,50,9,77,27,9,

34,50,9,77,27,9,

34,49,9,76,26,9,

34,49,9,76,26,9,

34,49,9,76,26,9,

33,49,9,76,26,9,

33,49,9,75,26,9,

33,49,9,75,26,9,

33,49,9,75,25,9,

33,48,9,74,26,9,

33,48,9,74,25,9,

33,48,9,73,25,9,

33,48,9,73,25,9,

33,48,9,73,25,9,

32,48,9,73,25,9,

32,48,9,73,25,9,

33,47,9,71,25,9,

31,47,9,71,25,9,

32,47,9,71,25,9,

31,47,9,71,24,9,

32,47,9,71,25,9,

31,47,9,71,25,9,

31,46,9,71,25,9,

31,46,9,71,24,9,

31,46,9,70,25,9,

31,46,9,70,24,9,

31,46,9,70,24,9,

31,46,9,70,24,9,

31,46,9,69,24,9,

31,45,9,69,24,9,

31,45,9,69,24,9,

31,45,9,68,24,9,

31,45,9,68,24,9,

31,45,9,67,24,9,

30,45,9,67,24,9,

30,45,9,67,26,9,

31,45,9,67,33,9,

30,45,9,67,34,9,

30,44,9,67,34,9,

30,44,9,67,33,9,

30,44,9,66,34,9,

30,44,9,65,33,9,

30,44,9,65,33,9,

30,44,9,65,33,9,

29,43,9,65,33,9,

30,44,9,65,32,9,

29,43,9,64,32,9,

29,43,9,64,32,9,

29,43,9,63,31,9,

29,42,9,63,32,9,

29,43,9,63,31,9,

29,42,9,63,31,9,

29,42,9,63,31,9,

29,42,9,63,31,9,

28,42,9,63,31,9,

29,42,9,62,31,9,

28,41,9,62,31,9,

28,41,9,62,31,9,

28,41,9,62,31,9,

28,42,9,61,30,9,

28,41,9,61,30,9,

28,41,9,61,30,9,

28,41,9,61,31,9,

28,41,9,60,30,9,

28,41,9,60,41,9,

28,41,9,60,41,9,

27,41,9,60,39,9,

27,39,9,60,39,9,

28,39,9,60,39,9,

28,39,9,60,39,9,

27,39,9,59,39,9,

28,39,9,59,39,9,

27,39,9,58,39,9,

27,39,9,58,39,9,

27,39,9,57,39,9,

27,39,9,58,39,9,

27,39,9,57,38,9,

27,39,9,57,39,10,

27,39,9,57,38,9,

26,39,9,57,38,9,

26,39,9,57,38,9,

26,39,9,57,38,9,

26,39,9,56,38,9,

26,39,10,56,37,9,

26,38,9,56,37,9,

26,38,9,56,37,9,

25,38,9,56,37,9,

25,38,9,56,37,9,

25,38,9,56,37,9,

25,38,9,55,36,9,

25,37,9,55,36,9,

25,37,9,55,36,9,

25,37,9,55,36,9,

25,37,9,54,36,9,

25,37,9,54,35,9,

25,37,9,54,35,9,

25,37,9,53,36,9,

25,37,9,53,35,9,

25,37,9,53,35,9,

25,37,9,53,35,9,

24,36,9,53,35,9,

25,36,9,52,35,9,

24,36,9,52,39,9,

25,36,9,52,39,9,

25,36,9,52,38,9,

24,36,9,51,38,9,

24,36,9,51,39,9,

24,35,9,51,38,9,

24,35,9,51,38,9,

24,35,9,51,38,9,

24,35,9,51,37,9,

24,35,9,50,37,9,

24,35,9,51,37,9,

24,35,9,50,37,9,

24,35,9,50,37,9,

24,35,9,50,37,9,

24,35,9,50,36,9,

24,34,9,49,36,9,

24,35,9,49,36,9,

24,34,9,49,36,9,

23,34,9,49,35,9,

23,34,9,49,36,9,

24,34,9,49,35,9,

23,34,9,48,35,9,

23,33,9,48,35,9,

23,33,9,48,35,9,

24,34,9,48,35,9,

23,34,9,53,35,9,

22,33,9,58,35,9,

22,33,9,57,35,9,

22,33,9,57,34,9,

22,33,9,57,35,9,

22,33,9,57,34,9,

22,33,9,56,34,10,

22,33,9,56,34,9,

22,32,9,56,34,9,

22,33,9,56,33,9,

22,32,9,56,34,9,

22,32,9,55,33,9,

22,31,9,55,33,9,

22,31,9,55,34,9,

22,31,9,55,33,9,

21,32,9,55,33,9,

22,31,9,59,33,9,

21,31,9,59,33,9,

21,31,9,59,33,9,

21,31,9,58,32,9,

21,31,9,58,33,9,

21,31,9,58,32,9,

21,31,9,57,33,9,

21,31,9,57,32,9,

21,31,9,57,31,9,

21,31,9,57,31,9,

21,31,9,57,31,9,

21,31,9,57,33,9,

21,31,9,56,32,9,

21,31,9,56,32,9,

21,31,9,56,32,9,

20,30,9,56,31,9,

21,30,9,56,32,9,

20,30,9,55,31,9,

21,30,9,55,31,9,

20,30,9,55,31,9,

20,30,9,55,31,9,

20,30,9,55,31,9,

20,29,9,54,31,9,

20,29,9,54,31,9,

19,30,9,54,31,9,

19,29,9,54,31,9,

19,30,9,53,31,9,

20,29,9,53,30,9,

19,29,9,53,30,9,

19,29,9,62,31,9,

19,29,9,62,30,9,

19,29,9,61,30,9,

19,29,9,61,30,9,

19,29,9,61,30,9,

19,28,9,61,30,9,

19,28,9,60,30,9,

19,28,9,60,29,9,

19,28,9,60,29,9,

19,28,9,59,29,9,

19,28,9,59,29,9,

19,28,9,59,29,9,

19,28,9,59,29,9,

19,28,9,58,29,9,

19,28,9,58,29,9,

19,28,9,58,28,9,

18,28,9,58,29,9,

19,28,9,57,28,9,

19,27,9,57,28,9,

19,27,9,57,28,9,

18,27,9,57,28,9,

18,27,9,56,28,9,

18,27,9,56,28,9,

18,27,9,56,28,9,

18,27,9,56,28,9,

18,27,9,56,28,9,

18,27,9,56,27,9,

18,27,9,55,27,9,

18,27,9,55,27,9,

18,27,9,55,27,9,

18,27,9,55,27,9,

18,26,9,55,27,9,

18,27,9,54,27,9,

18,26,9,54,27,9,

18,26,9,54,27,9,

17,26,9,54,26,9,

17,26,9,53,26,9,

17,26,9,53,26,9,

18,26,9,53,26,9,

17,26,9,53,26,9,

17,25,9,53,26,9,

17,26,9,52,26,9,

17,25,9,52,26,9,

17,25,9,52,26,9,

17,26,9,52,25,9,

17,25,9,51,25,9,

17,25,9,51,25,9,

17,25,9,51,25,9,

17,25,9,51,25,9,

17,25,9,50,25,9,

17,25,9,50,25,9,

17,25,9,50,25,9,

16,24,9,50,25,9,

16,25,9,50,25,9,

17,24,9,50,25,9,

17,25,9,49,24,9,

17,24,9,49,25,9,

16,24,9,49,24,9,

16,24,9,49,24,9,

16,24,9,49,24,9,

16,24,9,49,24,9,

16,24,9,48,24,9,

16,24,9,48,24,9,

16,24,9,48,24,9,

16,24,9,48,24,9,

16,24,9,48,24,9,

16,24,9,48,24,9,

16,24,9,47,24,9,

15,24,9,47,24,9,

16,24,9,47,24,9,

15,24,9,47,24,9,

16,24,9,47,23,9,

16,24,9,47,23,9,

16,23,9,46,23,9,

15,24,9,46,23,9,

16,23,9,46,23,9,

15,23,9,46,23,9,

15,23,9,46,23,9,

15,23,9,45,23,9,

15,23,9,45,23,9,

15,23,9,45,23,9,

15,23,9,45,22,9,

15,23,9,45,22,9,

15,23,9,45,22,9,

15,22,9,44,22,9,

15,22,9,44,22,9,

15,22,9,44,22,9,

15,22,9,44,22,9,

15,22,9,44,22,9,

15,22,9,44,22,9,

15,22,9,44,22,9,

15,22,9,43,22,9,

15,22,9,43,22,9,

15,22,9,43,22,9,

14,22,9,43,21,9,

15,21,9,43,21,9,

15,22,9,43,21,9,

15,22,9,42,21,9,

14,21,9,42,22,9,

15,21,9,42,22,9,

14,21,9,42,22,9,

15,21,9,42,22,9,

15,21,9,41,22,9,

15,21,9,41,22,9,

14,21,9,41,21,9,

14,21,9,41,21,9,

14,21,9,41,21,9,

15,21,9,41,21,9,

14,21,9,41,21,9,

15,20,9,41,21,9,

14,21,9,41,21,9,

14,21,9,39,20,9,

14,21,10,39,45,9,

14,21,9,39,45,9,

14,20,9,39,44,9,

14,20,9,39,44,9,

14,21,9,39,43,9,

14,20,9,39,44,9,

14,20,9,39,43,9,

14,20,9,39,43,9,

14,19,9,39,43,9,

14,20,9,39,43,9,

14,20,9,39,43,9,

14,20,9,39,42,9,

14,20,9,39,42,9,

13,20,9,38,42,9,

14,19,9,38,41,9,

14,19,9,43,42,9,

14,19,9,59,41,9,

14,19,9,59,41,9,

14,19,9,58,41,9,

14,19,9,58,41,9,

14,19,9,57,41,9,

14,19,9,57,41,9,

14,19,9,57,41,9,

13,19,9,57,41,9,

13,19,9,57,39,9,

13,19,9,56,40,9,

14,19,9,56,39,9,

13,19,9,56,39,9,

13,19,9,56,39,9,

13,19,9,56,39,9,

14,19,9,55,39,9,

13,19,9,56,39,9,

13,19,9,55,39,9,

13,19,9,54,39,9,

13,19,9,54,39,9,

13,19,9,55,38,9,

13,18,9,54,39,9,

13,18,9,54,38,9,

13,19,9,54,38,9,

13,18,9,53,38,9,

13,18,9,53,38,9,

13,18,9,52,38,9,

13,19,9,53,37,9,

13,18,9,52,38,9,

13,18,9,52,38,9,

13,18,9,52,37,9,

13,18,9,52,37,9,

13,18,9,52,37,9,

13,18,9,51,36,9,

13,18,9,51,36,9,

13,18,9,51,36,9,

13,18,9,51,36,9,

13,18,9,51,43,9,

13,18,9,50,46,9,

13,18,9,50,46,9,

13,18,9,50,46,9,

13,18,9,50,45,9,

13,18,9,49,45,9,

12,18,9,49,45,9,

13,17,9,49,44,9,

12,17,9,49,44,9,

12,17,9,49,44,9,

12,18,9,49,44,9,

12,17,9,48,44,9,

13,17,9,48,44,9,

12,17,9,48,44,9,

12,17,9,48,43,9,

13,17,9,48,43,9,

12,17,9,48,43,9,

12,17,9,48,43,9,

12,16,9,47,42,9,

12,17,9,47,42,9,

12,17,9,46,42,9,

12,17,9,47,42,9,

12,17,9,46,42,9,

12,17,9,46,41,9,

12,17,9,46,41,9,

12,17,9,46,41,9,

12,16,9,46,41,9,

12,16,9,45,41,9,

12,17,9,46,39,9,

12,16,9,45,41,9,

12,17,9,45,41,9,

12,16,9,45,41,9,

12,16,9,45,39,9,

12,16,9,45,41,9,

12,16,9,44,39,9,

12,16,9,44,39,9,

12,17,9,44,39,9,

12,16,9,44,39,9,

12,16,9,44,39,9,

12,16,9,44,39,9,

12,16,9,47,39,9,

12,16,9,47,39,9,

12,16,9,46,39,9,

12,16,9,46,39,9,

12,16,9,46,39,9,

12,15,9,45,39,9,

12,15,9,46,39,9,

12,15,9,45,38,9,

12,15,9,45,38,9,

12,15,9,45,38,9,

12,16,9,45,38,9,

12,15,9,45,37,9,

12,15,9,44,37,9,

12,16,9,45,51,9,

12,15,9,44,51,9,

11,15,9,44,51,9,

12,15,9,44,51,9,

12,15,9,43,50,9,

12,15,9,44,50,9,

11,15,9,43,50,9,

12,15,9,43,50,9,

11,15,9,43,49,9,

11,15,9,43,49,9,

11,15,9,43,49,9,

12,15,9,43,49,9,

11,15,9,42,49,9,

11,15,9,43,48,9,

11,15,9,42,48,9,

12,15,9,42,48,9,

11,15,9,42,48,9,

