
54,185,0,270,110,0,

54,184,0,268,110,0,

53,183,0,267,109,0,

53,182,0,265,109,0,

53,181,0,265,108,0,

52,180,0,263,107,0,

52,179,0,262,107,0,

51,178,0,260,107,0,

51,177,0,259,105,0,

51,176,0,258,105,0,

51,175,0,257,105,0,

51,174,0,255,103,0,

51,174,0,254,139,0,

50,173,0,253,137,0,

50,172,0,251,135,0,

50,171,0,250,135,0,

50,170,0,295,135,0,

49,169,0,293,134,0,

49,167,0,291,133,0,

49,167,0,289,133,0,

48,167,0,287,131,0,

51,169,0,286,131,0,

51,167,0,284,131,0,

50,167,0,283,130,0,

50,166,0,281,129,0,

49,165,0,280,128,0,

49,164,0,278,127,0,

49,163,0,277,127,0,

49,163,0,275,126,0,

48,162,0,273,126,0,

48,161,0,271,125,0,

48,160,0,270,125,0,

48,159,0,269,124,0,

48,159,0,268,123,0,

48,158,0,266,123,0,

48,157,0,265,123,0,

47,157,0,263,122,0,

47,156,0,262,121,0,

47,155,0,287,121,0,

46,154,0,285,120,0,

46,153,0,284,120,0,

46,152,0,281,119,0,

45,152,0,280,119,0,

45,152,0,279,118,0,

47,151,0,277,118,0,

47,150,0,275,118,0,

46,149,0,273,120,0,

46,148,0,272,119,0,

46,147,0,271,119,0,

46,147,0,270,118,0,

45,147,0,268,118,0,

45,146,0,267,117,0,

45,145,0,265,116,0,

45,144,0,263,115,0,

45,143,0,263,115,0,

44,143,0,261,114,0,

44,142,0,259,114,0,

44,142,0,259,113,0,

44,141,0,257,113,0,

43,140,0,255,112,0,

43,140,0,271,112,0,

43,139,0,293,111,0,

43,138,0,291,111,0,

42,137,0,289,110,0,

42,135,0,287,109,0,

42,135,0,285,109,0,

45,143,0,284,108,0,

45,142,0,283,108,0,

44,141,0,280,107,0,

44,140,0,280,107,0,

44,140,0,278,106,0,

44,139,0,276,106,0,

44,138,0,282,105,0,

44,137,0,280,105,0,

43,137,0,279,103,0,

43,135,0,277,103,0,

43,135,0,275,103,0,

43,143,0,274,103,0,

42,142,0,272,102,0,

42,141,0,271,102,0,

42,140,0,269,101,0,

41,140,0,268,100,0,

41,138,0,266,100,0,

41,138,0,270,99,0,

41,137,0,269,99,0,

40,137,0,267,98,0,

40,135,0,265,98,0,

39,135,0,263,97,0,

41,163,0,263,97,0,

51,162,0,262,97,0,

51,160,0,260,96,0,

50,159,0,259,96,0,

50,159,0,258,96,0,

50,158,0,255,96,0,

49,157,0,255,95,0,

49,156,0,295,94,0,

48,156,0,294,94,0,

48,155,0,292,94,0,

48,154,0,290,94,0,

48,153,0,289,93,0,

48,155,0,287,92,0,

48,154,0,286,92,0,

48,153,0,284,92,0,

48,153,0,283,91,0,

48,152,0,281,91,0,

47,151,0,280,90,0,

47,150,0,279,90,0,

46,150,0,278,89,0,

46,149,0,276,89,0,

46,147,0,275,88,0,

46,147,0,273,88,0,

46,147,0,272,88,0,

46,146,0,271,87,0,

45,145,0,269,87,0,

46,144,0,268,89,0,

45,143,0,267,96,0,

45,143,0,265,96,0,

44,142,0,263,95,0,

44,141,0,271,95,0,

44,141,0,273,94,0,

44,140,0,271,94,0,

44,140,0,270,93,0,

43,139,0,268,93,0,

46,138,0,267,92,0,

75,181,0,265,92,0,

74,180,0,263,91,0,

74,179,0,263,117,0,

73,178,0,261,116,0,

73,177,0,259,115,0,

71,176,0,259,115,0,

71,175,0,281,114,0,

71,174,0,280,113,0,

71,173,0,278,113,0,

71,172,0,276,112,0,

70,171,0,274,112,0,

76,173,0,273,111,0,

75,172,0,271,111,0,

74,171,0,270,110,0,

74,170,0,269,109,0,

73,169,0,267,109,0,

73,167,0,265,108,0,

73,167,0,266,108,0,

71,167,0,263,107,0,

71,166,0,263,107,0,

71,165,0,262,106,0,

71,163,0,260,105,0,

71,163,0,259,105,0,

70,163,0,257,103,0,

70,161,0,255,103,0,

69,161,0,255,103,0,

69,159,0,254,103,0,

69,159,0,252,103,0,

69,158,0,258,103,0,

67,157,0,255,102,0,

67,156,0,254,101,0,

67,156,0,253,101,0,

67,155,0,252,101,0,

67,159,0,250,100,0,

67,165,0,249,99,0,

67,164,0,248,99,0,

67,163,0,247,100,0,

66,163,0,246,99,0,

66,162,0,244,99,0,

66,161,0,243,98,0,

65,160,0,263,98,0,

65,159,0,263,97,0,

65,159,0,261,97,0,

64,158,0,259,96,0,

63,157,0,259,96,0,

63,157,0,256,95,0,

63,156,0,255,95,0,

63,155,0,254,95,0,

63,154,0,253,94,0,

63,153,0,251,94,0,

62,152,0,250,94,0,

62,152,0,271,93,0,

61,152,0,307,93,0,

61,150,0,305,92,0,

61,150,0,303,92,0,

60,149,0,302,91,0,

60,148,0,300,91,0,

64,174,0,299,90,0,

64,173,0,297,89,0,

64,172,0,295,90,0,

63,171,0,294,90,0,

63,170,0,291,89,0,

63,169,0,291,89,0,

62,167,0,289,88,0,

62,167,0,287,88,0,

62,166,0,286,88,0,

62,165,0,284,88,0,

61,164,0,283,86,0,

61,163,0,281,87,0,

64,167,0,280,86,0,

63,167,0,279,86,0,

63,167,0,277,125,0,

63,166,0,275,124,0,

63,165,0,274,123,0,

62,163,0,271,122,0,

62,163,0,300,121,0,

61,162,0,297,121,0,

61,161,0,295,120,0,

61,160,0,294,120,0,

60,159,0,293,119,0,

71,159,0,291,118,0,

71,159,0,289,118,0,

71,158,0,287,117,0,

70,157,0,286,118,0,

70,156,0,285,117,0,

70,156,0,283,116,0,

69,155,0,281,115,0,

69,154,0,280,115,0,

68,153,0,278,114,0,

68,152,0,277,114,0,

67,152,0,275,113,0,

67,152,0,273,112,0,

69,152,0,272,112,0,

68,151,0,271,111,0,

67,150,0,269,111,0,

67,149,0,268,110,0,

67,149,0,267,110,0,

67,147,0,281,109,0,

66,147,0,280,109,0,

66,146,0,279,108,0,

65,145,0,276,107,0,

65,144,0,275,107,0,

65,143,0,273,106,0,

65,145,0,271,105,0,

65,144,0,270,105,0,

64,143,0,269,105,0,

63,143,0,268,103,0,

63,142,0,265,103,0,

63,141,0,295,103,0,

63,141,0,293,103,0,

63,140,0,291,102,0,

62,139,0,290,102,0,

62,139,0,287,101,0,

61,139,0,287,101,0,

61,167,0,285,100,0,

61,166,0,283,99,0,

61,165,0,281,107,1,

61,164,0,280,106,0,

60,163,0,279,105,0,

60,163,0,277,105,0,

60,161,0,275,103,0,

59,160,0,274,103,0,

59,159,0,272,103,0,

58,159,0,271,103,0,

58,158,0,270,102,0,

58,158,0,269,102,0,

57,157,0,267,101,0,

57,156,0,265,103,0,

57,155,0,263,105,0,

56,154,0,262,103,0,

56,153,0,262,103,0,

56,152,0,263,103,0,

56,152,0,262,102,0,

56,152,0,260,102,0,

55,150,0,259,102,0,

55,149,0,257,101,0,

56,152,0,255,100,0,

62,150,0,255,99,0,

61,150,0,253,100,0,

61,149,0,252,99,0,

61,147,0,251,99,0,

60,147,0,250,99,0,

60,147,0,287,98,0,

60,146,0,286,98,0,

59,145,0,285,97,0,

59,144,0,283,97,0,

58,143,0,281,97,0,

58,143,0,280,96,0,

58,142,0,279,96,0,

57,141,0,276,95,0,

57,141,0,275,129,0,

57,140,0,274,129,0,

57,140,0,272,127,0,

56,139,0,270,127,0,

56,138,0,287,126,0,

56,137,0,286,125,0,

56,135,0,284,125,0,

56,135,0,283,124,0,

55,135,0,281,124,0,

57,159,0,280,123,0,

57,159,0,278,122,0,

57,158,0,277,121,0,

56,157,0,275,121,0,

57,156,0,273,121,0,

56,155,0,271,120,0,

56,155,0,279,120,0,

56,153,0,278,119,0,

55,153,0,275,118,0,

55,152,0,274,118,0,

54,152,0,272,117,0,

55,167,0,271,117,0,

55,166,0,270,115,0,

54,165,0,268,115,0,

54,163,0,266,124,0,

54,163,0,265,123,0,

54,162,0,263,123,0,

53,161,0,263,122,0,

52,161,0,261,121,0,

52,159,0,259,121,0,

52,159,0,258,120,0,

52,158,0,257,120,0,

56,169,0,255,119,0,

82,167,0,254,118,0,

81,167,0,253,118,0,

79,166,0,251,117,0,

79,165,0,249,117,0,

79,164,0,249,115,0,

79,163,0,300,115,0,

78,163,0,312,115,0,

78,162,0,308,114,0,

78,161,0,307,113,0,

77,159,0,305,113,0,

77,159,0,303,112,0,

76,162,0,302,112,0,

75,162,0,300,111,0,

76,160,0,298,111,0,

75,159,0,295,110,0,

74,159,0,294,109,0,

74,158,0,293,108,0,

73,157,0,291,109,0,

73,156,0,290,108,0,

73,156,0,287,107,0,

71,154,0,286,107,0,

71,154,0,285,106,0,

76,169,0,283,105,0,

76,167,0,282,105,0,

75,167,0,280,105,0,

75,167,0,280,105,0,

75,166,0,277,103,0,

74,165,0,275,103,0,

73,163,0,275,103,0,

73,163,0,273,103,0,

72,162,0,271,102,0,

71,161,0,270,102,0,

71,159,0,268,101,0,

71,159,0,267,100,0,

71,159,0,265,99,0,

71,158,0,263,99,0,

70,157,0,263,99,0,

70,156,0,262,98,0,

70,155,0,260,98,0,

69,155,0,290,97,0,

69,154,0,287,97,0,

68,153,0,286,96,0,

67,152,0,284,96,0,

68,152,0,283,96,0,

67,151,0,281,95,0,

67,151,0,280,94,0,

67,151,0,278,94,0,

67,149,0,277,94,0,

66,149,0,275,94,0,

66,148,0,274,94,0,

65,147,0,273,93,0,

65,147,0,280,93,0,

65,146,0,279,92,0,

64,145,0,277,92,0,

64,144,0,275,92,0,

63,143,0,274,91,0,

66,161,0,272,91,0,

68,175,0,271,90,0,

67,174,0,270,89,0,

67,173,0,268,90,0,

67,172,0,267,89,0,

67,171,0,265,89,0,

66,170,0,263,89,0,

66,169,0,292,88,0,

65,167,0,291,88,0,

65,167,0,288,88,0,

65,166,0,287,87,0,

64,166,0,285,87,0,

65,165,0,284,86,0,

64,164,0,283,86,0,

63,163,0,281,85,0,

63,162,0,280,87,0,

63,162,0,278,86,0,

63,161,0,276,86,0,

63,159,0,275,85,0,

63,159,0,321,85,0,

62,158,0,319,84,0,

62,158,0,317,83,0,

62,157,0,316,83,0,

61,156,0,313,83,0,

99,160,0,312,83,0,

103,159,0,310,82,0,

103,159,0,308,82,0,

102,158,0,306,81,0,

102,157,0,305,81,0,

101,156,0,303,80,0,

101,155,0,351,81,0,

100,155,0,350,79,0,

99,153,0,347,79,0,

99,153,0,345,79,0,

98,152,0,344,79,0,

98,152,0,341,78,0,

97,151,0,339,78,0,

97,150,0,337,78,0,

96,149,0,335,79,0,

96,148,0,334,79,0,

95,148,0,331,79,0,

95,147,0,329,79,0,

94,147,0,327,78,0,

93,146,0,326,78,0,

93,145,0,324,78,0,

93,145,0,323,77,0,

92,143,0,321,77,0,

92,145,0,319,76,0,

91,143,0,317,76,0,

91,143,0,316,110,0,

91,142,0,314,139,0,

90,142,0,312,138,0,

89,141,0,311,137,0,

89,140,0,309,136,0,

89,140,0,307,135,0,

88,139,0,306,135,0,

88,138,0,304,134,0,

88,137,0,302,133,0,

87,137,0,301,132,0,

91,140,0,299,132,0,

90,140,0,297,131,0,

89,139,0,295,131,0,

89,138,0,294,131,0,

89,137,0,293,130,0,

88,137,0,291,129,0,

88,135,0,290,129,0,

88,135,0,287,127,0,

87,135,0,287,127,0,

86,134,0,285,126,0,

86,133,0,284,126,0,

85,135,0,282,125,0,

85,134,0,280,124,0,

84,134,0,280,125,0,

83,133,0,278,124,0,

83,132,0,276,123,0,

83,132,0,275,123,0,

82,131,0,317,121,0,

82,131,0,315,121,0,

82,130,0,313,121,0,

81,129,0,312,120,0,

81,129,0,309,120,0,

81,129,0,307,119,0,

80,128,0,305,118,0,

79,127,0,304,118,0,

79,126,0,302,117,0,

79,126,0,300,116,0,

78,126,0,299,115,0,

78,125,0,307,115,0,

78,124,0,305,114,0,

77,124,0,304,114,0,

77,123,0,302,113,0,

77,123,0,300,113,0,

78,143,0,298,112,0,

81,142,0,295,112,0,

81,141,0,295,111,0,

80,140,0,293,111,0,

79,140,0,291,110,0,

79,139,0,290,110,0,

79,138,0,295,109,0,

79,137,0,293,108,0,

78,136,0,291,108,0,

78,135,0,290,107,0,

77,135,0,287,107,0,

77,145,0,287,106,0,

77,143,0,285,106,0,

76,143,0,283,105,0,

76,142,0,282,105,0,

75,141,0,281,103,0,

75,141,0,279,103,0,

74,140,0,299,103,0,

74,139,0,295,103,0,

74,138,0,295,102,0,

73,137,0,293,102,0,

73,137,0,291,101,0,

71,135,0,290,101,0,

71,135,0,287,100,0,

71,135,0,286,99,0,

71,134,0,285,99,0,

71,134,0,283,99,0,

71,133,0,281,98,0,

70,133,0,280,98,0,

70,131,0,295,97,0,

69,131,0,293,97,0,

69,131,0,291,96,0,

69,130,0,290,96,0,

69,129,0,287,95,0,

69,143,0,287,95,0,

70,143,0,284,94,0,

70,142,0,283,94,0,

70,141,0,282,127,0,

69,140,0,280,127,0,

69,140,0,278,126,0,

68,139,0,281,125,0,

68,138,0,298,124,0,

67,137,0,295,124,0,

67,137,0,295,123,0,

67,135,0,292,123,0,

67,135,0,291,122,0,

78,177,0,289,121,0,

77,176,0,287,121,0,

76,175,0,286,120,0,

76,174,0,285,120,0,

76,173,0,283,119,0,

76,172,0,281,118,0,

75,171,0,280,118,0,

75,169,0,278,117,0,

74,169,0,277,116,0,

74,167,0,275,115,0,

73,167,0,274,115,0,

73,172,0,272,114,0,

73,171,0,271,113,0,

71,169,0,270,146,0,

71,169,0,268,150,0,

71,167,0,267,149,0,

71,167,0,265,147,0,

71,166,0,274,147,0,

70,165,0,271,146,0,

70,164,0,270,145,0,

69,163,0,269,144,0,

69,163,0,268,143,0,

73,162,0,266,143,0,

73,161,0,263,142,0,

73,161,0,263,141,0,

72,159,0,262,141,0,

71,159,0,261,140,0,

71,158,0,259,140,0,

71,157,0,292,139,0,

71,156,0,291,138,0,

70,156,0,289,137,0,

70,155,0,287,137,0,

70,154,0,285,135,0,

69,153,0,284,135,0,

69,153,0,282,135,0,

69,152,0,281,134,0,

68,151,0,279,133,0,

67,151,0,278,132,0,

67,150,0,275,132,0,

67,149,0,310,131,0,

67,148,0,307,131,0,

66,147,0,306,130,0,

66,146,0,304,129,0,

65,146,0,302,129,0,

65,152,0,300,127,0,

65,156,0,299,127,0,

65,155,0,297,127,0,

64,154,0,295,126,0,

64,153,0,294,126,0,

63,152,0,291,125,0,

63,152,0,291,124,0,

63,151,0,288,124,0,

63,150,0,287,123,0,

62,149,0,285,122,0,

62,147,0,284,122,0,

62,147,0,283,121,0,

61,148,0,281,121,0,

61,147,0,280,120,0,

61,146,0,278,149,0,

61,145,0,276,147,0,

60,145,0,275,147,0,

60,143,0,273,146,0,

60,143,0,292,145,0,

59,142,0,290,144,0,

59,142,0,289,143,0,

58,141,0,287,143,0,

58,140,0,285,142,0,

65,140,0,284,141,0,

65,140,0,282,141,0,

64,139,0,281,140,0,

63,138,0,279,139,0,

63,137,0,278,139,0,

63,137,0,276,137,0,

62,135,0,304,137,0,

62,135,0,302,135,0,

62,135,0,300,135,0,

62,134,0,298,135,0,

61,133,0,295,135,0,

63,153,0,295,134,0,

63,152,0,293,133,0,

63,151,0,291,132,0,

63,150,0,290,131,0,

63,149,0,287,131,0,

62,148,0,287,130,0,

62,147,0,304,129,0,

62,147,0,302,129,0,

61,146,0,300,128,0,

61,145,0,298,127,0,

61,144,0,297,127,0,

60,145,0,295,126,0,

60,146,0,293,126,0,

61,145,0,291,125,0,

60,144,0,290,124,0,

60,143,0,288,123,0,

60,143,0,287,124,0,

59,142,0,327,123,0,

59,141,0,323,122,0,

59,141,0,321,121,0,

58,140,0,319,121,0,

58,139,0,318,120,0,

57,141,0,316,120,0,

58,141,0,314,119,0,

57,140,0,312,118,0,

57,140,0,311,118,0,

57,139,0,309,117,0,

56,138,0,307,117,0,

56,137,0,305,116,0,

56,135,0,304,115,0,

56,135,0,302,115,0,

56,135,0,300,114,0,

55,134,0,298,113,0,

55,134,0,297,113,0,

56,147,0,295,112,0,

56,145,0,293,112,0,

56,145,0,291,116,0,

55,144,0,291,115,0,

55,143,0,288,115,0,

54,142,0,287,114,0,

54,142,0,312,113,0,

54,141,0,310,113,0,

53,140,0,308,112,0,

53,140,0,307,112,0,

52,139,0,305,111,0,

53,148,0,303,111,0,

52,147,0,301,110,0,

52,146,0,300,109,0,

51,145,0,298,109,0,

51,144,0,295,108,0,

51,143,0,295,108,0,

51,143,0,293,108,0,

51,142,0,291,107,0,

50,142,0,289,106,0,

50,141,0,288,106,0,

50,140,0,286,105,0,

49,142,0,285,105,0,

49,141,0,284,103,0,

49,140,0,282,103,0,

48,139,0,280,103,0,

48,139,0,280,103,0,

48,137,0,278,102,0,

48,137,0,276,102,0,

48,135,0,274,101,0,

48,135,0,273,101,0,

47,135,0,271,100,0,

47,134,0,270,99,0,

48,145,0,269,99,0,

48,146,0,268,99,0,

48,145,0,266,98,0,

48,144,0,265,98,0,

47,143,0,263,98,0,

47,142,0,263,97,0,

47,142,0,261,97,0,

46,141,0,260,96,0,

46,141,0,259,96,0,

46,140,0,257,96,0,

46,139,0,255,95,0,

46,138,0,255,94,0,

53,146,0,254,94,0,

56,145,0,253,93,0,

56,144,0,251,93,0,

55,143,0,250,94,0,

55,142,0,249,94,0,

54,142,0,248,94,0,

54,141,0,251,93,0,

53,140,0,273,92,0,

54,140,0,271,92,0,

53,139,0,270,92,0,

53,138,0,268,91,0,

52,137,0,267,90,0,

52,138,0,265,91,0,

52,137,0,263,89,0,

52,135,0,263,89,0,

51,135,0,261,89,0,

51,135,0,260,89,0,

51,134,0,259,88,0,

51,134,0,310,88,0,

51,133,0,330,88,0,

50,132,0,327,87,0,

50,131,0,325,87,0,

49,131,0,323,86,0,

49,145,0,322,86,0,

50,153,0,319,85,0,

49,152,0,318,85,0,

49,152,0,316,87,0,

49,151,0,315,87,0,

49,150,0,313,86,0,

48,149,0,312,86,0,

48,147,0,310,85,0,

48,147,0,307,85,0,

48,146,0,306,84,0,

47,145,0,304,84,0,

47,145,0,303,83,0,

54,163,0,302,83,0,

56,162,0,300,83,0,

56,161,0,298,82,0,

56,159,0,295,82,0,

55,159,0,295,82,0,

55,158,0,294,81,0,

54,158,0,292,81,0,

54,157,0,291,80,0,

54,156,0,289,80,0,

54,155,0,287,79,0,

53,154,0,286,79,0,

53,153,0,285,79,0,

55,155,0,284,79,0,

56,155,0,282,79,0,

56,153,0,281,78,0,

56,153,0,280,88,0,

55,152,0,278,88,0,

55,151,0,276,87,0,

54,150,0,280,86,0,

54,149,0,281,86,0,

54,149,0,280,86,0,

54,147,0,278,85,0,

53,147,0,276,85,0,

53,147,0,275,84,0,

67,146,0,274,83,0,

67,146,0,273,83,0,

67,145,0,271,135,0,

66,143,0,269,138,0,

66,143,0,268,137,0,

66,143,0,267,135,0,

65,142,0,265,135,0,

65,141,0,263,134,0,

64,140,0,263,134,0,

63,140,0,262,133,0,

63,139,0,260,132,0,

65,152,0,259,131,0,

67,151,0,257,131,0,

66,150,0,255,130,0,

66,149,0,255,129,0,

65,148,0,254,129,0,

65,147,0,252,127,0,

65,147,0,297,127,0,

64,146,0,314,127,0,

63,145,0,312,126,0,

63,144,0,310,126,0,

63,143,0,309,125,0,

63,143,0,307,124,0,

63,147,0,305,124,0,

62,146,0,304,123,0,

62,145,0,301,123,0,

62,144,0,300,122,0,

61,143,0,298,122,0,

61,143,0,318,121,0,

61,142,0,322,121,0,

60,141,0,319,120,0,

60,141,0,318,120,0,

60,140,0,316,119,0,

60,139,0,315,118,0,

67,152,0,312,117,0,

67,150,0,310,117,0,

66,149,0,308,117,0,

65,148,0,306,115,0,

65,147,0,305,115,0,

65,147,0,304,115,0,

64,146,0,307,114,0,

64,145,0,305,113,0,

63,144,0,303,113,0,

63,143,0,302,112,0,

63,143,0,300,112,0,

63,143,0,298,111,0,

63,142,0,297,111,0,

62,141,0,295,148,0,

62,141,0,293,156,0,

62,140,0,291,156,0,

61,139,0,291,155,0,

61,138,0,288,153,0,

61,137,0,287,153,0,

60,137,0,286,152,0,

60,135,0,284,151,0,

60,135,0,283,150,0,

59,150,0,281,150,0,

60,148,0,280,148,0,

59,147,0,278,147,0,

59,147,0,276,147,0,

58,146,0,275,146,0,

58,145,0,273,146,0,

58,144,0,273,145,0,

57,143,0,271,143,0,

57,143,0,270,143,0,

57,142,0,269,142,0,

56,141,0,268,142,0,

56,146,0,267,141,0,

56,145,0,265,140,0,

56,144,0,263,140,0,

56,143,0,263,139,0,

56,143,0,261,138,0,

55,142,0,259,137,0,

55,141,0,258,137,0,

55,140,0,257,135,0,

54,140,0,255,135,0,

54,139,0,254,135,0,

54,138,0,253,134,0,

53,137,0,252,134,0,

59,142,0,251,133,0,

59,142,0,249,131,0,

58,141,0,248,131,0,

58,140,0,247,130,0,

57,140,0,245,130,0,

57,139,0,244,130,0,

56,138,0,289,128,0,

57,137,0,287,128,0,

56,135,0,286,127,0,

56,135,0,284,127,0,

56,135,0,283,126,0,

57,143,0,281,126,0,

57,142,0,280,125,0,

57,142,0,278,124,0,

56,141,0,276,124,0,

56,140,0,275,123,0,

56,140,0,273,123,0,

56,139,0,297,122,0,

55,138,0,295,121,0,

54,137,0,293,121,0,

54,135,0,291,120,0,

54,135,0,289,120,0,

54,135,0,289,119,0,

53,135,0,286,118,0,

53,133,0,285,119,0,

53,133,0,284,127,0,

52,132,0,281,127,0,

52,131,0,280,126,0,

51,131,0,278,126,0,

51,130,0,276,125,0,

51,129,0,275,125,0,

51,129,0,274,124,0,

50,128,0,273,123,0,

50,127,0,271,123,0,

50,127,0,270,122,0,

50,126,0,268,122,0,

49,126,0,266,129,0,

49,125,0,265,127,0,

49,124,0,263,127,0,

49,124,0,280,126,0,

48,124,0,278,126,0,

48,123,0,275,125,0,

48,122,0,275,124,0,

56,196,0,273,124,0,

127,323,0,271,123,0,

144,338,0,270,122,0,

143,335,0,268,122,0,

142,333,0,267,121,0,

141,331,0,265,121,0,

140,327,0,263,120,0,

140,327,0,337,119,0,

138,324,0,333,119,0,

137,322,0,332,118,0,

137,319,0,329,117,0,

135,318,0,327,117,0,

144,317,0,325,116,0,

145,315,0,323,115,0,

145,312,0,321,115,0,

143,311,0,319,114,0,

143,309,0,317,114,0,

142,307,0,315,114,0,

141,305,0,313,113,0,

140,303,0,312,112,0,

140,302,0,310,112,0,

139,300,0,307,111,0,

138,298,0,306,110,0,

137,295,0,304,110,0,

135,295,0,302,110,0,

135,293,0,301,110,0,

135,291,0,299,109,0,

134,290,0,297,109,0,

133,288,0,316,108,0,

133,287,0,331,108,0,

131,285,0,327,107,0,

131,283,0,327,107,0,

131,282,0,325,106,0,

211,367,0,323,106,0,

229,407,0,321,105,0,

227,403,0,319,105,0,

226,401,0,317,113,0,

224,398,0,315,113,0,

222,395,0,313,112,0,

222,391,0,327,112,0,

220,389,0,326,111,0,

219,387,0,324,110,0,

217,384,0,321,109,0,

216,382,0,319,109,0,

216,421,0,318,108,0,

214,446,0,316,108,0,

212,442,0,313,120,0,

211,439,0,312,119,0,

210,435,0,311,118,0,

209,433,0,309,118,0,

207,430,0,307,117,0,

206,427,0,305,116,0,

206,423,0,304,115,0,

204,422,0,302,115,0,

204,419,0,300,114,0,

203,415,0,297,114,1,

201,413,0,297,113,0,

199,411,0,295,131,0,

199,408,0,293,131,0,

198,405,0,291,130,0,

197,402,0,290,129,0,

195,399,0,323,128,0,

195,397,0,319,127,0,

194,395,0,318,127,0,

193,391,0,316,126,0,

192,391,0,315,126,0,

238,388,0,312,125,0,

236,385,0,310,124,0,

235,383,0,309,124,0,

233,380,0,307,123,0,

231,379,0,305,122,0,

230,376,0,329,122,0,

229,374,1,327,121,0,

227,371,1,325,120,0,

226,369,1,323,120,0,

225,414,1,321,120,1,

240,499,1,319,119,0,

241,493,1,317,118,1,

239,489,1,315,118,1,

238,486,1,313,117,1,

236,481,1,312,116,1,

235,478,1,310,115,1,

233,476,1,369,115,1,

231,472,1,366,114,1,

231,468,1,363,113,1,

229,464,1,361,113,1,

228,462,1,359,112,1,

227,460,1,356,112,1,

226,455,1,354,111,1,

224,453,1,352,110,1,

223,450,1,350,110,1,

222,448,2,348,109,1,

220,444,1,347,109,1,

219,441,1,370,108,1,

218,439,2,367,108,1,

217,435,1,365,107,1,

216,432,1,362,107,2,

215,430,1,359,106,1,

252,427,1,358,105,1,

250,425,1,355,106,1,

248,422,1,353,147,1,

247,419,1,351,146,2,

245,415,1,349,144,1,

243,414,1,347,143,1,

242,412,1,344,143,1,

240,409,1,344,142,1,

240,406,1,340,141,1,

238,404,1,339,141,1,

237,402,1,335,140,1,

235,399,2,335,139,1,

234,397,2,332,138,1,

233,395,1,331,137,1,

231,391,1,327,137,1,

230,390,2,327,135,1,

229,387,1,325,135,1,

227,385,1,323,135,1,

226,384,2,321,134,1,

225,380,1,319,133,2,

224,378,1,318,133,1,

223,376,1,316,131,1,

222,374,1,314,131,1,

220,371,1,312,131,1,

219,369,1,311,129,1,

218,368,1,309,129,1,

217,366,1,307,128,1,

216,364,2,305,127,2,

215,361,1,304,127,1,

213,359,1,302,126,1,

212,358,1,300,126,1,

211,355,1,299,125,1,

210,353,1,297,124,1,

209,351,1,295,124,1,

207,350,1,294,123,1,

207,348,1,292,122,1,

206,345,1,291,122,1,

205,34,1,289,121,1,

204,342,1,287,120,1,

203,340,1,286,120,1,

201,338,2,285,120,1,

199,335,1,283,119,1,

199,335,1,281,118,1,

198,333,1,280,117,1,

197,331,1,279,117,1,

196,329,1,277,116,1,

195,327,1,275,115,1,

194,326,1,274,115,1,

194,323,1,331,114,1,

192,322,1,329,114,1,

192,321,1,327,113,1,

190,319,1,325,112,1,

189,317,1,323,112,1,

189,315,1,321,111,1,

188,313,1,319,111,1,

187,312,1,316,110,1,

185,310,1,315,110,1,

185,308,1,313,109,1,

184,307,1,312,109,1,

183,305,1,315,108,1,

182,304,1,313,107,1,

181,302,1,312,107,1,

180,300,1,309,106,1,

179,299,1,307,105,1,

235,297,1,305,105,1,

231,295,1,304,105,1,

231,295,1,302,107,1,

230,293,1,300,107,1,

228,291,1,298,106,1,

227,290,1,297,105,1,

226,288,1,295,105,1,

224,287,1,294,103,1,

223,286,1,291,103,1,

221,284,1,290,103,1,

220,283,1,289,103,1,

219,282,1,287,102,1,

218,280,1,286,102,1,

217,279,1,284,112,1,

216,277,1,282,111,1,

214,275,1,281,110,1,

213,275,1,280,110,1,

212,273,1,278,109,1,

211,271,1,277,108,1,

209,271,1,275,108,1,

208,269,1,274,107,1,

207,268,1,271,106,1,

206,266,1,271,105,1,

205,265,1,270,143,1,

204,263,1,268,144,1,

203,263,1,266,143,0,

202,261,1,265,142,1,

201,259,1,279,141,1,

199,259,1,277,141,1,

199,257,0,275,140,1,

198,255,1,274,139,1,

197,255,1,271,138,1,

195,253,1,271,137,1,

194,252,1,269,137,1,

193,251,1,268,135,1,

192,249,1,266,135,1,

192,249,1,263,135,1,

191,248,1,275,134,1,

189,246,1,312,133,0,

189,245,1,310,132,1,

188,243,1,307,131,0,

187,243,0,306,131,1,

185,241,1,304,130,1,

184,240,0,302,129,0,

184,239,1,300,128,0,

183,238,1,299,128,1,

182,237,1,295,127,0,

181,236,1,295,126,0,

180,235,0,326,126,0,

179,233,1,323,125,0,

178,231,1,321,125,1,

177,231,0,319,124,0,

176,230,1,317,123,0,

176,238,0,315,123,0,

175,236,0,313,122,1,

174,235,1,312,121,1,

173,233,1,309,121,0,

172,231,1,307,120,0,

171,231,0,305,120,0,

171,229,0,311,119,1,

169,228,0,308,118,0,

169,227,0,306,118,1,

167,226,1,304,117,0,

167,225,0,302,116,0,

167,224,0,301,115,0,

166,223,0,299,115,0,

164,222,0,297,114,1,

163,221,0,295,114,0,

163,220,1,294,113,1,

162,219,0,292,113,0,

161,217,0,307,112,1,

161,217,1,305,112,0,

159,216,0,304,111,0,

159,215,0,302,110,0,

158,214,0,300,110,1,

158,213,1,297,109,0,

157,211,0,295,109,0,

156,211,0,295,108,0,

155,210,0,292,108,0,

155,208,0,291,107,0,

154,207,0,290,106,0,

153,206,0,289,106,0,

152,206,0,287,105,0,

152,205,0,286,104,0,

151,204,0,285,103,0,

150,204,0,283,103,0,

150,204,0,281,103,0,

149,203,1,280,103,0,

148,202,1,279,111,0,

147,201,0,276,111,0,

146,199,0,275,110,0,

146,199,0,306,110,1,

145,198,0,304,109,1,

144,197,0,302,108,0,

143,196,0,300,108,0,

143,195,0,298,107,0,

143,218,0,295,107,0,

142,216,0,295,106,1,

141,216,0,293,105,0,

141,214,0,291,105,0,

140,212,0,289,105,0,

139,211,0,287,103,0,

139,210,0,286,103,0,

138,209,0,284,103,0,

137,207,0,283,103,0,

137,207,0,281,102,0,

135,205,0,280,102,1,

135,227,0,278,101,0,

135,226,0,276,100,1,

134,224,0,275,115,0,

134,223,0,273,115,0,

133,221,0,271,114,0,

132,220,0,270,114,0,

131,219,0,269,113,0,

131,217,0,268,112,0,

130,216,0,266,112,1,

130,216,0,263,111,0,

129,214,0,263,111,0,

128,213,0,262,110,0,

127,212,0,260,110,0,

127,210,0,259,110,0,

127,209,0,257,110,0,

126,207,0,255,110,0,

125,207,0,279,109,0,

125,206,0,277,108,0,

124,205,0,275,108,0,

124,204,0,273,107,0,

123,203,0,271,106,0,

123,201,0,270,106,0,

122,199,0,268,105,0,

121,199,0,267,105,0,

121,199,0,265,103,0,

120,197,0,263,103,0,

120,196,0,262,103,0,

120,195,0,263,103,0,

118,194,0,263,102,0,

118,193,0,260,102,0,

117,192,0,259,101,0,

117,192,0,258,100,0,

117,190,0,257,99,0,

115,190,0,255,99,0,

115,188,0,254,103,0,

115,188,0,252,103,0,

115,187,0,251,103,0,

114,186,0,250,103,0,

113,185,0,275,102,0,

113,184,0,273,101,0,

112,184,0,271,101,0,

111,183,0,269,100,0,

111,182,0,268,99,0,

110,181,0,267,99,0,

110,180,0,265,99,0,

110,179,0,263,98,0,

109,179,0,263,98,0,

109,178,0,261,97,0,

108,177,0,259,97,0,

108,176,0,262,96,0,

107,176,0,260,96,0,

107,175,0,259,96,0,

106,174,0,257,95,0,

105,174,0,255,94,0,

105,177,0,254,94,0,

105,177,0,253,94,0,

103,176,0,251,93,0,

103,175,0,251,92,0,

103,174,0,249,92,0,

103,173,0,248,92,0,

103,172,0,275,92,0,

102,171,0,273,91,0,

101,170,0,271,91,0,

101,170,0,270,90,0,

101,169,0,269,89,0,

100,171,0,267,89,0,

99,169,0,266,88,0,

99,169,0,263,89,0,

99,167,0,263,94,0,

98,167,0,262,93,0,

98,167,0,260,93,0,

98,166,0,259,92,0,

97,165,0,257,92,0,

97,165,0,255,91,0,

96,163,0,254,90,0,

96,163,0,253,91,0,

96,162,0,252,89,0,

95,161,0,251,89,0,

95,161,0,249,89,0,

94,160,0,248,89,0,

94,159,0,248,89,0,

94,159,0,246,88,0,

93,158,0,245,88,0,

93,158,0,287,88,0,

93,157,0,285,87,0,

92,156,0,284,86,0,

91,156,0,281,86,0,

91,156,0,280,86,0,

91,155,0,279,85,0,

91,154,0,277,85,0,

90,153,0,275,84,0,

89,153,0,274,109,0,

89,152,0,272,108,0,

89,152,0,271,108,0,

88,151,0,269,107,0,

88,150,0,291,106,0,

88,149,0,290,106,0,

87,149,0,287,105,0,

87,148,0,286,103,0,

87,199,0,285,103,0,

86,252,0,283,103,0,

86,250,0,281,103,0,

85,248,0,280,105,0,

85,247,0,279,106,0,

84,245,0,277,105,0,

84,243,0,275,105,0,

83,242,0,285,103,0,

83,241,0,284,103,0,

83,240,0,281,103,0,

82,238,0,280,103,0,

82,237,0,278,102,0,

82,236,0,276,101,0,

81,234,0,275,101,0,

81,233,0,274,109,0,

80,231,0,272,135,0,

80,231,0,271,135,0,

79,230,0,269,134,0,

79,228,0,273,133,0,

79,227,0,271,132,0,

79,225,0,271,131,0,

78,225,0,269,130,0,

78,223,0,268,130,0,

78,223,0,266,129,0,

77,221,0,263,128,0,

77,220,0,263,127,0,

77,219,0,262,127,0,

76,217,0,260,126,0,

76,217,0,259,126,0,

76,216,0,291,125,0,

76,214,0,290,124,0,

75,213,0,287,124,0,

75,212,0,287,123,0,

75,211,0,285,122,0,

74,211,0,284,122,0,

83,211,0,281,121,0,

82,209,0,280,121,0,

82,207,0,279,120,0,

81,207,0,277,120,0,

81,206,0,275,119,0,

81,205,0,274,118,0,

80,204,0,281,117,0,

79,203,0,280,117,0,

79,202,0,278,116,0,

79,201,0,276,115,0,

79,199,0,275,115,0,

79,231,0,273,115,0,

79,230,0,271,114,0,

78,229,0,270,115,0,

78,227,0,269,115,0,

78,226,0,267,115,0,

77,225,0,266,114,0,

77,224,0,304,113,0,

76,222,0,302,113,0,

76,221,0,300,112,0,

75,220,0,299,112,0,

75,219,0,297,111,0,

75,218,0,295,111,0,

74,217,0,293,110,0,

74,215,0,292,109,0,

74,214,0,290,109,0,

73,213,0,289,108,0,

73,212,0,287,108,0,

73,211,0,285,107,0,

71,210,0,284,107,0,

71,208,0,282,106,0,

71,207,0,281,105,0,

71,207,0,280,105,0,

71,205,0,278,103,0,

71,204,0,276,103,0,

70,203,0,274,109,0,

70,202,0,273,135,0,

69,201,0,271,135,0,

69,199,0,270,135,0,

69,199,0,304,134,0,

69,198,0,301,133,0,

68,197,0,299,132,0,

68,196,0,297,131,0,

67,221,0,295,131,0,

67,220,0,294,130,0,

106,218,0,292,130,0,

105,216,0,291,129,0,

105,216,0,289,129,0,

103,214,0,287,129,0,

103,213,0,285,128,0,

103,211,0,307,127,0,

102,210,0,304,126,0,

101,209,0,302,126,0,

101,207,0,300,125,0,

100,207,0,299,124,0,

99,206,0,297,124,0,

99,205,0,295,123,0,

99,204,0,293,123,0,

98,203,0,291,125,0,

98,201,0,291,124,0,

97,201,0,288,123,0,

96,199,0,315,123,0,

96,199,0,313,122,0,

96,197,0,311,122,0,

95,196,0,309,121,0,

94,195,0,307,120,0,

97,214,0,305,120,0,

96,213,0,303,119,0,

96,211,0,302,118,0,

96,210,0,300,137,0,

95,209,0,298,135,0,

94,207,0,295,135,0,

94,207,0,323,135,0,

93,206,0,319,134,0,

93,205,0,318,133,0,

92,203,0,316,133,0,

92,203,0,315,132,0,

92,201,0,313,131,0,

91,199,0,311,131,0,

90,199,0,309,130,0,

90,198,0,307,129,0,

89,197,0,306,129,0,

89,196,0,304,127,0,

89,195,0,303,127,0,

88,194,0,302,126,0,

88,193,0,300,126,0,

87,192,0,298,125,0,

87,191,0,295,125,0,

86,190,0,295,124,0,

86,189,0,294,123,0,

85,188,0,291,123,0,

85,187,0,290,129,0,

84,186,0,288,127,0,

84,185,0,287,127,0,

83,185,0,285,126,0,

83,184,0,284,125,0,

83,183,0,282,125,0,

82,182,0,281,124,0,

82,181,0,280,124,0,

82,180,0,278,123,0,

81,179,0,276,122,0,

81,179,0,275,122,0,

79,178,0,273,122,0,

79,177,0,271,139,0,

79,176,0,271,139,0,

79,175,0,269,138,0,

79,175,0,295,137,0,

78,173,0,293,135,0,

78,173,0,291,135,0,

77,172,0,289,135,0,

77,171,0,287,134,0,

77,171,0,286,134,0,

76,169,0,284,133,0,

76,169,0,283,132,0,

76,167,0,281,131,0,

75,167,0,280,131,0,

74,167,0,278,130,0,

74,166,0,334,130,0,

74,165,0,332,129,0,

73,164,0,329,127,0,

73,163,0,327,127,0,

73,163,0,325,127,0,

110,214,0,323,126,0,

138,220,0,321,126,0,

137,218,0,319,125,0,

135,217,0,317,143,0,

135,216,0,315,142,0,

134,215,0,313,141,0,

134,213,0,312,140,0,

133,212,0,310,139,0,

132,211,0,307,138,0,

131,209,0,305,137,0,

131,208,0,304,137,0,

130,209,0,302,135,0,

129,207,0,300,135,0,

128,207,0,299,147,0,

127,205,0,297,147,0,

127,204,0,295,145,0,

126,203,0,294,145,0,

125,202,0,292,143,0,

125,201,0,290,143,0,

124,199,0,289,142,0,

123,199,0,287,142,0,

123,198,0,285,141,0,

122,198,0,284,140,0,

121,196,0,283,139,0,

121,195,0,281,139,0,

120,194,0,280,137,0,

120,193,0,278,137,0,

119,192,0,285,135,0,

118,192,0,287,135,0,

118,190,0,286,135,0,

117,189,0,285,134,0,

116,188,0,283,133,0,

115,187,0,281,132,0,

115,186,0,280,132,0,

114,185,0,278,146,0,

114,184,0,276,173,0,

113,184,0,275,172,0,

112,182,0,273,170,0,

112,181,0,271,169,0,

111,180,0,271,167,0,

111,179,0,269,167,0,

111,178,0,267,167,0,

110,177,0,265,166,0,

109,177,0,265,165,0,

109,176,0,263,163,0,

108,175,0,262,163,0,

107,174,0,260,162,0,

107,173,0,259,161,0,

107,172,0,257,159,0,

105,171,0,255,159,0,

105,171,0,255,159,0,

105,169,0,253,158,0,

103,167,0,252,157,0,

103,167,0,251,156,0,

103,167,0,249,155,0,

102,166,0,248,154,0,

102,165,0,247,153,0,

101,164,0,246,152,0,

101,163,0,244,152,0,

100,163,0,243,152,0,

100,162,0,267,150,0,

99,161,0,265,149,0,

99,159,0,263,149,0,

98,159,0,262,148,0,

98,158,0,261,147,0,

97,180,0,259,147,0,

97,179,0,257,146,0,

96,178,0,256,145,0,

96,177,0,255,145,0,

96,176,0,254,143,0,

95,175,0,252,143,0,

94,174,0,278,142,0,

94,173,0,277,141,0,

94,172,0,275,141,0,

93,171,0,273,140,0,

93,170,0,271,139,0,

92,169,0,270,139,0,

92,169,0,269,138,0,

91,167,0,267,137,0,

91,167,0,265,136,0,

91,167,0,263,135,0,

90,165,0,262,135,0,

89,164,0,301,135,0,

89,164,0,298,134,0,

88,163,0,297,133,0,

88,162,0,295,133,0,

88,161,0,293,132,0,

87,160,0,291,131,0,

86,159,0,289,131,0,

86,159,0,287,130,0,

86,158,0,286,130,0,

85,157,0,285,129,0,

85,157,0,283,128,0,

84,156,0,316,127,0,

84,155,0,314,127,0,

83,154,0,312,126,0,

83,153,0,310,126,0,

83,153,0,308,125,0,

83,152,0,306,124,0,

82,152,0,304,124,0,

82,152,0,303,124,0,

81,150,0,301,123,0,

81,150,0,299,122,0,

80,149,0,297,122,0,

80,148,0,295,121,0,

79,147,0,294,121,0,

79,147,0,293,120,0,

79,146,0,291,120,0,

78,145,0,289,119,0,

78,145,0,287,118,0,

78,144,0,286,118,0,

77,143,0,285,117,0,

77,143,0,283,117,0,

76,142,0,281,115,0,

76,142,0,280,115,0,

76,141,0,279,115,0,

76,140,0,277,114,0,

75,140,0,275,114,0,

75,139,0,275,113,0,

75,139,0,273,113,0,

74,138,0,271,112,0,

73,137,0,270,111,0,

73,137,0,268,111,0,

73,135,0,267,128,0,

71,135,0,265,127,0,

71,135,0,263,126,0,

71,135,0,263,126,0,

71,134,0,271,125,0,

71,133,0,270,124,0,

70,133,0,268,124,0,

70,132,0,267,123,0,

70,131,0,266,123,0,

69,131,0,263,122,0,

69,131,0,263,121,0,

69,130,0,262,121,0,

68,129,0,260,121,0,

68,129,0,258,120,0,

68,128,0,257,120,0,

67,127,0,257,118,0,

67,127,0,255,118,0,

67,126,0,254,117,0,

67,126,0,253,117,0,

66,126,0,252,116,0,

66,143,0,250,115,0,

66,143,0,248,115,0,

65,142,0,248,114,0,

65,141,0,247,114,0,

65,140,0,245,113,0,

65,140,0,243,112,0,

64,139,0,261,112,0,

63,138,0,259,111,0,

63,137,0,258,111,0,

63,135,0,255,110,0,

63,135,0,255,110,0,

62,135,0,253,109,0,

62,135,0,252,109,0,

61,134,0,250,108,0,

62,133,0,249,119,0,

61,132,0,248,118,0,

61,131,0,247,117,0,

61,131,0,245,116,1,

60,130,0,244,115,0,

60,129,0,242,115,0,

60,129,0,241,115,0,

60,128,0,240,114,0,

60,127,0,239,113,0,

59,152,0,238,113,0,

59,152,0,237,112,0,

59,150,0,236,112,0,

59,149,0,235,112,0,

58,148,0,233,111,0,

58,147,0,234,111,0,

58,147,0,271,110,0,

57,146,0,270,109,0,

57,145,0,269,109,0,

57,144,0,267,108,0,

57,152,0,265,108,0,

56,174,0,263,107,0,

56,173,0,263,107,0,

56,172,0,261,116,0,

56,171,0,259,115,0,

55,170,0,258,115,0,

55,169,0,257,114,0,

55,167,0,255,114,0,

55,167,0,254,113,0,

54,166,0,252,112,0,

54,165,0,251,112,0,

54,164,0,250,111,0,

54,171,0,248,111,0,

53,170,0,248,110,0,

53,169,0,246,110,0,

53,167,0,245,109,0,

52,167,0,243,108,0,

52,166,0,242,108,0,

51,166,0,286,108,0,

51,165,0,284,107,0,

51,163,0,282,106,0,

51,162,0,280,106,0,

51,162,0,279,105,0,

51,161,0,277,105,0,

50,159,0,275,103,0,

50,159,0,274,103,0,

50,158,0,271,103,0,

50,157,0,271,103,0,

49,157,0,269,102,0,

49,156,0,269,102,0,

49,155,0,267,101,0,

49,154,0,265,101,0,

48,153,0,263,100,0,

48,153,0,263,100,0,

48,175,0,262,99,0,

48,173,0,259,99,0,

48,172,0,259,99,0,

47,171,0,257,99,0,

47,170,0,255,99,0,

47,169,0,255,99,0,

47,169,0,253,99,0,

46,167,0,252,98,0,

46,167,0,251,98,0,

46,166,0,249,97,0,

46,165,0,248,97,0,

46,165,0,247,96,0,

45,163,0,246,96,0,

45,162,0,245,96,0,

45,162,0,243,95,0,

45,161,0,242,95,0,

45,161,0,241,94,0,

44,159,0,240,94,0,

44,159,0,252,94,0,

44,158,0,253,93,0,

44,157,0,251,93,0,

44,156,0,250,93,0,

43,156,0,248,92,0,

43,155,0,248,92,0,

43,155,0,246,91,0,

43,153,0,245,91,0,

43,153,0,243,117,0,

42,152,0,242,126,0,

42,151,0,241,125,0,

42,151,0,240,125,0,

41,150,0,266,124,0,

41,149,0,263,123,0,

41,148,0,263,123,0,

41,147,0,262,122,0,

41,146,0,260,121,0,

41,146,0,259,121,0,

41,145,0,257,120,0,

39,144,0,255,120,0,

39,143,0,254,119,0,

39,143,0,253,118,0,

39,142,0,252,118,0,

39,142,0,250,117,0,

39,141,0,249,116,0,

39,140,0,248,115,0,

39,140,0,246,115,0,

38,139,0,245,114,0,

39,140,0,243,114,0,

39,146,0,242,113,0,

38,145,0,241,113,0,

38,143,0,240,112,0,

38,143,0,239,112,0,

38,142,0,237,111,0,

38,141,0,271,111,0,

38,141,0,270,110,0,

37,140,0,268,109,0,

37,139,0,267,109,0,

37,139,0,265,108,0,

36,157,0,263,108,0,

42,176,0,262,107,0,

42,174,0,261,107,0,

42,173,0,259,106,0,

41,172,0,258,105,0,

41,171,0,255,105,0,

41,170,0,255,105,0,

41,169,0,254,103,0,

39,167,0,252,103,0,

39,167,0,251,103,0,

39,167,0,249,102,0,

39,166,0,248,102,0,

39,165,0,247,101,0,

39,164,0,246,101,0,

39,163,0,244,100,0,

39,162,0,243,100,0,

39,161,0,242,99,0,

38,160,0,241,99,0,

38,159,0,250,98,0,

39,159,0,248,98,0,

38,158,0,247,97,0,

38,157,0,246,97,0,

37,157,0,245,96,0,

47,156,0,243,96,0,

82,155,0,242,96,0,

81,154,0,240,95,0,

81,153,0,240,98,0,

79,153,0,238,97,0,

79,152,0,237,97,0,

79,151,0,236,97,0,

78,150,0,252,96,0,

78,149,0,251,96,0,

77,149,0,249,95,0,

77,148,0,248,95,0,

77,147,0,247,94,0,

76,147,0,245,94,0,

76,146,0,244,93,0,

76,145,0,243,96,0,

75,145,0,242,135,0,

74,143,0,240,135,0,

74,143,0,239,134,0,

74,142,0,242,133,0,

73,142,0,241,132,0,

73,141,0,239,131,0,

73,140,0,238,131,0,

71,140,0,237,130,0,

71,161,0,236,129,0,

