
11,28,3,34,31,3,

11,28,3,34,30,3,

11,28,3,34,30,3,

11,28,3,34,30,3,

11,28,3,34,30,3,

11,28,3,34,30,3,

11,28,3,33,30,3,

11,28,3,34,30,3,

11,28,3,34,30,3,

11,27,3,33,30,4,

11,27,3,34,55,3,

11,27,3,33,55,3,

11,27,3,33,54,3,

11,27,3,33,54,3,

11,27,3,32,54,3,

11,26,3,33,53,3,

11,26,3,32,53,3,

10,26,3,32,53,3,

11,26,3,32,52,3,

11,26,3,31,52,3,

10,26,3,32,52,3,

10,26,3,31,51,3,

10,25,3,31,51,3,

10,25,3,31,51,3,

10,25,3,31,51,4,

10,25,3,31,51,3,

10,26,3,31,51,3,

11,27,3,31,50,3,

12,27,3,31,50,3,

12,27,3,31,50,4,

12,27,3,31,49,3,

12,26,3,31,49,3,

11,26,3,31,49,3,

11,27,4,30,49,3,

11,26,3,30,49,3,

11,26,3,30,48,3,

12,26,3,30,49,3,

11,25,3,30,48,3,

13,26,3,30,48,3,

13,26,3,30,48,4,

15,27,3,29,47,3,

14,27,3,30,47,3,

14,26,3,29,47,3,

14,27,3,29,47,4,

14,27,3,29,46,3,

14,27,3,29,46,3,

14,27,3,29,46,3,

13,27,3,29,46,3,

14,26,4,29,46,3,

13,26,3,29,45,3,

13,26,3,29,45,3,

14,26,3,29,45,3,

13,26,4,29,45,3,

18,25,4,28,45,3,

18,25,3,28,44,3,

18,25,3,29,44,4,

17,25,3,28,44,3,

17,25,3,28,44,3,

17,25,3,28,44,3,

17,25,3,28,43,3,

17,25,3,28,43,3,

17,25,3,31,44,3,

17,24,3,31,43,4,

16,24,3,31,43,3,

17,24,3,31,43,4,

17,24,3,31,43,4,

16,24,3,30,42,3,

16,24,3,30,42,3,

16,24,3,30,41,4,

16,24,3,30,42,3,

16,24,3,30,41,3,

16,24,3,30,41,3,

16,24,3,29,41,3,

16,23,3,30,41,4,

15,24,3,29,41,3,

15,23,4,29,39,3,

15,23,3,29,39,3,

15,23,3,29,39,3,

15,23,3,29,39,3,

15,22,3,28,39,3,

15,22,3,29,39,3,

15,22,3,28,39,3,

15,22,3,28,39,3,

15,22,3,28,39,3,

15,22,3,28,39,3,

15,21,3,28,39,3,

15,22,4,28,39,3,

15,22,3,28,38,3,

15,22,3,28,38,3,

15,21,3,27,38,3,

15,21,3,28,38,3,

15,21,3,28,38,3,

15,21,3,27,37,3,

15,21,3,27,37,3,

15,21,4,27,37,3,

14,21,3,27,37,3,

14,21,3,27,37,4,

14,21,3,26,37,3,

15,21,3,26,36,3,

15,20,3,26,92,3,

14,20,3,26,91,3,

14,20,3,27,90,3,

14,20,3,27,90,3,

14,20,3,27,89,3,

14,20,3,27,89,3,

14,30,4,27,88,3,

14,31,3,26,88,4,

14,31,3,26,88,3,

15,31,3,26,87,3,

14,31,3,26,87,3,

14,31,3,26,86,3,

14,31,3,25,86,3,

14,31,4,26,85,3,

14,30,3,26,85,3,

14,31,3,26,85,3,

14,30,3,25,84,4,

14,30,3,26,83,3,

14,30,3,25,83,4,

14,30,3,25,83,4,

14,30,3,25,83,3,

14,30,3,25,83,3,

14,29,3,25,82,3,

14,29,3,25,82,3,

14,29,3,25,81,3,

14,29,3,25,81,3,

13,29,3,25,81,3,

13,29,4,38,80,4,

13,29,3,39,79,3,

13,28,3,39,79,3,

13,28,3,39,79,4,

13,28,3,39,79,3,

13,28,3,39,79,3,

14,28,3,39,78,3,

14,28,3,39,78,3,

13,28,3,39,78,3,

14,28,3,38,77,3,

13,28,3,38,77,3,

13,27,3,38,77,3,

13,27,3,38,76,3,

13,28,3,38,76,3,

13,27,3,37,76,3,

13,27,4,37,75,3,

13,27,3,37,75,3,

13,26,4,37,75,3,

13,26,3,37,75,3,

13,27,3,37,74,3,

13,26,3,37,73,3,

13,26,3,37,73,3,

13,26,3,36,73,3,

13,25,3,36,73,3,

13,26,4,36,71,3,

13,25,3,35,71,3,

12,25,3,35,71,3,

12,26,3,35,71,3,

12,25,3,35,71,3,

12,25,3,35,71,3,

12,25,3,35,71,3,

12,25,4,35,70,3,

12,25,3,35,70,3,

12,25,3,35,70,3,

14,27,3,34,69,4,

14,27,3,35,69,3,

14,26,3,34,69,3,

14,26,3,34,68,3,

14,26,3,34,68,3,

14,26,4,34,67,3,

14,25,3,34,67,3,

14,26,3,33,67,3,

14,25,3,33,67,3,

13,25,3,33,67,3,

14,25,3,33,67,4,

14,25,3,33,66,3,

14,25,3,33,66,3,

14,25,3,33,65,3,

14,25,3,32,65,3,

14,25,3,32,65,3,

14,25,3,32,65,3,

14,25,4,92,65,4,

13,24,4,105,64,3,

14,25,4,103,64,3,

14,24,3,103,63,3,

13,24,3,103,63,3,

13,24,3,102,63,3,

13,24,4,102,63,3,

13,24,3,101,62,3,

14,24,4,101,62,3,

13,24,3,100,62,3,

13,23,3,99,62,3,

13,24,4,99,96,3,

13,23,3,99,95,4,

13,24,3,99,94,3,

13,23,3,98,94,4,

13,23,3,97,93,3,

13,23,4,97,92,3,

13,22,3,97,92,3,

13,23,3,96,92,4,

13,23,3,96,91,4,

14,22,3,96,91,3,

14,22,3,95,91,3,

14,22,4,94,90,3,

14,22,3,94,90,3,

14,22,3,94,89,4,

14,22,3,94,89,4,

14,22,4,93,88,3,

14,22,3,93,88,3,

14,21,3,92,88,4,

14,21,3,92,88,4,

13,21,4,92,87,3,

14,21,3,91,86,3,

13,21,3,91,86,3,

13,21,3,90,86,3,

13,21,4,90,85,3,

13,21,3,90,85,3,

13,21,3,89,84,3,

13,20,4,89,84,4,

13,20,4,88,83,3,

13,20,3,88,83,4,

13,20,3,88,83,3,

13,20,3,88,83,3,

13,20,3,87,82,3,

13,19,3,87,82,3,

14,19,3,86,82,4,

15,29,3,86,81,3,

15,29,3,86,81,4,

23,29,4,86,81,3,

23,29,3,85,80,3,

23,29,3,84,79,4,

22,28,3,84,79,3,

22,29,3,83,79,3,

22,28,4,83,79,3,

22,28,4,84,79,3,

22,28,3,84,78,3,

22,28,3,84,78,4,

21,28,3,83,78,3,

24,28,3,83,77,3,

24,28,4,83,77,3,

24,27,3,82,77,3,

23,28,3,82,76,4,

24,29,3,82,76,3,

23,29,3,81,76,3,

23,29,3,81,75,4,

23,30,4,81,75,3,

23,29,3,80,75,3,

23,29,3,81,74,3,

22,29,4,80,74,3,

22,29,3,79,73,3,

22,29,4,79,73,3,

23,35,3,79,73,3,

23,35,4,79,73,4,

23,35,3,79,73,3,

22,34,3,78,71,3,

22,34,3,78,71,3,

22,34,3,78,71,4,

22,34,4,78,71,3,

22,33,3,77,71,4,

22,34,3,77,71,3,

22,33,3,76,71,3,

21,33,4,76,70,3,

22,33,4,76,70,3,

21,33,3,75,70,3,

21,33,3,75,69,3,

21,33,3,75,69,4,

21,32,3,75,69,3,

21,32,3,74,68,3,

21,33,4,74,68,3,

21,32,3,73,67,3,

21,32,3,73,67,3,

21,31,4,73,67,4,

21,31,3,73,67,3,

20,31,3,73,67,4,

20,31,3,71,67,4,

20,31,3,71,66,3,

20,31,3,71,66,3,

20,31,3,71,66,3,

20,31,3,71,65,3,

25,31,3,71,65,3,

27,31,3,71,65,3,

26,31,3,70,64,3,

27,31,3,70,65,4,

26,31,3,70,65,3,

26,31,4,69,64,3,

26,30,3,69,65,4,

26,30,4,69,64,3,

26,30,3,69,64,4,

25,30,3,68,63,4,

25,30,3,68,63,3,

25,30,3,67,63,3,

25,29,3,67,63,3,

25,29,3,67,63,3,

25,29,3,67,62,3,

25,29,4,67,62,3,

25,29,3,66,62,3,

25,30,4,66,62,3,

25,30,4,66,61,3,

25,30,3,66,61,3,

25,29,4,65,61,3,

25,38,3,65,61,4,

25,39,4,65,60,3,

24,38,3,65,60,3,

24,38,4,65,60,3,

24,38,3,64,60,3,

24,38,3,64,60,4,

24,37,3,63,59,3,

24,37,3,63,59,3,

24,37,3,63,59,3,

24,37,3,63,59,3,

23,37,3,63,58,3,

24,36,3,63,58,4,

23,36,3,62,57,3,

23,36,4,62,57,3,

23,36,4,62,57,3,

24,53,3,62,57,3,

25,56,4,61,57,4,

25,55,4,61,57,4,

25,55,3,61,56,3,

29,59,4,61,56,3,

28,65,4,61,56,3,

28,65,3,60,56,3,

28,64,4,60,56,4,

28,64,3,60,55,4,

28,63,3,59,55,4,

28,63,3,59,55,3,

28,66,3,59,55,4,

28,66,3,59,55,4,

27,66,3,59,54,3,

27,66,4,59,54,3,

28,65,3,58,54,4,

28,64,3,58,53,3,

27,64,3,57,53,3,

45,64,4,58,53,4,

78,127,4,57,53,3,

78,125,4,57,52,4,

77,124,4,57,52,3,

77,124,3,56,52,3,

76,123,4,56,51,3,

76,122,3,56,51,4,

75,121,4,56,51,4,

75,121,4,56,51,4,

75,120,3,55,51,3,

74,120,3,55,50,3,

74,120,4,55,50,3,

73,118,4,55,50,3,

73,118,3,54,50,3,

71,117,4,55,50,3,

71,117,3,54,50,3,

71,116,3,54,49,3,

71,115,3,54,49,3,

71,115,4,54,49,4,

71,114,3,53,49,3,

71,114,3,53,48,3,

70,113,3,53,48,4,

70,113,4,52,48,3,

70,112,3,52,48,4,

69,112,4,52,48,3,

69,112,3,51,47,4,

69,111,4,51,47,3,

68,111,3,51,48,3,

68,110,4,51,47,4,

67,110,3,51,46,3,

67,109,3,51,46,4,

67,109,4,51,46,3,

66,108,3,50,46,3,

67,108,3,50,46,4,

66,108,4,50,46,3,

66,107,4,50,45,3,

66,107,3,50,45,3,

65,105,4,49,45,4,

65,106,4,113,45,3,

64,107,4,120,63,4,

65,112,4,120,63,4,

75,177,4,119,63,3,

73,175,3,118,62,3,

73,174,3,117,62,4,

73,173,3,116,62,3,

71,172,4,115,62,4,

86,172,4,115,61,3,

133,170,3,115,61,4,

131,169,4,114,61,3,

130,167,4,113,60,3,

129,167,3,113,60,4,

128,167,4,112,59,3,

127,166,3,112,59,3,

127,165,4,111,59,4,

126,164,3,110,59,3,

125,163,3,110,58,3,

125,162,3,110,58,4,

124,182,4,109,58,4,

123,180,3,108,57,3,

123,179,4,108,57,4,

122,178,3,108,57,3,

121,177,4,107,56,3,

121,176,3,106,56,3,

120,175,3,105,56,3,

120,174,4,105,56,4,

119,173,4,105,56,3,

119,172,4,103,55,3,

118,172,3,103,55,3,

117,171,4,103,54,4,

116,169,4,103,54,3,

120,169,4,102,54,4,

126,167,4,102,54,4,

125,167,3,102,53,3,

124,167,3,101,53,4,

124,166,4,100,53,4,

123,165,3,99,53,3,

122,164,4,99,52,3,

121,163,4,99,52,3,

121,249,3,98,51,4,

121,247,3,98,51,3,

121,245,4,98,51,4,

120,243,3,97,51,4,

120,242,4,97,51,4,

121,240,4,97,50,3,

120,239,3,96,50,3,

120,238,4,96,50,4,

119,236,4,95,50,4,

118,235,4,95,50,3,

118,234,3,94,49,4,

117,233,3,94,49,3,

117,231,4,94,49,4,

116,231,3,93,48,3,

115,229,4,93,48,4,

140,229,4,92,48,3,

184,291,4,92,48,4,

182,287,4,91,48,3,

180,287,4,91,47,3,

179,285,4,91,47,3,

179,303,4,90,47,3,

177,333,3,90,47,3,

176,331,3,89,47,4,

176,329,3,89,46,3,

175,327,4,88,46,4,

174,325,4,88,46,3,

173,323,4,88,45,3,

172,322,4,88,45,4,

171,319,4,87,45,3,

170,318,4,87,45,3,

169,316,3,86,44,3,

167,314,4,86,44,3,

167,313,4,86,45,3,

167,311,4,85,44,3,

166,309,3,85,44,4,

165,307,3,84,44,4,

164,306,4,84,44,4,

163,305,4,83,44,4,

163,303,4,83,43,4,

193,302,4,83,43,4,

206,300,4,83,42,3,

204,298,4,82,43,3,

203,297,3,81,42,3,

202,295,4,81,42,3,

201,294,3,81,42,3,

199,292,4,81,41,3,

199,291,3,80,41,4,

198,290,4,80,41,4,

197,287,3,79,41,4,

196,287,3,79,41,4,

195,285,4,79,41,4,

194,284,4,79,41,3,

193,283,4,78,40,4,

192,281,4,78,39,4,

192,280,4,78,39,4,

190,279,4,77,39,4,

189,277,4,77,39,4,

188,275,4,77,39,4,

188,275,4,76,39,4,

187,273,4,77,39,4,

185,271,4,76,39,4,

185,271,4,76,39,4,

184,269,4,75,39,4,

184,268,4,75,39,4,

183,267,4,86,38,4,

181,265,5,85,38,4,

181,263,4,85,38,4,

179,263,5,84,38,4,

179,262,5,84,38,5,

178,260,4,83,37,4,

177,259,5,83,37,4,

176,258,4,83,37,4,

175,257,5,82,37,4,

175,255,5,82,37,4,

174,254,5,82,36,4,

173,253,4,81,37,4,

172,252,4,81,37,4,

172,251,5,80,36,5,

171,250,5,80,36,5,

170,249,5,79,36,5,

169,248,5,93,36,5,

169,247,5,93,35,5,

167,245,5,92,35,5,

167,243,5,92,35,5,

166,243,5,91,35,5,

166,242,5,91,35,5,

165,241,5,91,35,5,

164,240,6,90,35,5,

163,238,5,89,35,5,

163,238,6,89,35,5,

161,237,5,89,34,5,

161,236,6,88,34,6,

159,235,6,88,34,6,

159,233,6,88,34,6,

159,231,6,87,34,6,

158,231,6,87,34,5,

158,231,6,86,34,6,

157,229,6,86,33,6,

156,228,6,85,33,6,

156,227,6,85,33,6,

155,226,6,84,33,6,

154,225,7,84,32,6,

153,224,6,83,32,6,

153,223,6,83,33,6,

152,222,7,83,33,6,

152,221,7,83,33,7,

151,220,7,82,33,7,

150,219,6,82,32,6,

149,218,6,81,31,6,

148,217,7,81,31,7,

148,216,6,81,31,6,

147,216,7,79,31,6,

147,214,6,79,31,7,

146,214,7,79,31,7,

145,212,7,79,32,6,

145,211,6,79,50,6,

144,211,7,78,50,6,

143,209,7,78,50,6,

143,209,7,77,51,6,

142,207,7,77,51,6,

142,207,7,77,51,6,

141,206,6,76,51,6,

141,205,6,76,51,6,

140,204,6,76,50,6,

139,204,6,76,50,6,

139,203,6,76,50,7,

138,202,6,75,50,6,

137,201,6,75,49,6,

137,199,7,79,49,7,

135,199,7,153,49,6,

135,198,6,155,48,6,

135,197,6,153,48,6,

134,196,6,152,48,6,

134,195,6,152,48,6,

133,194,6,151,48,6,

133,194,6,150,48,6,

132,193,6,149,47,6,

131,192,6,148,47,6,

131,192,6,147,46,6,

131,190,6,147,46,6,

130,189,6,146,46,6,

129,189,6,145,46,6,

129,188,6,145,46,6,

127,187,6,143,45,6,

127,186,6,143,45,6,

127,185,6,142,45,6,

126,184,6,142,44,6,

126,184,6,141,44,6,

125,184,6,141,44,6,

124,182,6,140,44,6,

124,181,6,139,44,6,

123,180,6,138,43,6,

123,179,6,137,43,6,

123,179,6,137,43,6,

121,178,6,135,42,6,

121,177,6,135,42,5,

121,176,6,135,42,6,

120,176,5,135,42,6,

120,175,5,134,41,6,

120,174,5,133,42,6,

119,173,5,132,41,6,

118,172,6,132,41,6,

118,172,6,131,41,5,

117,171,6,131,41,6,

117,171,5,130,41,5,

115,169,5,130,41,5,

115,169,5,129,39,5,

115,167,5,127,39,5,

114,167,6,127,39,5,

114,167,5,127,39,5,

113,166,5,126,39,5,

113,166,6,126,39,6,

113,165,5,125,39,5,

112,163,5,125,38,5,

112,163,6,124,38,5,

111,163,5,124,38,5,

111,162,5,123,38,5,

110,161,5,122,38,5,

110,159,5,122,37,5,

109,159,5,121,37,5,

109,159,5,121,37,5,

108,159,5,120,37,5,

107,158,5,120,51,5,

107,157,5,119,56,5,

107,157,5,118,56,5,

106,156,5,118,56,5,

106,155,5,118,56,5,

105,154,5,117,55,5,

105,154,5,116,55,5,

103,153,5,115,54,5,

103,152,5,115,54,5,

103,152,5,115,54,5,

103,152,5,114,54,5,

103,151,5,114,53,5,

102,150,5,113,53,5,

102,149,5,113,90,5,

101,148,5,112,89,5,

101,147,5,112,88,5,

100,147,5,111,88,4,

99,146,5,110,87,5,

99,146,5,110,87,5,

99,145,4,110,86,4,

98,144,4,109,86,5,

98,143,5,109,85,5,

98,143,5,108,85,5,

97,143,4,108,84,5,

97,142,4,108,84,4,

96,142,5,107,83,5,

96,141,5,106,83,5,

96,141,4,106,83,5,

95,140,5,105,82,5,

95,139,5,105,82,5,

95,139,5,103,82,5,

94,138,5,103,81,4,

94,138,4,103,81,4,

93,137,5,103,80,5,

93,137,4,103,79,4,

93,135,4,103,79,5,

93,135,5,102,79,4,

92,135,4,101,79,5,

91,135,4,101,78,4,

91,134,5,101,78,4,

91,134,5,100,78,4,

90,133,4,99,78,4,

89,133,5,99,77,4,

89,132,4,99,77,4,

89,131,4,99,76,4,

89,131,5,98,76,5,

88,130,4,97,75,4,

88,130,4,97,75,4,

88,129,4,97,75,4,

88,129,5,97,75,4,

87,128,5,96,74,4,

87,127,5,96,74,4,

86,127,4,96,74,4,

86,127,4,95,73,4,

86,126,4,95,73,5,

85,126,5,94,71,4,

85,126,4,94,71,4,

85,125,4,94,71,4,

85,125,4,93,71,4,

84,124,4,93,71,4,

83,124,4,92,71,4,

83,123,4,92,71,4,

83,123,4,92,71,4,

83,123,4,91,70,4,

82,121,4,91,70,4,

82,121,4,91,69,4,

82,121,4,91,69,4,

81,120,4,89,69,4,

81,120,4,89,68,4,

81,120,4,89,68,4,

80,120,4,89,67,4,

80,119,4,89,67,4,

79,118,4,88,67,4,

79,117,4,88,67,4,

79,118,4,88,67,4,

79,117,4,88,66,5,

79,117,4,87,66,4,

78,115,4,86,66,4,

78,115,4,86,65,4,

78,115,4,86,65,4,

77,115,4,85,65,4,

77,114,4,85,65,4,

77,114,4,84,64,4,

76,113,4,84,63,4,

76,113,4,84,63,4,

76,113,4,84,63,4,

76,112,4,83,63,3,

75,112,5,83,63,4,

75,111,4,83,62,4,

75,110,4,82,62,4,

75,110,4,82,62,4,

74,110,4,82,62,3,

74,109,4,81,62,4,

73,109,4,81,61,4,

73,109,4,81,61,4,

73,108,4,79,61,4,

73,108,4,79,95,3,

71,108,4,79,94,3,

71,107,4,79,93,4,

71,107,4,79,93,4,

71,106,4,79,93,4,

71,106,4,79,92,4,

71,105,3,78,91,4,

71,105,4,78,91,4,

71,105,4,77,91,4,

70,103,4,77,91,4,

70,103,4,77,90,4,

70,103,4,77,89,3,

69,103,4,77,89,4,

69,103,4,76,88,4,

69,102,4,76,88,4,

69,102,4,75,88,4,

68,102,4,75,88,4,

68,101,4,75,87,4,

67,101,4,74,87,4,

67,100,4,74,86,4,

67,100,4,74,86,4,

67,99,4,73,85,4,

67,99,4,73,84,3,

66,99,4,73,85,4,

66,99,4,73,84,4,

66,98,3,73,83,4,

66,98,4,71,83,4,

66,97,4,73,83,4,

65,97,4,72,83,4,

65,96,4,71,82,4,

65,96,4,71,82,4,

64,96,4,71,82,4,

64,96,4,71,81,4,

64,96,4,71,81,4,

63,96,4,71,81,4,

63,95,4,70,80,4,

63,94,3,70,80,4,

63,94,4,70,79,4,

63,94,4,70,79,4,

63,93,3,69,79,4,

62,93,3,69,78,4,

62,93,4,69,78,4,

62,92,4,69,78,3,

62,92,4,68,78,3,

61,92,3,68,77,4,

61,92,4,68,77,4,

61,91,4,67,77,4,

61,91,3,67,76,4,

61,91,4,67,76,3,

60,90,4,71,76,3,

60,90,4,71,75,4,

60,89,4,71,75,4,

60,89,4,71,74,4,

59,89,4,71,74,3,

59,88,4,71,74,4,

59,88,4,70,73,4,

59,88,4,70,73,4,

59,88,4,70,73,3,

58,87,3,69,73,3,

58,88,4,69,71,3,

58,87,4,69,71,3,

57,86,3,68,71,3,

57,86,3,68,71,4,

57,86,4,67,71,4,

57,85,4,67,71,3,

57,85,4,67,70,3,

56,85,4,67,70,4,

57,84,4,67,70,4,

56,84,4,66,70,3,

56,83,4,66,70,3,

56,83,3,65,69,3,

56,83,3,66,69,4,

56,83,3,66,68,4,

56,83,4,65,68,3,

56,82,3,65,68,4,

55,82,3,65,67,3,

55,81,4,64,67,4,

54,81,3,64,67,4,

54,81,4,64,67,3,

54,81,4,63,67,3,

54,80,4,63,66,4,

53,80,3,63,66,4,

53,79,4,63,65,3,

53,79,3,63,65,4,

53,79,3,62,65,3,

52,79,4,62,65,4,

52,79,3,83,65,4,

52,79,4,95,64,3,

52,78,4,94,64,4,

52,78,4,94,112,4,

52,78,4,93,110,3,

51,78,4,92,109,3,

51,77,4,92,109,3,

51,77,3,92,108,4,

51,77,3,92,108,4,

51,76,4,91,108,4,

50,76,4,90,107,3,

50,76,4,90,106,3,

50,75,3,89,105,3,

50,75,4,89,105,3,

50,75,4,89,105,3,

49,75,4,88,103,3,

49,74,3,88,103,3,

49,74,3,88,103,4,

49,74,4,87,103,4,

48,74,3,87,103,3,

49,73,3,87,102,3,

48,73,4,86,101,4,

48,73,4,85,101,3,

48,71,3,85,101,3,

48,71,3,85,100,4,

48,71,4,84,99,3,

48,71,3,84,99,3,

47,71,3,83,99,3,

47,71,3,83,98,4,

47,71,3,83,98,3,

47,71,3,83,98,3,

47,70,3,82,97,4,

46,70,4,82,96,3,

46,70,4,82,97,4,

46,70,3,81,96,3,

46,70,3,81,96,3,

45,69,3,80,95,3,

45,69,4,80,95,4,

45,69,3,79,94,3,

45,68,4,79,94,3,

45,68,3,79,93,4,

45,68,4,78,93,4,

45,67,3,79,93,3,

44,67,3,78,92,4,

44,67,4,78,92,3,

44,67,4,78,92,3,

44,67,3,77,91,4,

44,88,4,77,91,3,

75,87,3,77,91,3,

74,86,4,76,90,3,

73,86,3,76,89,3,

73,85,4,76,89,4,

73,85,3,77,89,3,

73,84,4,77,88,3,

71,84,3,77,88,3,

71,84,3,76,88,3,

71,83,4,76,88,3,

71,83,3,76,87,3,

71,83,4,75,87,3,

70,82,3,75,87,3,

70,82,3,75,86,3,

70,81,3,74,86,4,

70,81,3,74,85,3,

69,84,3,74,85,3,

69,89,3,73,84,3,

69,89,3,73,84,4,

68,88,4,73,83,4,

68,88,3,72,83,3,

67,88,3,71,83,3,

67,87,3,71,83,3,

67,111,4,71,83,3,

67,199,3,71,82,3,

66,198,3,71,82,3,

66,196,3,71,81,3,

66,195,4,70,81,3,

66,194,3,70,80,3,

65,193,3,70,80,3,

65,192,3,69,79,4,

64,192,4,69,79,3,

64,190,3,69,79,3,

64,189,4,69,79,3,

63,188,4,68,79,3,

63,188,3,67,78,3,

63,187,3,67,78,3,

63,185,3,67,77,4,

62,185,4,67,77,3,

62,184,3,67,77,3,

62,183,4,66,76,3,

61,182,3,67,76,3,

62,181,3,66,76,3,

61,180,3,65,76,3,

61,179,3,65,75,4,

61,179,4,65,75,4,

60,178,4,65,75,3,

60,177,3,64,74,3,

60,176,3,64,74,3,

60,175,3,63,73,4,

59,175,3,63,73,3,

59,174,3,63,73,3,

59,173,3,63,73,3,

59,172,4,63,71,4,

58,172,4,63,71,4,

58,171,4,63,71,3,

57,170,4,62,71,3,

57,169,4,62,71,3,

57,169,3,62,71,3,

57,167,3,62,71,4,

57,167,4,61,71,4,

56,167,4,61,70,3,

56,166,3,61,70,3,

56,165,4,61,69,4,

56,164,4,60,69,3,

56,163,4,60,69,4,

56,163,4,60,69,4,

55,162,4,59,68,3,

55,161,3,60,68,3,

55,161,4,60,67,4,

55,159,4,59,67,3,

54,159,4,59,67,3,

54,158,3,58,67,3,

54,158,4,58,67,3,

53,157,4,57,66,3,

53,156,4,57,66,4,

53,156,4,57,66,3,

53,155,4,57,65,3,

52,155,3,57,65,3,

52,154,3,57,65,4,

53,153,4,57,65,4,

53,152,4,56,64,4,

53,152,3,56,63,3,

52,151,3,56,63,3,

52,150,3,56,63,3,

52,150,4,56,63,3,

51,149,4,56,63,4,

51,148,3,55,63,3,

51,147,3,55,62,3,

51,147,3,55,62,3,

51,147,3,54,62,4,

50,146,4,54,61,4,

50,145,3,54,61,4,

50,145,3,53,61,3,

50,144,3,54,61,3,

50,143,3,53,60,4,

49,143,3,53,60,3,

49,142,4,53,60,3,

49,142,3,53,60,3,

49,141,4,52,59,4,

48,140,3,52,59,3,

48,140,3,51,59,3,

48,139,4,51,58,4,

48,139,4,51,58,3,

48,138,3,51,58,3,

47,137,4,51,58,3,

47,137,3,51,57,3,

47,135,3,51,57,3,

46,135,4,51,57,3,

47,135,3,50,57,4,

46,135,3,50,57,4,

46,134,3,50,56,3,

46,134,3,50,56,3,

46,133,4,50,56,4,

45,132,3,49,56,4,

45,132,4,49,56,3,

45,131,3,49,55,3,

45,131,3,49,55,4,

44,130,4,49,55,3,

44,130,4,49,54,3,

44,129,3,48,54,3,

44,129,3,48,54,3,

44,127,3,48,54,3,

44,127,4,48,53,4,

44,127,3,48,54,4,

43,127,4,47,53,3,

43,126,3,47,53,3,

43,126,3,47,53,3,

43,125,4,47,53,4,

43,125,3,46,52,3,

42,124,3,46,52,4,

42,123,3,46,52,3,

42,123,3,46,51,3,

42,122,3,46,51,3,

41,122,4,46,51,3,

41,121,3,45,51,3,

41,121,3,45,51,3,

41,120,3,45,50,3,

41,120,4,45,51,4,

41,120,3,45,50,3,

40,119,3,44,50,3,

39,119,3,44,50,3,

39,118,3,44,49,3,

39,117,3,44,49,3,

39,117,3,44,49,3,

39,117,3,44,49,4,

39,116,3,53,48,4,

39,115,3,54,48,3,

39,115,3,54,48,3,

39,115,3,53,48,4,

39,114,3,53,48,4,

39,113,3,53,48,4,

39,113,3,53,48,3,

38,113,3,52,47,3,

38,112,3,52,47,3,

38,112,3,52,46,3,

38,112,3,51,46,3,

37,111,3,51,46,3,

38,110,3,51,46,3,

38,110,3,51,46,3,

37,109,3,51,46,4,

37,109,3,50,45,4,

37,109,4,50,45,3,

37,108,3,50,45,3,

37,108,3,49,45,4,

37,108,4,49,44,3,

36,107,3,49,44,3,

36,107,4,49,44,4,

36,106,4,49,44,4,

36,106,3,48,44,3,

35,105,3,48,44,3,

35,105,4,48,43,3,

35,103,3,48,43,3,

35,103,3,48,44,3,

35,103,4,48,43,3,

35,103,3,47,43,3,

35,103,3,47,43,4,

35,102,4,47,43,3,

35,102,3,47,42,3,

34,102,3,46,42,3,

35,101,4,46,42,4,

34,101,3,46,42,3,

34,167,3,46,41,3,

34,201,3,46,41,4,

34,199,3,45,41,3,

34,199,3,45,41,3,

33,198,3,45,41,3,

33,196,3,45,40,3,

33,195,3,45,39,3,

33,195,4,45,39,3,

33,194,3,44,39,3,

33,193,3,45,39,3,

33,192,3,45,39,3,

32,191,3,45,39,3,

32,190,3,44,39,3,

32,188,3,44,39,4,

32,188,3,44,39,3,

31,187,3,44,39,3,

31,187,3,44,39,3,

31,185,3,44,38,3,

31,185,3,44,38,3,

31,184,3,43,38,3,

31,183,3,43,38,3,

31,182,4,43,38,3,

31,181,3,43,38,3,

31,180,3,42,37,3,

31,179,3,43,38,3,

31,178,3,42,37,4,

31,177,3,42,37,3,

30,177,3,41,37,4,

30,176,3,42,37,4,

30,175,3,57,36,3,

30,175,4,57,42,4,

30,174,3,56,41,3,

30,173,3,56,41,3,

30,172,4,56,41,3,

30,171,4,56,41,3,

30,171,3,56,41,3,

29,170,4,55,41,3,

29,169,3,55,39,3,

29,167,3,55,39,4,

29,167,3,54,39,3,

29,167,3,54,39,3,

29,166,3,54,39,3,

28,166,3,54,39,3,

29,164,3,53,39,3,

28,164,3,53,39,3,

28,163,3,53,39,3,

28,163,3,53,39,3,

28,162,4,52,38,4,

28,161,3,51,38,3,

28,159,4,51,38,3,

28,159,3,51,38,3,

28,159,3,51,38,3,

27,158,3,51,37,3,

28,157,3,51,38,3,

27,157,3,50,37,3,

27,156,3,50,37,3,

28,156,3,50,37,3,

27,155,4,50,36,3,

27,154,3,50,36,3,

27,153,3,49,36,3,

27,153,3,49,36,3,

27,152,4,49,35,3,

27,152,3,49,35,3,

27,151,3,48,35,3,

26,150,3,48,35,3,

26,150,3,48,35,4,

26,149,3,48,35,3,

26,148,3,48,35,3,

26,147,4,47,35,4,

26,147,3,47,35,3,

25,146,4,47,34,3,

25,146,3,48,34,3,

25,145,3,49,34,3,

25,145,3,49,34,3,

25,143,3,48,34,3,

25,143,3,48,33,3,

25,143,3,48,33,4,

25,142,4,48,33,3,

24,142,3,47,33,3,

24,141,3,47,33,3,

24,140,3,47,33,3,

24,140,3,47,33,3,

24,139,3,46,33,3,

24,139,3,46,32,3,

24,138,3,46,32,3,

24,137,3,46,32,3,

24,137,3,46,32,3,

24,135,3,46,31,3,

24,135,3,45,31,3,

24,135,3,45,31,3,

24,135,3,45,31,3,

24,134,3,45,31,3,

41,134,3,44,31,4,

42,133,3,44,31,4,

42,132,3,44,31,3,

43,132,3,44,31,3,

42,131,4,44,31,3,

42,131,3,44,31,3,

42,130,3,43,30,3,

41,130,3,44,30,3,

41,129,3,43,30,3,

41,129,3,43,30,3,

41,127,3,43,30,3,

39,127,3,43,30,3,

40,127,3,42,29,3,

39,126,3,42,29,3,

39,126,3,42,30,3,

39,126,3,41,29,3,

39,125,3,41,29,3,

39,124,3,41,29,3,

39,124,3,41,28,3,

39,124,3,41,29,4,

39,123,4,132,49,4,

39,123,4,140,52,3,

38,122,4,139,51,3,

39,121,3,138,69,3,

38,121,4,137,68,3,

38,120,3,135,67,3,

37,120,3,135,67,4,

37,119,3,135,67,3,

37,119,4,134,66,3,

37,118,3,133,66,3,

37,118,3,133,65,3,

36,117,3,132,65,4,

36,117,3,131,87,4,

36,116,3,131,87,4,

36,115,4,131,87,3,

36,115,3,130,86,3,

35,115,3,129,85,3,

35,114,3,128,85,4,

35,114,3,127,85,3,

35,113,3,127,84,3,

35,113,4,126,83,3,

35,112,4,126,83,3,

34,112,3,126,83,3,

34,111,3,125,82,3,

34,111,3,125,82,4,

34,111,4,124,82,3,

34,110,3,123,81,3,

34,110,3,123,81,3,

33,109,3,122,80,3,

33,109,3,121,80,4,

33,108,3,121,79,3,

33,108,3,120,79,3,

33,107,3,120,79,4,

33,107,4,120,79,4,

32,106,3,119,78,3,

32,106,4,119,78,3,

32,105,3,118,78,3,

31,105,3,117,77,4,

31,104,3,117,77,3,

31,103,3,116,77,3,

31,103,4,115,76,3,

31,103,3,115,76,4,

31,103,4,115,75,4,

31,103,3,114,75,3,

31,102,3,114,75,3,

30,101,4,113,74,3,

31,101,3,113,74,3,

31,100,3,112,73,4,

30,100,3,112,73,3,

30,99,4,111,73,3,

30,99,3,111,71,3,

30,99,3,110,71,4,

29,98,3,110,71,3,

29,98,3,109,71,3,

29,98,3,109,71,3,

29,97,3,109,70,3,

29,97,3,108,71,3,

29,97,3,108,70,3,

29,96,3,107,70,3,

28,96,4,106,69,3,

29,96,3,106,69,4,

28,95,3,106,69,3,

28,95,3,105,68,3,

28,94,4,105,68,3,

28,94,3,103,67,3,

28,94,3,103,67,3,

28,93,3,103,67,3,

28,92,3,103,67,3,

28,92,3,103,67,3,

27,92,3,102,66,3,

27,92,3,102,66,3,

27,91,3,101,66,3,

27,91,3,101,66,3,

27,90,3,100,66,3,

27,91,4,100,65,3,

26,90,4,99,64,3,

27,89,3,99,65,4,

26,89,3,99,64,3,

26,89,3,99,63,4,

26,89,3,98,63,3,

26,88,4,97,63,3,

26,88,3,97,63,3,

25,88,3,97,63,4,

25,87,3,97,62,3,

25,87,3,96,62,3,

25,87,3,96,62,3,

25,86,4,96,98,3,

25,86,3,95,97,4,

25,86,3,95,97,3,

25,85,3,94,96,4,

27,85,3,94,96,3,

27,85,3,94,96,3,

27,84,3,93,95,3,

26,83,3,93,94,3,

26,83,3,93,94,3,

26,83,3,92,94,3,

26,83,3,92,93,3,

26,83,3,91,93,3,

25,82,3,91,92,3,

26,82,3,91,92,3,

25,82,4,91,92,3,

25,81,3,96,91,3,

25,81,3,95,91,3,

25,81,3,94,90,3,

25,80,3,93,89,3,

25,80,4,93,89,3,

26,79,3,93,89,3,

26,79,3,92,89,3,

26,79,3,92,88,3,

26,79,4,92,88,3,

25,79,3,91,88,3,

26,78,3,91,88,4,

25,78,3,91,87,3,

25,78,3,90,86,3,

25,78,3,90,86,3,

25,77,3,89,86,3,

25,77,4,89,85,3,

25,76,3,89,85,3,

25,76,3,89,85,3,

25,76,3,88,84,4,

24,76,3,88,83,3,

25,76,3,88,83,3,

24,76,3,87,83,3,

24,75,4,87,83,3,

24,75,4,87,83,3,

24,74,3,86,82,3,

24,74,3,86,82,3,

24,74,3,86,81,3,

24,73,3,85,81,3,

24,73,4,85,81,3,

24,73,3,84,80,4,

24,73,3,84,79,4,

24,71,3,83,79,3,

23,71,4,83,79,3,

23,71,3,83,79,3,

23,71,3,83,79,3,

23,71,3,83,78,3,

23,71,3,82,78,3,

23,71,4,82,78,3,

23,71,3,81,77,3,

23,70,4,81,77,3,

22,70,3,81,77,3,

22,70,3,80,76,3,

22,70,3,80,76,3,

22,69,3,79,76,3,

22,69,3,79,75,3,

22,69,3,79,75,3,

22,69,4,79,75,3,

22,68,3,79,75,4,

22,67,4,79,74,3,

21,67,3,78,74,4,

21,67,3,78,73,3,

21,67,3,78,73,3,

21,67,3,77,73,3,

21,67,3,77,71,3,

21,66,3,77,71,3,

21,66,3,77,71,3,

21,66,3,76,71,3,

21,65,3,76,71,3,

20,65,3,76,71,4,

20,65,3,76,71,3,

20,65,3,75,70,4,

20,65,3,75,70,3,

19,64,3,74,70,3,

20,64,4,74,70,3,

19,64,4,74,70,3,

19,63,3,73,69,3,

20,63,3,73,69,3,

20,66,3,73,68,3,

19,65,3,73,68,3,

19,65,3,71,68,3,

22,64,3,71,67,4,

22,64,3,71,67,4,

22,64,3,71,67,3,

22,63,3,71,67,3,

21,63,3,71,75,3,

22,63,3,71,83,3,

21,63,4,71,82,3,

21,63,3,70,82,3,

21,62,3,70,81,4,

21,62,3,70,81,3,

21,62,4,70,81,3,

21,62,3,69,79,3,

21,62,3,69,79,3,

21,62,3,68,79,3,

21,61,3,68,79,3,

21,61,3,68,79,3,

20,61,3,67,79,3,

20,60,3,67,78,3,

20,60,4,67,78,3,

20,60,3,67,77,3,

20,60,4,67,77,3,

19,59,3,67,77,3,

19,60,3,66,76,3,

19,59,3,66,76,3,

19,59,3,66,76,3,

19,59,3,66,76,3,

19,59,3,65,76,4,

19,58,3,65,75,3,

19,58,3,65,74,3,

19,58,3,64,74,3,

19,58,3,64,73,4,

19,57,3,64,73,3,

19,57,4,63,73,4,

19,57,3,102,73,3,

19,57,3,117,71,4,

19,57,3,115,71,3,

19,56,3,115,71,3,

18,56,4,114,71,3,

18,56,3,114,71,4,

18,56,3,113,71,3,

18,56,3,113,71,3,

18,56,4,112,70,3,

18,56,3,112,70,3,

18,55,3,111,70,3,

17,55,3,111,69,3,

17,55,3,110,69,3,

18,54,3,110,69,3,

18,54,3,109,68,4,

17,54,4,109,68,3,

17,53,3,108,67,3,

17,53,3,108,67,3,

17,53,3,107,67,4,

17,53,4,107,67,3,

17,53,3,106,66,4,

17,53,3,106,66,3,

17,52,3,105,66,4,

17,52,3,105,65,3,

17,51,3,103,65,3,

17,51,3,103,65,3,

16,51,3,103,65,3,

16,51,3,103,64,3,

16,51,3,103,64,3,

16,51,4,103,63,3,

16,51,4,102,63,3,

16,51,3,101,63,3,

16,50,3,101,63,3,

15,50,3,100,63,3,

16,50,4,100,63,3,

16,50,3,99,62,3,

16,49,3,99,62,3,

15,49,3,99,62,4,

15,49,3,98,61,3,

15,49,3,98,61,4,

15,49,3,97,61,3,

15,49,3,97,61,3,

15,48,3,97,61,4,

15,48,3,97,60,4,

15,48,3,96,60,3,

15,48,3,96,60,3,

15,48,3,95,59,3,

15,48,3,95,59,3,

15,48,3,94,59,3,

15,48,3,94,59,3,

15,47,3,93,58,3,

14,47,3,93,58,4,

15,47,3,93,58,4,

15,47,4,92,57,3,

14,46,3,92,57,3,

14,46,3,92,57,3,

14,46,3,91,57,4,

14,46,3,91,56,3,

14,46,4,91,56,3,

14,46,4,90,90,3,

14,45,3,90,89,3,

14,45,4,89,89,3,

14,45,4,89,89,3,

14,44,3,89,88,4,

14,45,3,88,88,3,

14,44,3,88,88,3,

14,44,3,88,87,3,

14,44,4,88,87,3,

13,44,3,88,86,3,

14,44,4,88,86,3,

14,44,3,86,86,3,

13,44,3,86,85,3,

13,44,3,86,85,4,

13,43,4,85,84,3,

13,43,3,85,84,3,

13,43,3,85,83,4,

13,43,3,85,83,3,

13,43,3,84,83,4,

13,43,3,85,82,3,

13,42,3,84,82,3,

13,43,3,84,81,3,

13,42,3,83,81,3,

13,42,4,83,81,3,

13,42,3,83,80,3,

13,41,3,83,79,3,

13,41,3,82,79,3,

13,41,3,82,79,4,

13,41,3,81,79,3,

12,41,3,81,79,3,

13,41,3,81,78,3,

12,41,3,80,78,4,

12,39,3,81,78,3,

12,39,3,91,78,3,

12,39,3,91,78,3,

12,39,3,90,77,3,

12,39,3,90,77,3,

12,39,3,89,76,3,

12,39,3,89,76,3,

12,39,3,89,75,4,

12,39,3,88,75,3,

12,39,3,88,75,3,

12,39,3,88,75,4,

12,39,3,88,74,3,

12,38,3,87,73,3,

12,39,4,86,74,3,

12,39,4,86,73,3,

12,38,3,85,73,3,

11,38,3,85,73,3,

12,38,3,85,71,3,

12,38,3,84,71,3,

12,37,3,84,71,3,

12,38,4,84,71,3,

11,38,3,83,71,3,

11,37,3,83,71,3,

11,37,3,83,71,3,

11,37,3,82,70,3,

11,36,3,82,70,4,

11,37,3,82,70,3,

11,37,4,81,69,3,

11,36,3,81,69,3,

11,36,4,81,69,3,

11,35,3,81,68,3,

11,36,4,80,69,3,

11,36,3,85,67,3,

11,35,3,85,67,3,

11,35,3,84,67,3,

11,35,3,84,67,3,

11,35,3,83,67,3,

10,35,3,83,66,3,

11,35,3,83,66,3,

10,35,4,83,66,4,

11,35,3,82,65,3,

11,34,3,82,65,3,

10,34,4,82,65,3,

10,34,3,81,65,3,

10,34,3,80,65,3,

10,34,3,80,64,3,

10,34,3,80,64,3,

11,34,3,79,63,3,

10,34,3,79,63,3,

11,34,3,79,63,3,

10,33,3,79,63,4,

10,33,3,78,63,3,

10,33,3,78,62,3,

10,33,3,78,62,3,

10,33,3,78,62,3,

10,33,3,77,62,3,

10,33,3,77,62,3,

10,33,3,77,61,3,

10,33,3,76,61,3,

10,32,3,76,61,4,

10,32,3,76,60,3,

9,31,3,76,60,3,

9,31,3,75,60,3,

10,31,3,75,60,4,

10,31,4,75,59,3,

10,31,3,74,59,3,

9,31,3,74,59,3,

9,31,4,74,58,3,

9,31,3,73,58,3,

9,31,3,73,58,3,

9,31,3,73,58,4,

9,31,3,71,58,4,

9,31,4,71,57,3,

9,31,3,71,57,3,

9,31,3,71,57,3,

9,31,3,71,57,3,

9,31,3,71,56,3,

9,31,3,71,56,3,

9,31,3,71,56,3,

9,30,3,71,56,3,

9,30,3,70,56,3,

9,30,3,70,56,3,

9,30,3,70,55,4,

9,30,3,69,55,3,

9,30,4,69,55,3,

9,30,3,69,55,3,

9,30,3,69,54,3,

9,30,3,68,55,3,

8,29,3,68,54,3,

9,29,3,68,54,3,

8,29,3,67,54,4,

8,29,3,67,53,3,

7,29,3,67,53,3,

9,29,3,67,53,3,

8,29,3,67,53,3,

7,29,3,67,52,3,

8,28,3,66,52,3,

7,28,3,66,51,3,

7,28,3,66,51,3,

7,28,3,65,51,3,

7,28,3,65,51,3,

7,28,3,65,51,3,

7,28,3,64,51,3,

7,28,3,64,51,3,

7,28,3,66,51,3,

7,28,3,66,51,3,

7,27,3,65,50,3,

7,27,3,65,50,3,

7,27,3,65,50,3,

7,27,3,65,49,3,

7,27,3,64,49,3,

7,27,3,64,49,3,

7,27,3,63,49,3,

7,27,3,63,49,3,

7,27,3,63,48,3,

7,26,3,63,48,3,

7,26,3,63,48,3,

7,26,3,63,48,4,

7,26,3,62,48,3,

7,26,3,62,48,3,

7,26,3,62,47,3,

7,26,3,62,48,3,

7,26,3,61,47,3,

7,25,3,61,47,3,

7,26,3,61,47,3,

7,25,3,61,46,3,

7,25,3,60,47,3,

7,25,3,60,46,3,

7,25,3,60,46,3,

7,25,3,60,46,3,

7,25,3,60,46,3,

7,25,3,60,46,3,

7,25,3,59,45,3,

7,25,3,59,45,3,

7,25,3,59,45,3,

7,25,3,59,45,3,

7,24,3,58,44,3,

7,24,3,58,44,3,

7,24,3,58,44,3,

7,24,3,57,44,3,

7,24,3,57,44,3,

7,24,3,57,44,3,

7,24,3,57,44,3,

7,24,3,57,44,3,

7,24,3,57,43,3,

7,24,3,57,43,3,

7,24,3,56,43,3,

7,24,3,56,43,3,

7,24,3,56,43,3,

7,24,3,56,42,3,

7,23,3,56,42,3,

7,23,3,56,42,3,

7,23,3,56,42,4,

7,24,3,55,41,3,

7,23,3,55,41,3,

6,23,3,54,41,3,

7,23,3,54,41,3,

7,22,3,54,41,3,

7,23,3,54,41,3,

6,22,3,54,41,4,

7,23,3,76,40,3,

7,22,3,105,39,3,

6,22,3,105,40,3,

7,22,3,105,39,3,

7,22,3,103,39,3,

7,22,3,103,39,3,

6,22,3,103,39,3,

6,22,3,103,39,3,

6,22,3,102,39,3,

6,21,3,102,39,3,

6,21,3,101,39,3,

7,21,3,101,39,3,

6,21,3,101,39,3,

6,21,3,100,39,3,

6,21,3,99,38,3,

6,21,3,99,38,3,

6,21,3,99,38,3,

6,21,4,98,38,3,

6,21,3,98,38,3,

6,20,3,97,38,3,

6,21,3,97,37,3,

6,20,3,97,37,3,

6,20,3,96,37,3,

6,20,3,96,37,3,

6,20,3,96,37,3,

6,20,3,95,36,3,

6,20,3,95,37,3,

6,20,3,95,36,3,

6,19,3,94,36,3,

6,20,3,94,36,3,

6,20,3,94,36,3,

6,19,3,93,35,3,

6,19,3,93,35,3,

6,19,3,92,35,3,

6,19,3,92,35,3,

6,19,3,92,35,3,

6,19,3,91,35,3,

6,19,3,91,35,3,

6,19,3,90,35,3,

6,19,3,90,35,3,

5,19,3,89,35,3,

5,19,3,89,34,4,

5,19,3,89,34,3,

6,19,3,88,34,3,

6,19,3,88,34,3,

6,19,3,88,34,3,

9,19,3,88,33,3,

9,18,3,88,34,3,

9,19,3,87,33,3,

9,19,3,87,33,3,

9,18,3,86,33,3,

9,18,3,86,33,3,

9,18,4,86,33,3,

9,18,3,85,33,3,

9,18,3,85,33,3,

9,18,3,84,32,3,

9,18,3,84,31,3,

9,17,3,83,31,3,

9,18,3,83,31,3,

9,17,3,83,31,3,

9,18,3,83,31,3,

8,17,3,82,31,3,

9,17,3,82,31,3,

8,17,3,82,31,3,

8,17,4,82,31,3,

7,17,3,81,31,3,

9,17,3,81,31,3,

7,17,3,81,31,3,

7,17,3,81,31,3,

7,17,3,80,31,3,

7,17,3,79,31,3,

8,17,3,79,31,3,

7,17,3,79,30,3,

7,17,3,79,30,3,

7,17,3,78,30,3,

7,16,3,78,30,3,

7,16,3,78,30,3,

7,17,3,78,30,3,

7,16,3,77,30,3,

7,16,3,77,30,3,

7,16,3,77,29,3,

7,16,3,76,30,3,

7,16,3,76,30,3,

7,15,3,76,30,3,

7,16,3,76,30,3,

7,16,3,75,29,3,

7,15,3,75,29,3,

7,16,3,75,30,3,

7,15,3,75,30,3,

7,15,3,74,29,3,

7,15,3,74,29,3,

7,15,3,74,29,3,

7,15,4,73,29,3,

7,15,3,73,29,3,

7,15,3,73,29,3,

7,15,3,72,29,3,

7,15,3,71,29,3,

7,15,3,71,28,3,

7,15,3,71,29,3,

7,15,3,71,28,3,

7,15,3,71,28,3,

7,15,3,71,28,3,

7,15,3,71,28,3,

7,15,3,70,28,3,

7,14,3,70,28,3,

7,15,3,70,28,3,

7,15,3,70,28,3,

7,14,3,69,27,3,

7,14,3,69,27,3,

7,15,3,69,27,3,

7,14,3,69,27,3,

7,14,3,68,27,3,

7,14,3,68,27,3,

7,14,3,67,27,3,

7,14,3,67,26,3,

7,14,3,67,27,3,

7,14,3,67,27,3,

7,14,3,67,27,3,

7,14,3,66,26,3,

7,14,3,66,26,3,

7,14,3,66,26,4,

6,14,3,66,26,3,

6,14,3,65,25,3,

7,14,3,65,25,3,

7,14,3,65,25,3,

7,14,3,65,25,3,

6,14,3,64,25,4,

7,14,3,64,25,3,

6,13,3,64,25,3,

6,13,3,63,25,3,

6,14,3,63,25,3,

7,13,3,63,25,3,

6,13,3,63,25,3,

6,13,3,63,24,3,

6,13,3,63,25,3,

6,13,3,62,24,3,

6,13,3,62,24,3,

6,13,3,62,24,3,

6,13,3,61,24,3,

6,13,3,61,24,3,

6,12,3,61,24,3,

6,13,3,61,24,3,

6,13,3,61,24,3,

6,13,3,61,24,3,

6,13,3,60,24,3,

7,13,3,60,24,3,

6,12,3,60,23,3,

6,13,3,60,24,3,

6,12,3,60,24,3,

6,12,3,60,23,3,

6,12,3,59,23,3,

6,12,3,59,23,3,

6,12,3,59,23,3,

6,12,3,59,22,3,

7,12,3,59,22,3,

6,12,3,58,23,3,

6,12,3,57,22,3,

6,12,3,58,22,3,

6,12,3,57,22,3,

6,12,3,57,23,3,

6,12,4,57,22,3,

6,12,3,57,22,3,

6,12,3,57,22,3,

6,12,3,56,22,3,

6,12,3,57,22,3,

6,11,3,56,21,3,

6,12,3,56,21,3,

6,12,3,56,22,3,

6,12,3,56,21,3,

6,12,3,55,21,3,

6,11,3,55,21,3,

6,11,3,55,21,3,

6,12,3,54,21,3,

6,11,3,54,21,3,

6,11,3,54,21,3,

6,11,3,54,20,3,

6,11,3,54,21,3,

6,11,3,54,21,3,

6,11,3,53,20,3,

5,11,3,53,20,3,

6,11,3,53,20,3,

6,11,4,53,49,3,

6,11,3,52,49,3,

6,11,3,52,48,3,

6,11,3,52,48,3,

5,11,3,52,48,3,

6,11,3,51,48,3,

5,11,3,51,48,3,

5,11,3,51,47,3,

6,11,3,51,47,3,

6,11,3,51,46,3,

6,11,3,51,46,3,

6,10,3,51,47,3,

5,11,3,51,46,3,

5,10,3,50,46,3,

5,10,3,50,46,3,

5,10,3,50,46,3,

5,10,3,49,46,3,

6,10,3,49,46,3,

5,10,3,49,45,3,

6,10,3,49,45,3,

6,10,3,49,45,3,

6,10,3,49,44,3,

5,10,3,48,44,3,

5,10,4,49,44,3,

5,10,3,48,44,3,

5,10,3,48,44,3,

5,10,3,48,44,3,

5,10,3,48,44,3,

5,10,3,48,44,3,

5,10,3,48,43,3,

5,10,3,47,43,3,

5,10,3,47,43,3,

5,10,3,47,42,3,

6,9,3,47,42,3,

5,9,3,46,42,3,

5,10,3,46,42,3,

5,9,3,46,42,3,

5,9,3,46,41,3,

5,9,3,46,41,3,

5,9,3,46,41,3,

5,10,3,45,41,3,

5,9,3,45,41,3,

5,9,3,45,41,3,

5,9,3,45,39,3,

5,9,3,45,40,3,

5,9,3,45,39,4,

5,9,3,45,39,3,

5,9,3,44,39,3,

5,9,3,44,39,3,

5,9,3,44,39,3,

5,9,3,69,39,3,

5,9,3,111,39,3,

5,9,3,110,39,3,

5,9,3,109,39,3,

5,9,3,109,39,3,

5,9,3,108,38,3,

5,9,3,108,39,3,

5,8,3,107,38,3,

4,9,3,106,38,3,

5,9,3,106,38,3,

5,9,3,105,38,3,

5,9,3,105,37,3,

5,7,3,105,37,3,

5,9,3,103,37,3,

5,9,3,103,37,3,

5,7,3,103,37,3,

5,8,3,103,37,3,

5,7,3,103,37,3,

5,9,3,102,36,3,

5,8,3,102,36,3,

5,7,3,101,36,3,

5,8,3,101,36,3,

5,7,3,100,35,3,

5,7,3,100,35,3,

5,8,3,99,35,3,

5,7,3,99,35,3,

5,7,3,99,35,3,

4,7,3,99,35,3,

5,7,3,98,35,3,

5,7,3,98,34,3,

5,7,3,97,35,3,

5,7,3,97,34,3,

5,7,3,97,34,3,

5,7,3,96,34,3,

5,7,3,96,34,3,

5,7,3,96,34,3,

4,7,3,96,34,3,

5,7,3,95,33,3,

5,7,3,94,33,3,

4,7,3,94,34,3,

5,7,3,94,33,3,

4,7,3,93,33,3,

4,7,3,93,33,3,

4,7,3,93,33,3,

5,7,3,92,32,3,

4,7,3,92,33,3,

5,7,3,92,32,3,

5,7,3,92,73,3,

5,7,3,92,73,3,

5,7,3,91,71,3,

4,7,3,91,71,3,

5,7,3,90,71,3,

5,7,3,90,71,3,

4,7,3,89,71,3,

4,7,3,89,71,3,

4,7,3,89,70,3,

4,7,3,88,69,4,

4,7,3,88,69,3,

5,7,3,88,69,3,

4,7,3,88,68,3,

4,7,3,88,68,3,

4,7,3,87,68,3,

4,7,3,87,67,3,

4,7,3,87,67,3,

4,7,3,86,67,3,

4,7,3,86,67,3,

4,7,3,85,66,3,

4,7,3,85,66,3,

4,7,3,84,66,3,

4,7,3,85,66,3,

4,7,3,84,66,3,

4,7,3,83,65,3,

4,7,3,83,65,3,

4,7,3,83,65,3,

4,7,3,83,64,3,

4,7,3,83,64,3,

4,7,3,82,63,3,

4,7,3,82,63,3,

4,7,3,82,63,3,

4,7,3,81,63,3,

4,7,3,81,63,3,

4,7,3,81,62,3,

4,7,3,81,62,3,

4,7,3,80,62,3,

4,6,3,79,62,3,

4,6,3,79,62,3,

4,7,3,79,62,3,

4,7,3,79,61,3,

4,7,3,79,61,3,

4,7,3,78,61,3,

4,6,3,78,61,3,

4,6,3,78,60,3,

4,6,3,78,60,3,

4,6,3,77,60,3,

4,6,3,77,60,3,

4,6,3,77,59,3,

4,6,3,77,59,3,

4,7,3,77,59,3,

4,6,3,76,59,3,

4,6,3,76,58,3,

4,6,3,76,58,3,

4,7,3,75,58,3,

4,6,3,75,57,3,

4,6,3,75,58,3,

4,6,3,75,57,3,

4,6,3,74,57,3,

4,6,3,74,57,3,

4,6,3,74,57,3,

4,6,3,73,56,3,

4,6,3,73,56,3,

4,6,3,73,56,3,

4,6,3,73,56,3,

4,6,3,71,56,3,

4,6,3,71,55,3,

4,6,3,71,55,3,

4,6,3,71,55,3,

4,6,3,71,55,3,

4,6,3,71,54,3,

4,6,3,71,54,3,

4,6,3,71,54,3,

3,6,3,71,54,3,

4,6,3,70,54,3,

4,6,3,70,54,3,

4,6,3,70,53,3,

4,6,3,69,53,3,

3,6,3,69,53,3,

