
75,112,4,263,78,33,

74,112,4,263,77,31,

74,111,3,262,77,31,

73,111,4,281,77,33,

73,110,4,280,76,30,

73,110,4,279,76,31,

87,122,4,277,76,36,

88,121,4,275,75,36,

87,120,4,274,75,36,

87,120,3,271,75,35,

86,119,4,271,74,35,

86,118,4,269,74,37,

85,118,3,268,74,35,

85,117,4,266,73,37,

84,116,4,271,73,34,

84,115,3,270,71,34,

83,115,4,268,73,37,

83,124,3,267,71,37,

87,123,4,265,71,38,

86,123,4,263,71,35,

85,122,3,263,71,37,

85,121,4,262,127,37,

85,120,4,260,154,35,

84,120,4,258,152,34,

83,120,4,257,152,34,

83,119,4,275,151,36,

83,117,4,274,150,34,

82,117,4,272,149,35,

83,120,3,271,148,34,

83,121,4,269,147,33,

82,119,3,268,146,33,

81,119,4,266,145,33,

81,118,4,263,145,33,

81,118,4,263,144,35,

80,117,3,262,143,33,

79,115,4,260,143,33,

79,115,3,271,142,34,

79,115,4,270,141,35,

78,115,4,269,140,34,

90,123,4,268,140,36,

89,123,4,265,139,36,

89,122,4,263,138,35,

88,121,4,263,137,38,

88,121,4,261,137,35,

88,120,4,259,135,35,

88,120,4,258,135,37,

87,118,4,261,135,35,

86,118,4,263,134,37,

86,117,4,261,133,35,

85,117,4,259,133,37,

85,116,4,258,132,34,

84,115,4,257,131,34,

84,115,4,255,130,34,

83,114,4,253,130,33,

83,114,4,252,129,35,

83,113,4,251,128,33,

82,112,4,249,127,35,

82,112,4,274,127,33,

81,111,3,271,127,33,

81,110,4,270,126,32,

80,110,4,269,125,33,

80,109,3,267,125,32,

79,109,4,265,124,34,

79,108,4,263,123,32,

79,107,4,262,123,34,

78,107,4,261,123,33,

78,107,4,259,121,31,

77,106,4,259,121,30,

77,105,3,281,120,30,

76,105,3,280,120,31,

76,103,4,278,120,30,

77,107,4,277,119,33,

77,106,3,275,118,31,

76,106,4,273,117,30,

76,105,4,271,117,33,

76,105,4,270,116,30,

75,103,4,268,115,32,

75,103,3,267,115,30,

74,103,3,279,115,33,

73,103,4,283,114,30,

73,102,3,282,113,30,

73,102,4,280,113,30,

73,108,4,278,113,29,

72,107,4,276,112,31,

71,106,4,275,111,31,

71,106,4,273,111,31,

71,105,4,271,110,28,

71,103,4,270,109,29,

71,103,4,269,109,30,

70,103,4,284,108,28,

70,103,4,281,108,28,

70,102,4,280,108,30,

70,119,4,279,107,29,

71,117,4,277,107,28,

70,117,4,275,106,30,

69,115,4,273,105,28,

69,115,3,271,105,28,

69,115,4,270,105,30,

68,113,3,269,103,30,

67,113,4,268,103,27,

67,113,4,289,103,30,

67,112,3,287,103,27,

67,111,4,286,102,29,

69,113,4,284,102,28,

70,113,4,282,101,28,

70,112,3,281,100,31,

69,111,4,279,100,30,

69,110,3,277,99,30,

69,110,4,276,99,30,

68,109,3,274,99,28,

68,109,3,275,99,30,

67,108,4,286,98,29,

67,108,4,284,97,27,

67,107,4,283,97,30,

67,111,4,281,96,27,

67,110,3,279,96,29,

66,109,4,278,96,29,

66,108,3,275,96,27,

65,108,4,275,95,29,

65,107,4,273,94,28,

65,107,4,271,94,28,

64,106,4,270,94,26,

65,106,4,287,93,26,

63,105,3,285,92,25,

63,105,3,284,92,28,

65,103,4,282,92,29,

70,103,4,280,91,30,

70,103,3,279,91,30,

69,103,3,277,90,28,

68,103,4,275,118,29,

68,102,3,274,122,30,

68,101,4,273,121,28,

67,101,3,271,120,28,

67,100,4,295,120,28,

66,99,3,294,119,28,

66,99,4,292,118,30,

69,112,4,290,118,30,

81,111,4,289,117,35,

80,110,4,287,117,35,

79,109,4,285,116,31,

79,109,3,284,115,31,

79,108,4,282,115,35,

79,107,4,280,114,31,

78,107,4,279,113,34,

78,106,4,288,113,31,

77,105,4,286,112,33,

77,105,4,285,112,34,

77,113,4,283,111,34,

76,112,3,281,110,34,

76,112,3,280,110,31,

76,111,4,279,109,30,

75,111,4,277,109,30,

75,110,4,275,109,30,

74,109,4,273,108,32,

74,109,3,287,107,32,

73,108,3,287,107,31,

73,107,4,286,106,31,

73,107,3,284,105,29,

73,108,4,283,105,30,

71,107,4,281,103,29,

71,107,4,280,103,29,

71,105,3,278,103,31,

71,105,4,277,103,31,

71,103,4,275,102,28,

70,103,3,273,102,31,

70,103,4,280,102,31,

69,103,4,278,101,31,

69,102,4,276,100,29,

69,103,4,275,100,30,

75,107,4,273,99,30,

75,107,4,271,99,31,

75,107,4,270,98,32,

74,105,4,268,99,32,

73,105,4,268,123,32,

73,105,4,265,121,28,

73,103,4,263,121,29,

71,103,4,286,120,29,

71,103,4,284,120,29,

71,102,3,281,119,29,

74,103,3,280,119,32,

75,103,4,278,117,31,

75,101,4,276,117,30,

74,101,4,275,116,32,

73,100,4,273,115,32,

73,100,4,271,115,31,

73,99,4,270,114,29,

73,99,3,269,114,29,

71,99,3,270,113,29,

71,98,4,268,113,29,

71,97,4,267,112,31,

73,97,3,265,112,31,

73,97,4,263,111,30,

73,96,3,263,111,31,

73,96,4,261,110,29,

73,95,4,260,109,31,

72,95,4,259,109,29,

71,94,3,257,108,28,

71,94,3,255,108,29,

71,93,3,278,107,28,

70,93,4,277,107,31,

70,92,3,275,106,30,

70,97,4,274,105,31,

74,99,3,271,105,30,

74,98,4,270,105,30,

73,97,3,269,103,30,

73,97,4,267,103,30,

73,96,4,266,103,29,

71,96,4,263,103,31,

71,96,3,263,102,29,

71,95,4,280,102,31,

71,94,4,277,101,29,

71,94,4,275,101,30,

71,113,4,274,100,30,

76,113,4,272,99,32,

75,112,4,271,99,30,

75,112,3,270,98,32,

74,111,4,268,98,29,

74,110,4,267,98,31,

74,110,4,265,97,31,

73,109,3,263,97,29,

73,109,3,291,97,29,

73,108,3,293,96,29,

71,108,3,291,96,29,

71,107,4,289,95,29,

73,107,4,287,94,31,

73,107,4,286,94,29,

73,106,4,285,93,29,

72,105,3,283,93,29,

71,105,4,281,93,31,

71,103,4,280,92,29,

71,103,4,278,92,29,

71,103,3,278,92,29,

71,103,4,276,91,29,

70,102,4,275,91,28,

70,102,4,273,90,29,

71,109,3,271,90,33,

74,108,3,270,89,33,

73,108,4,269,89,30,

73,107,4,268,88,30,

73,107,4,266,88,32,

73,106,4,263,88,31,

71,105,4,263,87,29,

71,105,4,262,87,30,

71,103,4,281,87,29,

71,103,4,279,86,29,

71,103,4,277,86,31,

77,125,3,275,85,31,

78,124,4,274,85,31,

77,123,4,273,84,31,

77,123,3,271,83,31,

77,122,4,269,85,31,

76,121,4,268,88,33,

76,121,4,267,88,33,

75,120,3,265,87,31,

75,120,3,286,87,31,

74,118,4,284,86,31,

74,118,4,283,86,34,

75,120,4,280,85,34,

76,120,4,280,85,33,

76,120,4,278,84,33,

75,119,4,276,84,31,

74,118,4,275,83,31,

74,118,4,273,83,30,

73,117,4,271,84,30,

73,116,4,270,83,30,

73,115,4,283,83,29,

72,115,3,283,83,30,

71,115,4,281,82,29,

71,114,4,280,82,31,

73,114,4,278,82,31,

72,113,4,276,81,30,

71,112,3,275,81,31,

71,112,4,273,80,29,

71,111,4,271,92,31,

71,111,4,270,91,31,

71,110,4,269,91,31,

71,110,4,284,91,31,

70,109,4,284,89,31,

70,109,4,281,89,31,

69,108,4,280,89,31,

70,108,4,279,88,29,

69,108,4,277,88,28,

68,107,4,275,88,28,

68,107,4,274,87,29,

68,105,3,271,87,28,

67,105,4,271,86,28,

67,103,4,269,86,30,

67,103,4,269,85,30,

67,103,3,277,85,28,

66,103,3,275,84,25,

66,103,4,274,83,29,

67,103,4,271,83,26,

68,103,4,271,83,29,

67,103,4,269,82,29,

67,102,4,268,82,30,

67,102,4,266,82,30,

67,101,3,265,82,27,

67,101,4,263,81,30,

66,100,4,263,81,27,

66,100,4,280,80,27,

65,99,4,279,79,28,

65,99,4,277,79,27,

66,117,4,275,79,27,

67,116,4,274,79,28,

67,115,3,273,78,28,

66,115,3,271,78,27,

66,114,4,270,94,28,

65,114,4,268,94,29,

65,113,3,267,93,29,

65,112,3,265,93,26,

65,111,3,273,92,26,

64,111,3,271,92,29,

64,110,3,270,92,28,

65,114,3,269,91,31,

77,115,4,267,91,34,

77,114,3,266,90,34,

77,114,4,263,89,34,

76,113,4,263,90,33,

76,112,4,261,89,31,

75,112,3,260,89,31,

75,111,4,259,88,31,

74,111,4,279,88,31,

74,110,3,277,88,30,

73,109,4,275,88,30,

73,109,4,274,87,33,

74,111,3,273,86,32,

73,111,3,271,86,32,

73,110,4,270,85,30,

73,110,4,268,85,32,

71,109,3,267,84,29,

71,108,4,265,83,31,

71,108,4,263,83,31,

71,107,4,263,83,31,

70,107,4,263,82,31,

70,106,4,262,82,28,

70,107,4,261,82,31,

70,114,3,259,82,28,

69,114,4,258,81,28,

69,113,4,257,80,29,

69,112,4,255,79,28,

68,112,4,254,79,28,

68,111,4,253,79,30,

67,110,3,251,79,28,

67,110,3,262,79,30,

67,109,4,277,78,30,

67,109,3,276,78,29,

66,108,4,275,78,29,

75,111,4,273,78,33,

75,110,4,271,77,30,

74,110,4,270,77,33,

74,109,3,268,76,32,

74,108,4,267,76,30,

73,108,4,265,75,32,

73,108,3,263,75,31,

71,107,4,263,75,31,

71,107,3,271,75,31,

71,106,4,270,74,29,

71,105,4,269,74,30,

71,107,3,267,73,29,

71,106,4,265,73,31,

70,105,3,263,73,31,

70,105,4,263,71,31,

70,103,4,261,71,30,

69,103,3,260,71,29,

69,103,4,259,71,30,

68,103,3,257,71,28,

68,103,4,268,71,30,

67,102,4,266,71,27,

67,101,4,265,70,28,

67,105,3,263,70,31,

69,105,3,262,70,31,

68,103,4,260,69,31,

68,103,3,259,69,30,

67,103,3,257,68,30,

67,103,4,256,69,28,

67,102,4,255,67,28,

67,102,3,253,67,28,

66,101,4,291,67,27,

66,101,4,291,67,29,

66,100,4,289,67,29,

66,99,4,287,67,28,

70,102,4,286,67,31,

71,101,3,285,66,28,

70,101,4,283,66,30,

70,100,3,281,65,28,

69,100,4,280,70,31,

69,99,3,279,75,28,

68,99,4,277,75,28,

68,99,4,280,75,30,

67,98,3,282,74,28,

67,97,3,280,74,28,

67,97,4,279,74,30,

69,99,4,278,73,31,

70,97,4,275,73,30,

69,97,3,275,71,28,

69,97,3,273,71,30,

68,96,4,271,71,27,

67,96,4,271,83,28,

67,96,4,269,83,30,

67,95,4,268,83,30,

67,95,4,274,82,29,

66,94,4,275,81,27,

66,93,3,274,81,27,

66,93,4,273,81,27,

70,117,4,271,80,29,

71,116,3,270,79,28,

71,115,4,268,79,28,

70,115,4,267,79,28,

70,114,4,265,86,28,

70,113,4,263,88,28,

70,113,4,263,88,29,

69,112,4,262,88,30,

69,111,3,285,87,27,

67,111,3,283,86,27,

67,110,3,281,86,27,

71,112,4,280,85,28,

71,112,4,278,85,28,

71,112,4,277,84,30,

71,111,4,275,83,30,

70,110,3,274,83,30,

70,110,4,271,83,28,

70,109,3,271,83,27,

69,109,3,269,82,27,

69,108,4,268,82,28,

69,108,4,267,81,27,

68,107,4,265,81,27,

71,107,4,263,81,28,

74,106,3,263,79,29,

73,105,4,261,79,31,

73,105,4,260,79,28,

71,105,4,258,79,30,

71,103,3,257,80,28,

71,103,4,255,79,28,

71,103,4,255,79,28,

71,102,4,263,79,30,

70,102,3,263,79,30,

70,101,4,262,78,30,

70,101,4,261,78,28,

69,103,4,259,78,27,

69,103,4,258,77,30,

68,103,4,255,77,29,

68,103,4,255,76,27,

68,102,4,254,88,27,

67,102,4,252,91,27,

67,101,4,251,90,26,

67,101,4,283,89,28,

66,100,4,283,88,26,

66,99,4,281,89,28,

66,99,4,280,88,30,

82,106,4,278,88,33,

81,105,4,276,88,31,

80,105,4,275,86,31,

79,103,4,273,86,31,

79,103,3,271,86,31,

79,103,3,270,85,31,

79,103,4,269,85,33,

78,102,3,268,85,33,

78,102,4,275,84,33,

77,101,4,273,83,30,

77,100,3,271,83,30,

81,119,4,270,82,34,

89,117,4,268,82,34,

89,117,4,268,82,34,

88,116,4,265,81,34,

88,115,3,265,81,33,

88,115,4,263,80,33,

87,114,4,262,80,35,

86,113,4,260,79,33,

86,113,4,276,79,32,

85,112,4,275,79,32,

85,112,3,273,78,32,

84,117,4,271,78,31,

84,118,3,270,78,34,

83,117,4,269,77,34,

83,116,3,268,77,34,

83,115,4,265,78,31,

82,115,4,263,81,31,

82,114,3,263,81,33,

81,114,4,262,81,33,

81,113,4,286,80,31,

81,113,4,284,79,30,

80,112,4,283,79,30,

80,112,3,281,79,31,

79,112,4,280,79,33,

79,112,4,278,78,31,

79,111,4,276,78,32,

79,111,4,275,78,30,

79,110,4,273,85,30,

78,110,4,271,84,29,

78,109,4,271,83,31,

78,108,4,285,83,31,

77,108,4,284,83,31,

77,107,3,282,82,29,

76,108,4,280,82,29,

76,111,3,279,82,31,

76,111,3,277,81,30,

75,110,4,275,80,31,

75,110,4,274,81,31,

75,109,4,273,80,29,

74,109,4,271,79,28,

74,108,4,270,79,30,

73,107,4,279,79,29,

73,107,4,284,78,30,

72,106,4,283,78,28,

71,106,4,281,78,29,

78,108,4,280,77,29,

78,107,4,278,77,31,

77,107,4,275,76,31,

76,106,4,274,76,28,

76,105,3,273,76,29,

76,105,4,271,75,29,

76,103,4,270,75,31,

75,103,4,268,75,30,

74,103,4,269,74,31,

74,103,4,267,74,30,

74,102,4,266,73,30,

73,103,4,263,73,30,

74,103,3,263,73,30,

73,103,3,262,71,28,

73,103,4,260,71,30,

73,102,4,259,71,28,

71,102,4,257,83,28,

71,101,4,255,83,27,

71,100,4,255,83,27,

71,100,3,277,82,31,

71,99,4,275,81,28,

70,99,4,274,81,28,

70,105,4,273,81,28,

71,105,4,271,81,28,

71,103,4,270,79,31,

70,103,3,268,79,29,

70,103,4,267,83,29,

70,103,3,265,107,31,

69,102,4,263,107,31,

69,101,4,262,106,28,

69,101,4,287,105,31,

68,100,4,287,105,28,

67,99,4,285,103,28,

67,105,4,284,103,30,

70,105,4,282,103,29,

70,103,3,280,102,31,

70,103,3,278,102,29,

69,103,3,277,102,30,

69,103,3,275,101,31,

69,102,4,273,100,30,

68,102,4,271,100,30,

67,101,4,281,99,28,

67,100,3,280,98,27,

67,100,3,278,98,27,

67,100,4,276,98,28,

70,99,4,275,97,30,

69,99,4,274,96,30,

69,98,4,271,96,28,

68,98,4,271,96,30,

68,97,4,270,95,28,

67,97,4,268,95,30,

67,96,4,267,94,27,

67,96,3,265,94,30,

67,96,4,263,94,27,

66,95,3,263,93,28,

66,95,4,262,93,31,

74,113,4,260,92,30,

73,113,4,259,92,31,

73,112,3,258,91,29,

73,112,4,257,91,31,

71,111,4,255,92,29,

71,110,3,254,94,31,

71,110,4,253,93,29,

71,109,4,263,93,29,

71,109,3,278,92,31,

71,108,4,276,92,29,

70,108,4,275,92,31,

81,114,3,273,91,35,

84,113,3,271,90,36,

84,112,3,270,90,35,

83,112,4,269,89,34,

83,111,4,267,92,36,

83,111,4,266,94,33,

82,110,4,263,94,32,

81,110,4,263,93,35,

81,109,4,281,93,33,

81,108,4,280,93,35,

79,108,4,278,92,34,

79,115,3,276,91,34,

79,115,4,275,91,31,

79,114,4,273,90,31,

79,113,3,271,90,31,

78,113,4,270,90,34,

78,112,4,269,89,33,

78,112,4,267,88,34,

77,111,3,265,88,34,

77,111,4,274,88,31,

76,110,4,271,87,30,

76,109,3,271,87,33,

76,111,4,269,87,34,

86,121,4,267,86,35,

85,120,4,266,86,34,

85,120,4,263,85,34,

84,119,4,263,85,37,

83,118,4,262,85,34,

83,118,4,261,84,35,

83,117,4,259,84,33,

82,117,4,284,83,35,

82,115,4,284,83,33,

81,115,4,281,83,35,

81,114,4,280,82,34,

88,114,4,279,82,38,

88,113,3,277,81,38,

87,113,3,275,81,35,

87,112,4,274,93,35,

86,112,3,273,101,37,

85,111,3,271,100,34,

84,111,4,269,100,34,

84,110,4,270,99,35,

84,109,4,270,99,37,

83,109,4,268,99,37,

83,108,4,267,98,37,

83,112,4,265,97,34,

82,111,4,263,97,34,

82,110,4,263,96,37,

82,110,4,261,96,36,

81,110,4,260,96,34,

81,109,4,259,95,34,

80,109,4,257,95,33,

79,108,3,263,94,34,

79,107,4,275,94,35,

79,107,4,273,93,33,

79,106,4,271,93,32,

81,109,4,271,92,34,

81,109,4,268,92,34,

80,108,4,267,91,33,

80,107,4,265,91,36,

79,107,4,263,91,36,

79,106,4,263,90,33,

79,106,4,261,89,33,

79,105,4,260,89,33,

78,103,4,283,89,35,

78,103,4,281,88,33,

77,103,4,280,88,34,

79,108,5,278,88,35,

85,107,4,276,87,34,

84,107,3,274,86,34,

83,106,4,273,86,36,

83,106,4,271,85,34,

83,105,4,270,85,33,

82,105,4,269,85,33,

82,103,4,268,84,34,

81,103,4,290,84,33,

81,103,4,287,83,32,

80,103,4,286,83,35,

80,113,4,285,83,36,

81,112,3,283,82,34,

80,112,4,281,82,34,

80,111,4,280,81,35,

79,110,4,278,81,35,

79,109,3,277,81,35,

79,109,4,275,80,35,

78,109,4,274,79,35,

78,108,4,290,79,35,

77,107,4,287,79,34,

77,107,4,287,79,32,

77,107,4,285,79,36,

82,108,4,284,78,34,

82,107,4,281,78,34,

81,106,4,280,77,33,

81,105,4,279,99,35,

80,105,4,277,137,36,

79,103,4,275,135,33,

79,103,3,274,135,35,

79,103,4,284,134,33,

79,103,4,284,133,35,

78,102,3,281,133,33,

78,107,4,280,131,32,

78,108,4,279,131,32,

77,107,4,277,130,31,

77,107,3,275,129,34,

76,106,4,274,129,31,

76,105,4,271,128,33,

76,105,4,270,127,31,

75,103,3,269,127,31,

75,103,4,299,126,31,

74,103,3,297,125,31,

74,103,4,295,125,31,

96,127,4,293,124,41,

96,126,3,291,123,38,

95,125,4,289,123,41,

95,125,4,287,122,39,

94,124,4,286,121,38,

93,123,3,285,121,38,

93,123,3,283,120,38,

92,122,4,281,120,38,

92,121,4,284,119,38,

91,121,4,283,118,41,

91,120,4,281,118,39,

93,125,4,279,117,38,

92,124,4,277,117,40,

92,123,4,275,115,38,

91,122,4,274,115,39,

91,122,4,273,115,38,

91,121,3,271,114,39,

90,121,4,269,113,38,

89,120,4,271,113,37,

89,120,4,271,112,37,

88,119,4,269,112,36,

88,118,4,268,112,39,

88,118,4,267,111,38,

88,117,3,265,110,38,

87,116,3,263,110,35,

86,115,4,262,109,35,

86,115,4,261,109,38,

86,115,3,259,108,35,

85,114,4,258,108,35,

85,114,4,279,108,37,

84,113,4,277,107,35,

83,112,3,275,106,35,

83,118,4,274,105,36,

83,120,3,271,105,33,

82,118,3,271,103,34,

81,118,4,269,103,35,

81,117,4,268,103,35,

81,117,4,266,103,33,

81,115,3,263,102,35,

79,115,4,263,102,32,

79,115,3,291,101,35,

79,114,3,290,101,32,

79,113,3,287,100,33,

80,113,3,287,99,36,

80,112,4,285,99,36,

79,112,4,284,99,36,

79,112,4,281,98,35,

79,111,3,280,98,33,

79,110,4,279,97,35,

79,109,4,277,97,33,

78,109,4,275,96,33,

78,109,4,279,96,33,

77,108,4,277,96,31,

77,107,4,275,95,32,

78,112,4,274,95,35,

78,111,4,273,94,34,

77,110,3,271,94,34,

77,109,4,269,93,34,

76,109,4,268,96,34,

76,108,4,267,105,31,

76,108,4,265,103,34,

75,107,3,263,103,31,

75,107,4,280,103,31,

75,106,4,279,103,31,

74,105,4,277,102,33,

76,111,4,275,102,31,

75,110,4,274,101,33,

74,110,4,271,100,33,

74,109,4,270,99,31,

73,109,4,269,99,33,

73,108,4,268,99,31,

73,108,4,267,98,34,

73,107,4,265,98,33,

71,106,4,277,97,33,

71,106,4,275,97,33,

71,105,4,274,97,30,

71,106,4,271,96,33,

71,105,4,271,96,30,

71,105,4,269,95,30,

71,103,4,268,95,31,

71,103,4,266,94,29,

70,103,4,265,94,29,

70,103,4,263,93,31,

70,102,4,262,93,31,

69,102,4,263,92,31,

69,101,4,263,92,31,

68,101,4,262,92,31,

68,103,4,260,91,29,

71,103,3,259,91,31,

71,103,3,257,90,29,

70,103,4,255,90,31,

70,103,4,255,105,31,

69,101,3,253,114,29,

69,101,4,252,113,29,

68,100,3,251,113,29,

68,100,4,282,112,29,

67,99,4,280,111,28,

67,99,4,279,111,29,

67,122,4,277,110,31,

68,124,4,275,110,31,

67,123,3,273,109,30,

67,122,4,272,108,31,

67,121,4,270,108,31,

67,121,4,269,107,30,

67,120,3,268,107,28,

66,120,3,267,106,28,

66,119,4,294,105,28,

65,118,3,291,105,28,

65,118,4,290,103,31,

75,117,3,288,103,33,

75,116,4,287,103,34,

74,115,4,284,103,34,

73,115,4,283,102,31,

73,115,4,281,102,33,

73,114,3,280,101,31,

71,113,4,278,101,31,

71,112,4,291,100,32,

71,112,4,295,99,30,

71,111,3,293,99,30,

71,111,4,291,99,33,

70,110,4,290,98,33,

70,110,4,289,98,32,

70,109,3,287,97,31,

69,109,3,285,97,31,

69,108,4,284,97,29,

69,108,4,282,96,29,

68,107,4,280,96,29,

68,106,4,280,96,31,

67,106,4,285,95,29,

67,105,4,283,95,29,

67,105,4,281,94,29,

75,108,4,280,94,33,

74,107,3,279,93,31,

74,106,4,277,93,33,

74,105,3,275,92,31,

73,105,3,274,92,30,

73,103,4,272,92,30,

73,103,4,271,91,33,

71,103,4,270,90,33,

71,103,3,273,90,33,

71,102,4,271,90,30,

71,101,4,270,90,30,

71,110,4,268,89,31,

73,110,4,267,88,31,

73,109,4,265,88,31,

73,109,4,263,88,30,

71,108,4,263,88,30,

71,108,3,261,87,30,

71,107,4,259,107,31,

71,107,4,259,127,30,

71,105,4,291,126,29,

70,105,4,290,126,31,

70,104,4,287,125,29,

69,114,3,287,124,29,

69,113,4,285,124,28,

69,112,4,283,123,29,

69,112,4,281,122,28,

68,111,3,280,121,31,

67,110,4,278,121,29,

68,110,4,276,120,30,

67,109,4,287,120,30,

67,108,4,295,119,27,

66,108,4,293,119,30,

66,108,3,291,118,30,

88,109,4,289,117,38,

88,108,4,287,117,36,

87,107,4,286,116,35,

86,107,4,285,115,35,

85,106,4,283,115,35,

85,105,4,281,114,37,

84,105,4,280,114,37,

84,103,4,282,113,37,

83,103,4,282,112,35,

83,103,4,280,112,35,

83,103,4,280,111,36,

82,102,4,278,111,34,

82,102,3,275,110,34,

81,101,4,274,110,35,

81,100,3,273,109,33,

81,100,4,271,109,35,

80,99,4,270,108,35,

79,99,4,268,107,35,

79,98,3,280,107,32,

79,98,4,278,106,34,

78,97,4,277,106,35,

80,123,4,275,105,39,

93,127,3,273,105,39,

92,126,3,271,103,39,

92,126,4,270,103,37,

92,125,4,269,103,36,

91,124,4,267,103,39,

91,124,4,266,103,37,

90,123,4,265,102,36,

89,122,4,274,101,39,

89,121,4,271,101,38,

88,121,4,271,100,35,

99,126,4,269,100,42,

100,125,4,267,99,39,

99,124,4,265,98,39,

99,124,4,263,98,41,

98,124,4,263,98,39,

98,122,4,262,97,41,

97,122,4,261,97,42,

97,121,3,259,96,39,

96,121,4,273,96,41,

96,120,3,271,96,41,

96,120,3,270,95,41,

95,125,4,268,95,39,

95,127,4,267,94,38,

94,126,3,265,94,38,

93,126,4,263,93,40,

93,125,4,263,93,39,

92,124,4,261,93,39,

92,124,4,259,92,39,

92,123,4,258,92,36,

91,123,4,285,92,37,

91,122,4,284,91,39,

90,121,4,281,91,36,

89,121,4,280,90,35,

89,120,4,279,90,36,

88,120,4,277,89,37,

88,119,4,275,89,38,

88,118,3,274,89,38,

88,118,4,272,91,38,

87,117,4,271,95,35,

87,116,3,269,94,38,

86,115,4,293,94,35,

86,115,4,294,94,38,

85,114,3,292,93,35,

85,114,4,291,93,38,

86,123,4,288,92,37,

85,122,3,287,91,35,

85,121,4,285,91,35,

84,121,4,284,91,34,

84,120,4,282,92,34,

83,119,3,280,92,33,

83,119,4,280,92,33,

82,118,4,291,91,34,

82,117,3,291,91,33,

81,116,3,289,90,35,

81,116,4,287,89,37,

95,156,4,286,89,38,

95,155,4,284,89,39,

94,153,3,283,88,39,

94,153,4,281,88,39,

93,152,3,280,88,37,

92,151,4,278,87,39,

92,150,4,276,87,36,

92,149,4,277,86,37,

91,149,4,305,86,37,

91,148,4,304,85,39,

90,147,4,302,85,37,

89,146,4,300,85,35,

93,145,4,299,84,37,

92,145,4,295,83,39,

92,143,4,295,95,38,

92,143,4,294,126,37,

91,143,4,291,126,37,

90,142,4,290,125,36,

90,141,4,291,124,39,

89,140,4,308,123,39,

89,139,3,307,123,35,

89,141,4,305,122,39,

92,185,3,303,121,36,

92,184,4,301,120,37,

91,183,4,300,120,39,

91,181,4,297,119,35,

90,180,3,295,125,36,

90,179,3,294,129,38,

89,178,4,292,128,38,

89,177,4,302,127,35,

88,176,4,317,127,38,

88,176,4,315,126,34,

88,175,4,313,125,35,

88,173,4,311,125,38,

88,172,4,309,124,35,

88,172,4,307,123,38,

87,171,4,305,123,35,

86,169,4,304,121,37,

86,167,4,302,121,37,

85,167,4,300,120,37,

84,167,4,321,120,36,

84,166,4,319,119,34,

84,165,4,317,119,34,

94,165,4,315,119,41,

105,163,4,313,117,42,

105,162,3,311,117,45,

103,161,4,309,116,44,

103,161,4,307,115,44,

103,159,4,305,115,41,

102,159,4,304,114,43,

102,158,4,318,114,39,

101,157,4,318,113,39,

100,156,4,316,112,41,

99,156,4,314,112,39,

100,155,4,312,111,53,

142,154,3,310,111,53,

141,153,4,308,110,53,

140,153,4,306,109,54,

140,152,4,304,109,51,

139,151,4,303,112,54,

138,150,4,302,111,51,

137,149,4,313,110,51,

135,148,4,312,110,51,

135,147,4,309,109,50,

135,147,4,307,109,53,

134,146,4,306,108,50,

133,145,4,304,107,51,

133,144,4,302,120,50,

132,143,4,300,131,51,

131,143,4,299,131,49,

130,142,4,295,130,49,

130,142,4,301,129,51,

128,141,4,299,128,50,

127,140,3,297,127,52,

131,201,4,295,127,48,

130,199,4,294,126,51,

129,198,4,291,125,48,

127,196,3,290,125,47,

127,195,4,289,124,50,

127,194,4,287,123,49,

126,193,4,285,123,50,

125,191,3,302,122,46,

125,190,4,301,121,47,

124,190,4,300,120,50,

123,188,4,297,120,48,

123,187,4,295,120,46,

122,186,4,294,119,46,

121,185,4,292,118,45,

121,184,4,290,117,48,

120,183,4,288,117,47,

120,182,4,287,116,44,

119,181,3,344,116,47,

118,179,4,355,115,44,

118,178,4,352,114,44,

117,191,4,350,113,45,

116,203,3,347,113,43,

115,202,3,345,112,43,

115,199,3,342,112,46,

115,199,4,340,111,45,

114,198,3,338,111,41,

113,197,4,335,110,41,

112,196,4,337,110,41,

112,195,4,356,109,41,

112,194,4,353,108,41,

111,193,4,351,108,43,

111,192,4,349,107,44,

121,191,4,347,107,45,

120,189,4,344,106,44,

120,188,4,342,105,44,

119,187,4,340,106,46,

118,186,4,338,105,44,

117,185,4,335,105,44,

117,184,4,352,103,44,

116,184,4,350,103,43,

115,183,3,348,103,45,

115,181,4,346,103,53,

153,241,4,344,102,56,

152,239,4,341,102,59,

151,237,4,339,102,59,

150,236,4,337,102,56,

149,234,4,335,101,56,

147,233,4,333,101,54,

147,231,4,353,100,53,

146,230,4,350,99,55,

145,229,4,348,99,56,

145,227,4,346,99,56,

143,226,4,344,98,56,

143,224,4,342,97,53,

142,224,4,339,97,53,

142,222,3,337,99,56,

141,221,4,335,147,57,

140,220,4,333,195,56,

139,219,5,344,193,55,

139,217,4,391,191,55,

137,216,4,389,190,55,

137,262,4,387,189,58,

188,291,4,384,188,71,

186,289,4,381,186,71,

185,286,4,378,185,69,

184,284,4,376,184,70,

183,283,4,373,184,69,

181,281,4,371,182,69,

180,280,4,369,181,70,

179,277,4,412,180,70,

178,275,4,409,179,70,

177,274,4,406,178,67,

176,272,5,403,177,66,

175,270,4,401,176,67,

174,269,5,398,175,68,

173,268,5,396,174,69,

172,266,5,391,173,66,

171,263,4,390,172,67,

170,263,5,387,171,67,

169,262,4,435,171,67,

167,260,4,430,169,64,

167,259,5,427,167,64,

167,329,5,423,167,64,

166,339,5,420,167,66,

165,337,4,417,166,65,

164,335,5,415,165,63,

163,332,5,412,164,64,

162,329,4,409,163,62,

161,327,5,407,163,62,

160,326,5,435,161,62,

159,323,5,435,161,61,

159,322,5,432,159,61,

158,319,5,428,159,61,

188,347,5,426,158,83,

221,377,5,423,157,87,

219,375,4,419,157,83,

217,371,5,417,156,86,

216,369,5,414,155,83,

215,367,4,411,154,83,

213,364,5,435,153,82,

212,361,5,437,152,81,

211,359,5,434,152,84,

210,357,5,431,152,88,

249,355,5,428,150,95,

247,352,5,425,150,97,

246,350,5,422,149,94,

243,349,5,419,148,94,

242,346,5,415,147,95,

241,344,5,413,147,95,

239,342,5,429,146,94,

238,339,5,487,145,94,

236,338,5,483,143,90,

235,335,5,479,143,89,

233,334,5,476,143,89,

231,332,5,472,142,89,

231,329,5,469,142,89,

230,327,5,465,141,85,

228,326,5,462,140,88,

227,323,5,459,140,84,

226,322,5,455,139,84,

225,320,5,474,138,85,

224,319,5,471,137,82,

222,316,5,467,137,83,

221,315,5,463,135,83,

220,313,5,460,135,83,

218,311,5,457,135,80,

217,309,5,454,134,82,

216,307,5,451,133,81,

216,306,5,447,133,83,

214,304,5,445,132,82,

213,302,5,483,131,81,

211,301,5,483,131,81,

211,299,5,480,131,78,

210,316,6,476,130,78,

209,313,6,473,129,81,

207,312,6,470,128,81,

206,310,6,466,127,79,

205,308,6,463,127,77,

204,306,6,460,127,77,

203,304,6,455,126,79,

202,302,6,495,125,77,

201,301,6,492,125,79,

199,299,6,487,124,75,

199,349,7,486,124,76,

198,358,6,482,123,75,

197,355,7,478,123,75,

195,353,7,475,122,77,

195,351,7,472,121,76,

194,348,7,467,121,74,

193,347,7,463,121,74,

192,344,7,473,121,75,

191,342,7,492,120,75,

190,339,7,487,120,76,

188,338,7,484,119,75,

188,335,7,481,118,76,

187,333,7,477,118,77,

185,331,7,474,117,73,

185,329,7,471,141,71,

184,327,7,467,153,71,

184,325,7,463,152,71,

182,323,7,461,152,71,

181,321,7,462,151,73,

180,319,7,459,150,73,

179,318,7,455,149,70,

178,316,7,452,147,71,

177,314,7,449,147,71,

176,312,7,446,146,69,

176,310,7,443,145,70,

175,308,7,440,152,71,

174,307,7,437,159,70,

173,304,7,434,158,68,

172,303,7,472,157,70,

171,301,7,469,156,69,

171,300,7,465,156,66,

169,297,7,462,154,68,

169,295,7,459,153,65,

167,294,7,455,153,67,

167,293,7,452,152,65,

166,291,7,449,152,66,

166,290,7,445,151,67,

164,287,7,443,150,66,

163,287,7,440,149,66,

163,285,7,436,147,64,

162,284,7,433,147,65,

161,282,7,431,146,63,

160,280,7,428,145,63,

159,279,7,425,145,67,

159,277,7,423,143,65,

158,275,7,420,143,65,

157,274,7,417,142,62,

157,272,7,414,141,63,

156,271,7,419,141,64,

155,270,7,448,140,61,

154,268,7,445,140,61,

153,267,7,442,139,73,

211,265,7,439,139,81,

210,269,7,435,137,82,

209,267,7,432,137,83,

207,265,6,430,135,80,

206,263,6,426,135,82,

204,263,7,423,134,79,

203,261,6,421,134,80,

202,259,7,419,133,79,

201,258,6,415,132,78,

199,257,6,414,131,78,

199,255,6,412,131,81,

198,254,6,408,130,79,

196,253,6,406,130,77,

195,252,6,403,129,76,

194,251,7,401,128,76,

193,249,6,398,127,76,

192,248,6,396,127,75,

192,246,6,393,126,79,

190,245,6,391,126,75,

189,244,6,390,125,77,

188,280,6,387,124,71,

187,308,6,384,124,73,

186,305,6,382,123,74,

185,304,6,380,123,71,

184,302,6,377,122,71,

183,300,6,376,121,71,

182,298,6,373,121,71,

181,297,6,410,120,73,

179,295,6,408,120,70,

179,293,6,404,119,70,

179,291,6,401,119,71,

177,289,6,399,118,71,

176,287,6,396,117,68,

175,286,6,393,117,67,

174,284,6,391,116,67,

174,282,6,388,117,68,

173,280,6,386,116,67,

172,279,6,391,115,69,

171,277,6,417,115,68,

170,275,6,414,114,67,

169,274,6,411,114,69,

167,273,6,409,113,71,

177,271,6,406,113,67,

176,269,6,403,112,70,

176,268,6,399,112,67,

174,267,6,397,111,68,

173,265,6,395,112,67,

172,263,6,391,112,69,

171,263,6,412,111,68,

170,260,5,409,111,66,

169,259,6,406,110,67,

169,258,6,403,110,65,

167,255,6,399,109,67,

167,255,5,397,108,66,

166,253,5,395,108,65,

165,252,5,391,108,66,

164,251,6,389,107,65,

163,249,5,387,107,66,

163,248,6,399,106,62,

162,247,6,396,105,64,

161,245,6,393,105,62,

159,244,5,390,103,63,

159,243,5,388,103,63,

158,241,5,385,103,63,

158,240,5,384,103,62,

157,239,5,380,103,61,

156,238,5,378,102,60,

155,237,5,376,101,62,

155,236,6,390,101,59,

154,235,5,387,101,59,

153,233,5,384,100,59,

152,231,6,382,99,59,

152,231,5,379,99,58,

151,230,5,377,99,58,

150,229,5,375,98,60,

149,227,5,372,98,57,

149,226,5,370,97,60,

148,225,5,368,97,57,

147,224,5,366,97,59,

147,224,5,384,96,56,

146,222,5,381,96,57,

145,221,5,379,95,56,

145,220,5,376,95,59,

144,219,5,374,94,59,

143,218,5,371,94,56,

143,217,5,369,93,56,

142,216,5,367,93,55,

142,215,5,364,93,57,

141,214,5,362,92,53,

140,213,5,361,92,56,

140,211,5,374,91,54,

139,211,5,371,91,53,

139,210,5,369,91,55,

137,209,5,366,89,53,

137,207,5,364,89,55,

135,207,5,362,89,52,

135,206,5,359,89,52,

135,205,5,358,89,54,

134,204,5,356,88,52,

134,203,5,354,88,51,

133,203,5,368,88,51,

132,201,5,365,87,50,

132,199,5,364,86,49,

131,199,5,361,86,51,

131,198,5,359,85,49,

130,197,5,356,85,52,

130,196,5,355,85,51,

129,195,5,352,84,51,

129,195,5,350,84,48,

127,194,5,348,83,51,

127,193,5,347,83,48,

127,192,5,359,83,48,

126,191,5,357,83,48,

126,190,5,355,82,47,

125,190,5,353,82,48,

124,189,5,350,81,49,

124,188,5,348,81,49,

123,188,5,345,81,46,

123,187,5,344,81,49,

122,185,5,343,81,46,

122,185,5,340,80,46,

121,184,5,361,80,48,

121,184,5,362,79,45,

120,182,5,359,79,48,

120,182,5,358,79,48,

119,181,5,355,78,48,

119,180,4,353,78,47,

118,179,4,351,78,46,

118,179,5,349,77,44,

117,178,5,347,77,44,

116,177,5,344,77,44,

116,176,5,343,76,46,

115,175,4,355,76,46,

115,175,5,355,76,46,

114,173,5,353,76,46,

114,175,5,351,75,45,

113,174,5,349,75,45,

112,174,4,346,74,43,

112,173,5,344,74,43,

112,172,5,342,74,42,

112,171,4,340,76,42,

111,170,5,338,76,42,

110,169,4,335,75,44,

110,167,4,361,75,42,

110,167,4,359,74,44,

109,167,4,356,74,44,

109,167,5,353,73,39,

109,172,4,351,73,44,

108,170,4,349,73,41,

107,169,4,347,71,41,

107,169,5,345,71,44,

106,167,4,343,77,41,

106,167,4,341,78,43,

105,166,5,355,77,43,

105,166,5,371,76,42,

103,164,4,368,76,42,

103,163,4,367,76,41,

103,163,4,364,75,39,

103,162,4,361,75,38,

103,161,4,359,75,39,

102,161,4,358,74,41,

102,159,5,355,73,41,

101,159,4,353,73,39,

101,159,4,351,73,39,

100,158,5,352,72,39,

99,158,4,351,71,38,

99,156,4,348,71,38,

99,156,4,347,71,41,

137,161,4,345,71,51,

137,162,4,343,71,51,

135,161,4,341,71,54,

135,160,4,339,70,53,

135,159,4,337,70,50,

134,159,5,335,70,53,

133,158,4,333,69,52,

132,157,4,346,69,50,

131,156,4,344,69,50,

131,155,4,341,68,48,

130,155,4,339,68,49,

129,154,5,337,67,51,

129,153,4,335,67,48,

127,153,4,333,67,50,

127,152,4,331,67,47,

127,152,4,330,123,48,

126,151,4,327,123,47,

125,150,4,326,122,48,

125,149,4,358,121,46,

124,148,4,355,120,49,

123,147,4,352,120,49,

123,147,4,350,120,48,

122,146,4,348,119,48,

121,146,4,345,118,46,

120,145,4,344,117,47,

120,144,4,341,116,45,

119,143,4,339,115,44,

119,143,4,337,115,47,

118,142,4,351,114,47,

117,142,4,349,113,46,

116,141,4,346,113,44,

116,140,4,344,112,45,

129,188,4,342,112,51,

127,186,4,339,111,48,

127,185,4,337,111,48,

126,184,4,335,112,48,

126,183,4,333,111,47,

125,182,4,331,110,49,

124,180,4,359,110,49,

123,179,4,357,109,46,

123,178,4,354,109,48,

122,177,4,352,108,46,

121,176,4,350,107,46,

120,175,4,348,107,46,

120,174,4,345,106,44,

120,173,3,344,105,45,

119,172,4,341,105,47,

118,172,4,339,103,46,

118,171,4,339,103,46,

117,169,4,338,103,44,

116,167,4,335,103,43,

115,167,4,334,103,44,

115,167,4,332,102,43,

114,166,4,329,101,46,

114,165,4,327,101,43,

113,164,4,326,100,42,

112,163,4,324,99,43,

112,162,4,322,100,42,

111,161,4,322,99,44,

111,160,4,352,99,41,

110,159,4,350,99,41,

110,159,4,348,98,41,

109,158,4,345,98,44,

109,157,4,343,97,41,

108,156,4,341,97,41,

108,156,4,339,96,39,

107,155,4,337,96,43,

107,154,4,335,99,42,

106,153,4,333,99,39,

105,152,4,342,99,39,

105,152,4,356,98,39,

103,151,4,354,97,42,

103,150,4,352,97,39,

103,150,4,349,96,41,

103,148,4,348,96,39,

102,148,4,345,96,39,

102,147,4,343,95,39,

102,146,4,340,94,38,

101,145,4,339,94,39,

100,145,4,337,94,37,

100,144,4,337,93,38,

99,143,4,335,93,39,

99,143,3,333,92,37,

100,143,4,331,92,39,

126,152,4,327,91,48,

125,152,4,327,91,47,

125,150,4,325,90,46,

124,150,4,323,90,48,

123,149,4,321,89,45,

123,147,4,319,89,48,

122,147,4,318,89,48,

121,146,4,339,88,48,

121,145,4,335,88,47,

120,145,4,334,88,45,

120,144,4,332,87,45,

119,143,4,330,87,44,

118,143,4,327,86,44,

117,142,4,327,86,44,

116,141,4,324,85,46,

116,140,4,322,85,46,

115,140,4,319,95,48,

115,139,4,319,96,46,

114,139,4,332,96,45,

114,138,4,329,95,42,

113,137,4,327,95,43,

112,137,4,326,94,43,

112,135,4,324,94,44,

112,135,4,322,93,41,

111,135,4,319,92,43,

110,134,4,318,92,41,

110,134,4,316,92,44,

109,133,4,315,91,43,

108,132,4,313,91,39,

108,131,4,312,91,43,

108,131,4,310,90,39,

107,131,4,308,89,39,

107,131,4,307,89,42,

106,131,4,305,88,39,

106,130,4,304,88,42,

105,129,4,302,88,42,

105,129,4,300,87,39,

103,128,4,299,87,41,

103,127,4,298,86,39,

103,127,4,295,86,39,

103,126,4,295,85,38,

102,126,4,294,85,38,

109,165,4,292,84,41,

111,167,4,291,83,44,

110,166,4,289,83,44,

110,165,4,287,83,43,

109,164,3,286,82,43,

109,163,4,285,82,39,

108,163,4,284,81,39,

107,161,4,282,81,42,

106,160,4,282,81,39,

106,159,3,280,80,42,

105,159,4,279,79,39,

105,158,4,278,79,42,

103,157,4,277,79,39,

103,156,4,275,79,41,

103,155,4,274,79,41,

103,154,4,272,78,39,

103,153,3,271,78,39,

102,153,4,270,77,38,

101,152,4,270,77,38,

101,152,4,271,77,39,

100,150,4,270,76,37,

99,150,4,269,76,39,

99,149,4,267,76,40,

99,148,4,267,75,38,

99,147,4,265,75,38,

98,147,4,263,75,37,

98,146,4,263,112,38,

97,145,4,261,115,37,

97,144,4,260,114,39,

96,143,4,273,113,36,

96,142,4,275,112,38,

96,142,4,274,112,35,

95,142,4,272,111,36,

95,141,4,271,110,36,

94,140,4,270,110,36,

94,140,4,268,109,35,

93,139,4,266,109,38,

93,138,4,265,108,36,

93,137,4,263,107,36,

92,137,4,262,107,37,

92,135,4,267,106,37,

91,135,4,265,106,37,

91,134,4,263,105,35,

90,134,4,263,105,35,

91,133,4,261,103,34,

90,133,4,259,103,37,

90,131,4,258,103,34,

90,131,4,257,103,36,

89,130,4,255,102,35,

89,130,4,254,102,33,

88,129,4,253,101,35,

88,128,4,252,101,33,

88,127,3,251,100,35,

87,127,4,250,100,33,

87,131,4,249,99,33,

87,131,4,248,99,33,

86,130,4,247,98,35,

86,129,4,246,97,33,

86,129,4,244,97,35,

85,127,4,243,97,32,

84,127,4,242,96,34,

84,127,4,241,96,31,

84,126,4,241,95,31,

83,125,4,240,95,31,

83,125,4,239,94,34,

83,124,4,238,94,34,

83,124,3,237,94,31,

82,123,4,236,93,31,

82,123,3,235,92,31,

82,122,4,233,92,31,

81,121,4,231,92,31,

81,121,4,231,91,30,

80,121,4,230,91,30,

80,120,4,230,91,31,

79,120,4,228,90,30,

79,120,4,227,89,33,

79,120,4,227,89,31,

79,120,4,225,89,29,

78,119,3,225,88,29,

78,119,3,224,88,30,

77,118,4,223,88,29,

78,117,4,222,87,31,

77,117,3,221,87,31,

76,116,3,220,86,29,

77,116,4,234,86,28,

76,115,3,231,85,29,

76,115,4,231,85,31,

76,115,4,230,85,30,

75,114,4,229,83,28,

75,114,4,227,83,29,

74,113,4,227,83,28,

74,113,3,225,83,28,

74,112,4,224,83,30,

73,112,4,223,82,28,

73,111,4,222,82,28,

73,111,4,226,81,28,

71,110,4,240,81,28,

71,110,4,239,80,27,

71,109,4,238,79,30,

83,120,4,237,79,33,

82,118,3,235,79,34,

82,118,3,234,79,31,

81,117,3,233,78,31,

81,116,4,231,78,33,

80,115,4,230,78,32,

80,115,4,230,78,33,

79,115,4,254,78,32,

79,114,4,274,77,30,

79,113,4,271,76,30,

78,113,4,270,76,31,

78,112,4,269,76,30,

78,112,4,267,76,31,

77,111,4,265,75,29,

77,111,4,263,75,29,

76,110,4,262,74,29,

76,109,4,261,74,29,

75,109,4,259,74,31,

75,108,4,259,73,28,

75,108,3,316,73,28,

75,108,3,313,73,28,

74,107,4,312,71,31,

75,121,4,310,71,35,

90,161,4,308,71,36,

89,161,4,306,71,35,

89,159,4,305,71,35,

88,159,4,303,70,35,

88,158,4,301,70,35,

88,157,4,299,70,33,

87,156,4,297,70,35,

86,155,4,312,69,33,

86,155,4,310,69,33,

86,153,4,307,69,31,

85,152,4,306,68,34,

85,152,4,305,68,34,

84,151,4,303,67,31,

83,150,3,301,67,34,

