39,94,0,248,191,39,39,94,0,247,190,38,39,94,0,246,189,37,39,93,0,245,188,39,44,93,0,314,228,42,44,92,0,312,227,41,44,92,0,310,225,44,43,91,0,308,224,45,43,91,0,306,222,41,43,90,0,304,221,43,43,90,0,303,220,41,43,89,0,301,219,43,42,89,0,299,217,39,42,89,0,297,216,42,42,88,0,295,215,39,43,88,0,294,215,39,42,87,0,293,213,43,42,87,0,291,212,43,42,86,0,289,211,39,41,86,0,287,210,39,41,85,0,286,209,39,41,85,0,285,207,39,41,85,0,283,207,39,39,84,0,281,205,38,39,83,0,280,204,39,39,83,0,278,204,37,39,83,0,277,202,39,39,82,0,275,201,38,39,82,0,274,199,39,39,82,0,272,199,37,39,81,0,271,199,37,38,80,0,270,197,37,38,80,0,268,196,37,38,79,0,267,195,36,38,79,0,265,194,39,38,79,0,263,193,36,38,79,0,263,192,39,37,78,0,286,203,38,39,78,0,354,201,39,39,78,0,351,199,38,39,77,0,348,199,37,39,77,0,346,198,37,39,76,0,344,197,39,39,76,0,342,196,36,38,76,0,339,195,39,38,76,0,338,194,39,38,75,0,335,193,36,38,75,0,334,192,39,37,74,0,332,192,37,44,74,0,329,192,39,43,73,0,327,192,40,43,73,0,326,190,44,43,73,0,324,189,39,43,71,0,323,188,41,42,75,0,320,188,41,42,77,0,319,186,41,42,76,0,317,185,39,41,76,0,315,185,39,41,75,0,313,184,39,41,75,0,312,183,39,41,75,0,311,183,39,41,74,0,308,182,42,40,74,0,307,181,39,41,73,0,305,179,39,39,73,0,304,179,41,39,75,0,302,178,42,39,75,0,300,177,41,39,74,0,299,177,37,39,74,0,297,176,39,39,73,0,295,175,36,39,73,0,294,174,39,39,73,0,292,174,38,39,71,0,291,172,39,39,71,0,289,172,37,38,71,0,287,171,37,38,71,0,286,169,37,38,71,0,285,169,39,37,71,0,284,167,35,37,71,0,281,167,37,37,70,0,281,167,35,36,70,0,279,166,35,36,69,0,278,165,37,37,69,0,279,191,39,37,68,0,279,189,39,37,67,0,278,188,39,36,67,0,275,187,35,36,67,0,274,186,37,36,67,0,273,185,37,35,78,0,271,184,34,35,77,0,270,183,34,35,77,0,269,183,34,35,76,0,268,181,33,34,76,0,266,180,34,35,75,0,263,183,34,35,75,0,265,182,34,35,75,0,263,181,33,35,74,0,262,180,32,35,73,0,261,179,34,34,73,0,259,178,36,35,73,0,258,177,34,34,73,0,257,176,35,34,71,0,255,175,35,34,71,0,254,174,33,34,71,0,253,173,35,33,71,0,252,185,36,34,71,0,286,189,34,34,70,0,285,188,32,34,70,0,283,187,33,33,69,0,281,185,31,33,69,0,280,185,32,33,73,0,278,184,33,33,73,0,276,183,31,33,73,0,275,182,31,32,71,0,273,181,30,32,71,0,271,179,31,31,71,0,270,179,33,31,71,0,271,178,33,32,71,0,269,178,33,31,70,0,268,176,33,31,70,0,265,176,30,31,69,0,263,175,33,31,69,0,263,174,33,31,70,0,261,173,32,31,69,0,260,172,31,31,69,0,259,172,32,30,68,0,257,170,29,30,67,0,255,169,29,31,67,0,275,194,32,31,67,0,294,192,29,31,67,0,291,191,29,31,66,0,290,190,29,30,66,0,287,189,30,30,66,0,287,188,31,30,69,0,285,187,28,30,69,0,284,185,31,29,68,0,282,184,28,29,68,0,280,184,27,29,67,0,279,183,27,29,67,0,286,210,31,29,67,0,299,207,29,29,66,0,297,207,30,28,66,0,295,206,28,28,66,0,294,205,30,28,68,0,291,204,29,28,84,0,290,203,26,28,83,0,288,201,25,28,83,0,287,199,26,28,83,0,285,199,26,27,82,0,284,198,26,27,82,0,284,199,31,32,81,0,327,199,30,32,81,0,326,199,32,31,80,0,323,197,29,31,79,0,321,196,31,31,79,0,319,195,30,31,82,0,318,194,32,31,81,0,316,193,29,30,80,0,314,192,31,30,80,0,312,191,32,30,79,0,311,190,31,30,79,0,309,194,31,31,79,0,309,195,29,30,78,0,307,194,31,31,78,0,305,193,28,30,78,0,304,192,28,30,77,0,302,192,29,30,83,0,300,190,28,29,83,0,299,189,28,29,82,0,297,188,31,29,81,0,295,187,28,29,81,0,294,186,30,29,81,0,292,185,30,45,81,0,291,188,39,44,79,0,289,187,39,44,79,0,287,186,43,44,79,0,286,185,41,44,78,0,284,184,44,43,78,0,283,184,43,43,78,0,281,182,41,43,77,0,280,181,43,42,77,0,278,180,39,42,76,0,277,179,41,41,76,0,275,179,41,42,76,0,274,181,39,42,75,0,273,179,42,41,75,0,271,179,39,41,75,0,270,178,42,41,74,0,268,177,42,41,73,0,267,176,42,39,74,0,265,175,41,39,73,0,263,174,39,39,73,0,263,174,39,39,73,0,262,172,37,39,71,0,260,172,39,39,71,0,259,191,37,39,71,0,265,190,38,39,71,0,263,188,39,39,71,0,263,188,38,39,70,0,262,187,39,38,75,0,260,185,39,38,87,0,258,184,36,38,85,0,257,184,35,38,85,0,255,183,36,37,84,0,255,182,36,37,84,0,253,181,35,37,83,0,254,201,39,38,83,0,307,214,39,37,83,0,305,213,35,37,82,0,304,211,37,37,82,0,301,211,35,37,81,0,300,209,38,37,82,0,297,207,34,36,82,0,295,207,34,36,81,0,295,206,34,36,81,0,292,205,34,35,80,0,291,204,36,35,79,0,289,203,38,39,79,0,311,221,37,39,79,0,309,220,36,38,79,0,307,218,37,38,78,0,305,217,36,38,78,0,303,216,36,38,80,0,301,215,35,37,79,0,300,213,36,37,79,0,298,212,38,37,79,0,295,211,38,37,78,0,295,210,35,37,78,0,293,209,38,44,78,0,309,215,39,44,77,0,307,214,41,43,77,0,305,212,41,43,76,0,304,211,41,43,76,0,302,210,39,42,76,0,300,208,44,42,76,0,297,207,39,42,75,0,297,206,39,41,75,0,295,205,39,41,74,0,293,204,39,41,74,0,291,203,39,41,73,0,290,202,39,41,73,0,287,201,39,41,73,0,287,199,38,41,71,0,285,199,38,40,71,0,284,198,39,39,71,0,282,197,41,39,71,0,280,195,38,39,70,0,279,195,41,39,70,0,278,194,38,39,70,0,275,192,38,39,70,0,275,192,37,44,69,0,273,204,45,46,69,0,271,211,43,46,68,0,271,210,44,45,68,0,269,209,43,45,67,0,268,207,46,45,67,0,266,206,42,44,73,0,265,205,42,44,73,0,263,204,43,44,71,0,262,203,42,44,71,0,261,202,41,44,71,0,259,201,41,43,71,0,258,209,42,47,71,0,271,220,44,46,70,0,269,219,47,46,70,0,268,217,44,46,69,0,266,216,47,46,69,0,265,215,43,45,69,0,263,213,46,45,68,0,261,212,42,45,68,0,260,211,45,44,68,0,259,210,42,44,67,0,257,209,42,44,67,0,255,207,42,50,67,0,255,206,46,50,66,0,254,205,48,49,66,0,252,205,47,49,65,0,251,203,47,49,65,0,249,202,46,49,67,0,248,201,47,49,69,0,248,199,46,48,69,0,246,199,49,48,68,0,245,198,46,48,68,0,243,197,49,47,67,0,243,195,46,48,67,0,241,195,45,47,67,0,240,194,47,47,66,0,239,193,45,47,66,0,238,192,45,46,65,0,236,191,45,46,65,0,236,190,44,45,65,0,235,189,44,45,64,0,233,188,44,45,64,0,231,187,44,45,63,0,231,186,42,45,63,0,230,185,41,45,63,0,244,216,44,46,63,0,281,214,44,46,63,0,279,213,46,45,62,0,277,211,44,45,62,0,275,210,46,45,67,0,274,209,46,45,79,0,272,207,43,44,79,0,271,207,45,44,79,0,270,205,45,44,79,0,268,205,43,44,78,0,267,203,41,43,77,0,265,208,44,49,77,0,270,207,46,49,77,0,268,206,47,49,76,0,267,205,47,48,76,0,265,204,46,48,75,0,263,203,48,48,76,0,263,201,45,48,76,0,261,199,46,47,75,0,259,199,47,47,75,0,258,198,47,46,74,0,257,197,47,46,74,0,255,202,48,46,73,0,275,211,45,46,73,0,273,210,46,45,73,0,271,209,47,46,71,0,270,207,46,45,71,0,269,207,46,45,76,0,267,206,45,44,75,0,265,205,43,44,75,0,263,203,42,44,74,0,263,202,42,44,74,0,261,201,41,44,73,0,259,199,44,45,73,0,259,199,41,45,71,0,257,199,43,45,71,0,255,198,45,44,71,0,254,196,42,44,71,0,253,195,44,44,79,0,252,194,44,43,78,0,250,193,41,43,78,0,249,192,41,43,77,0,248,191,44,43,77,0,246,190,43,43,76,0,245,189,43,45,76,0,243,189,45,44,76,0,243,188,45,44,75,0,241,187,44,43,75,0,240,185,41,43,75,0,239,185,40,43,74,0,238,184,39,43,78,0,236,183,40,42,78,0,235,182,41,42,77,0,234,181,44,42,77,0,233,180,43,42,76,0,231,179,42,42,76,0,241,205,43,43,76,0,263,204,43,42,75,0,261,202,41,42,75,0,259,201,43,42,74,0,258,199,39,41,74,0,257,199,43,41,78,0,255,198,43,41,77,0,254,197,43,41,77,0,252,195,41,39,77,0,251,195,39,39,76,0,249,194,39,39,76,0,257,202,39,39,75,0,319,206,37,39,75,0,317,205,38,39,74,0,315,204,38,39,74,0,313,203,37,39,73,0,311,201,39,39,76,0,309,199,37,38,77,0,307,199,39,38,77,0,305,198,39,38,76,0,304,198,39,38,76,0,302,196,35,37,76,0,300,209,44,53,75,0,304,220,48,52,75,0,303,218,52,52,74,0,300,217,51,51,74,0,299,216,49,51,73,0,297,215,51,51,77,0,295,213,48,50,79,0,294,211,50,50,78,0,292,211,50,50,78,0,290,210,48,49,77,0,289,208,48,49,77,0,287,207,47,49,76,0,312,207,46,49,76,0,309,206,49,49,76,0,307,205,50,48,75,0,305,204,48,48,75,0,304,203,45,48,74,0,302,201,48,48,74,0,300,199,45,47,73,0,299,199,47,47,73,0,297,199,44,46,71,0,295,197,48,46,71,0,294,196,47,47,71,0,295,221,46,47,71,0,294,220,44,47,71,0,292,219,46,46,71,0,290,217,44,46,70,0,289,216,46,46,70,0,287,215,43,45,71,0,286,214,43,45,71,0,284,212,43,45,70,0,283,211,46,45,70,0,281,210,46,44,69,0,280,209,45,44,69,0,279,217,45,44,68,0,277,215,41,44,68,0,275,214,44,44,68,0,274,212,41,43,67,0,271,211,41,43,67,0,271,210,41,43,85,0,269,209,41,43,84,0,268,207,43,42,84,0,267,207,43,42,83,0,265,206,39,41,83,0,263,205,39,41,83,0,265,207,39,41,82,0,344,210,41,41,82,0,340,209,39,41,81,0,338,207,39,40,81,0,335,206,39,39,80,0,334,206,38,39,80,0,332,204,41,39,79,0,330,203,38,39,79,0,327,202,41,39,79,0,326,201,37,39,78,0,324,199,37,39,78,0,323,199,37,40,78,0,319,198,38,39,77,0,319,197,37,39,77,0,317,197,41,39,76,0,315,195,38,39,76,0,313,194,39,39,79,0,312,193,38,39,79,0,310,192,37,39,78,0,308,192,37,38,77,0,306,190,36,38,77,0,304,189,36,38,77,0,303,188,38,39,76,0,302,211,36,39,76,0,300,209,39,39,75,0,299,207,39,38,75,0,295,206,37,38,75,0,295,206,39,38,78,0,294,205,39,38,81,0,291,204,36,38,80,0,290,203,35,37,79,0,288,201,38,37,79,0,287,199,35,37,79,0,286,199,35,38,79,0,295,209,36,38,78,0,327,207,37,38,78,0,324,207,36,37,78,0,322,205,35,37,77,0,319,204,35,37,78,0,318,203,35,36,113,0,317,201,35,36,112,0,315,199,35,36,112,0,313,199,37,35,111,0,310,198,37,36,110,0,309,197,34,43,110,0,331,245,42,43,109,0,333,243,39,43,108,0,331,241,39,42,108,0,327,240,42,42,107,0,326,238,41,41,106,0,324,237,43,41,106,0,322,236,40,41,105,0,319,234,41,41,103,0,318,231,42,41,103,0,316,231,42,40,103,0,315,230,41,40,103,0,312,243,39,39,102,0,311,242,38,39,102,0,309,240,37,39,101,0,307,239,37,39,101,0,305,238,39,39,100,0,304,236,38,39,99,0,302,235,41,38,99,0,300,233,40,38,98,0,299,231,39,38,98,0,297,231,39,38,97,0,295,230,37,49,97,0,294,230,45,49,96,0,292,228,46,48,96,0,291,227,47,48,96,0,289,226,49,48,95,0,287,224,46,48,95,0,286,223,48,48,94,0,284,222,45,47,94,0,283,221,45,46,93,0,281,220,47,46,93,0,280,219,44,46,92,0,278,217,46,48,92,0,278,217,44,48,91,0,276,216,46,48,91,0,275,215,48,47,90,0,273,213,48,47,90,0,271,212,47,47,89,0,270,211,47,46,89,0,269,210,47,46,89,0,268,209,44,46,88,0,266,207,44,46,88,0,265,207,43,45,87,0,263,206,43,49,87,0,263,210,48,49,86,0,271,209,46,49,86,0,269,207,47,48,86,0,267,206,49,48,85,0,266,205,46,48,84,0,263,204,48,48,91,0,263,203,45,48,90,0,262,202,45,47,89,0,259,201,44,47,89,0,259,199,48,47,89,0,257,199,46,46,88,0,256,198,49,49,88,0,255,197,50,49,87,0,254,195,49,49,86,0,252,194,49,49,86,0,251,194,46,48,86,0,249,193,45,48,94,0,249,192,45,48,93,0,248,191,46,48,92,0,246,190,46,47,92,0,245,189,48,47,91,0,243,188,45,47,91,0,249,191,48,48,90,0,321,199,45,48,90,0,319,199,48,48,89,0,316,198,46,48,89,0,315,197,48,47,88,0,313,196,44,46,89,0,312,195,47,46,89,0,309,194,48,46,89,0,307,193,48,46,88,0,305,192,46,46,88,0,304,191,44,45,87,0,302,191,46,45,87,0,318,202,43,45,87,0,316,199,43,45,86,0,314,199,43,44,85,0,312,198,42,44,85,0,311,197,45,44,84,0,309,195,44,44,83,0,307,195,42,43,83,0,305,194,44,43,83,0,304,193,44,43,82,0,302,192,44,43,82,0,300,191,39,43,82,0,303,203,43,43,81,0,300,202,41,42,81,0,299,199,43,42,80,0,297,199,42,42,79,0,295,199,41,42,79,0,294,198,43,41,79,0,292,197,39,41,79,0,291,195,41,41,79,0,289,194,41,41,78,0,287,193,39,41,78,0,286,192,38,41,78,0,316,231,39,41,77,0,327,231,39,39,77,0,324,229,41,39,76,0,322,227,42,39,76,0,319,227,41,39,75,0,318,225,37,39,75,0,317,224,39,39,75,0,315,223,37,39,74,0,313,221,39,39,74,0,312,220,35,38,73,0,309,219,37,39,73,0,311,223,39,42,73,0,337,222,39,42,71,0,335,220,41,42,71,0,333,220,42,41,71,0,331,218,39,41,71,0,329,217,41,41,74,0,327,216,39,40,73,0,325,215,39,40,73,0,323,213,39,39,71,0,321,212,39,39,71,0,319,211,41,39,71,0,317,211,43,47,71,0,316,211,46,47,71,0,315,209,44,47,71,0,313,207,47,46,70,0,312,207,44,46,70,0,309,206,45,46,70,0,307,205,44,46,70,0,306,204,44,45,69,0,304,203,45,45,69,0,302,202,46,45,68,0,301,201,42,44,68,0,299,199,45,47,67,1,316,199,43,46,67,0,313,198,43,46,67,0,312,197,43,46,67,0,309,196,43,45,66,0,308,195,44,45,66,0,306,194,45,45,66,0,305,193,46,45,66,0,303,192,45,44,65,0,301,191,45,44,65,0,300,190,42,44,65,0,297,189,44,44,64,0,321,202,41,44,64,0,319,201,42,43,63,0,317,199,39,43,63,0,315,199,44,43,63,0,313,198,41,42,82,0,312,196,44,42,105,0,309,195,41,42,103,0,307,194,39,41,103,0,306,193,39,41,102,0,304,192,42,41,102,0,302,191,42,46,102,0,317,216,44,46,101,0,316,214,44,46,100,0,313,212,45,45,99,0,311,211,46,45,99,0,310,210,46,45,99,0,307,209,45,45,98,0,306,207,42,45,97,0,304,207,42,44,97,0,302,206,42,44,97,0,300,204,41,44,96,0,299,203,42,46,96,0,297,204,46,46,95,0,295,203,46,45,95,0,294,201,43,45,94,0,293,201,45,45,93,0,291,199,43,45,93,0,290,199,45,45,94,0,287,198,42,44,94,0,286,197,45,44,93,0,285,195,42,44,93,0,283,195,42,44,92,0,282,193,44,46,92,0,309,220,48,47,92,0,334,218,45,47,91,0,332,217,44,46,90,0,329,216,44,46,90,0,327,214,44,46,89,0,325,213,44,45,91,0,323,212,45,45,90,0,321,211,43,45,89,0,319,210,45,45,89,0,318,208,45,44,88,0,316,207,43,44,88,0,315,231,47,47,88,0,313,228,44,46,87,0,312,227,44,46,87,0,311,226,44,46,86,0,308,224,44,45,85,0,307,223,44,45,94,0,305,222,46,45,93,0,303,220,43,44,93,0,302,219,46,44,92,0,300,218,42,44,92,0,298,217,42,44,91,0,297,216,42,45,91,0,319,215,41,45,90,0,317,213,42,44,89,0,315,212,44,44,89,0,313,211,41,44,89,0,311,210,42,44,88,0,310,209,45,43,88,0,307,207,41,43,87,0,305,207,44,43,87,0,304,206,41,43,86,0,302,205,41,42,86,0,301,204,41,47,86,0,299,207,46,47,85,0,297,206,43,46,84,0,295,205,44,46,84,0,294,204,44,46,83,0,292,203,44,45,83,0,291,202,43,45,87,0,289,199,42,45,86,0,287,199,43,44,86,0,286,199,42,44,86,0,285,197,42,44,85,0,283,196,45,48,85,0,313,211,45,47,84,0,331,210,45,47,83,0,327,209,48,46,83,0,327,207,48,46,83,0,324,207,47,46,91,0,323,206,45,46,103,0,320,204,47,45,102,0,318,203,42,45,102,0,316,202,44,45,101,0,315,201,43,44,100,0,313,199,43,47,100,0,347,203,47,46,99,0,344,201,44,46,99,0,342,199,46,46,98,0,339,199,43,45,97,0,337,199,45,45,97,0,335,197,43,45,96,0,334,196,46,45,96,0,332,195,42,44,96,0,329,194,45,44,95,0,327,193,44,44,95,0,326,192,42,57,94,0,324,201,54,61,94,0,322,199,58,60,93,0,319,199,56,60,93,0,318,198,59,59,92,0,316,197,56,59,92,0,315,195,56,58,91,0,313,195,56,58,91,0,311,193,59,57,90,0,309,192,58,57,90,0,307,192,57,57,89,0,306,191,56,57,88,0,309,227,59,57,88,0,338,238,57,56,88,0,335,236,53,56,88,0,333,235,54,56,87,0,331,233,53,56,86,0,329,231,53,55,90,0,327,231,56,55,90,0,325,230,56,55,89,0,323,228,51,54,89,0,321,227,54,54,88,0,319,225,51,54,88,0,318,224,50,54,88,0,316,224,51,54,87,0,313,222,50,53,86,0,312,221,51,53,86,0,311,220,50,52,86,0,309,219,53,53,85,0,307,217,51,52,84,0,306,216,53,52,84,0,304,216,49,51,83,0,302,214,49,51,83,0,300,213,48,51,83,0,299,211,48,51,82,0,304,211,48,51,82,0,301,210,51,50,81,0,299,209,48,50,81,0,298,207,51,50,81,0,295,206,48,49,95,0,295,205,47,49,94,0,293,204,46,49,94,0,291,203,46,49,93,0,290,202,46,48,92,0,287,201,45,48,92,0,287,199,46,50,92,0,331,229,48,50,91,0,334,227,51,49,91,0,332,225,47,49,90,0,329,225,50,49,89,0,327,223,47,49,89,0,325,222,46,48,90,0,323,221,47,48,89,0,321,220,48,48,89,0,319,219,45,47,89,0,318,217,46,47,88,0,316,216,46,48,88,0,325,254,48,48,88,0,349,252,46,48,87,0,347,250,45,47,86,0,345,248,45,47,86,0,342,248,47,46,86,0,340,246,44,46,85,0,338,244,44,46,85,0,337,243,45,46,84,0,334,241,44,46,83,0,332,240,47,45,83,0,331,239,47,45,83,0,329,261,48,46,82,0,327,270,47,45,82,0,326,268,46,45,81,0,323,266,42,45,81,0,322,263,42,45,81,0,319,263,42,44,80,0,318,261,43,44,79,0,316,260,42,44,79,0,315,259,42,43,79,0,313,257,42,43,79,0,311,255,44,43,78,0,310,255,48,74,78,0,308,259,63,73,77,0,307,257,67,73,77,0,305,255,68,71,77,0,303,254,71,71,76,0,302,252,71,71,83,0,300,251,71,71,82,0,299,250,69,71,82,0,297,249,67,70,81,0,295,248,69,70,80,0,294,246,69,69,80,0,292,245,66,69,79,0,295,246,69,69,79,0,294,245,65,68,79,0,292,243,65,68,78,0,291,242,65,67,78,0,289,241,66,67,199,0,287,240,64,67,199,0,286,238,66,66,199,0,284,237,65,66,198,0,283,236,62,65,196,0,281,235,61,65,195,0,280,233,61,65,194,0,283,236,61,64,193,0,281,234,60,63,192,0,280,231,63,63,190,0,278,231,61,63,189,0,276,230,60,63,188,0,275,229,63,62,187,0,273,227,59,62,186,0,271,226,62,62,185,0,271,225,59,61,184,0,269,224,62,61,184,0,278,225,60,63,182,0,304,224,61,63,181,0,302,222,60,62,180,0,300,222,59,62,179,0,298,220,61,62,178,0,295,219,58,61,177,0,294,217,61,61,176,0,292,217,59,60,175,0,291,216,59,60,174,0,289,215,61,60,173,0,287,213,58,67,173,0,286,218,62,68,171,0,284,216,66,67,171,0,283,216,63,67,169,0,281,214,67,67,169,0,280,213,66,66,167,0,278,211,63,66,189,0,276,210,63,65,198,0,275,209,65,84,197,0,273,208,83,98,195,0,271,207,90,97,194,0,270,206,94,97,193,0,286,231,110,135,192,0,284,229,126,135,190,0,282,227,125,134,189,0,280,227,125,133,188,0,278,225,125,131,187,0,276,224,125,131,185,0,275,222,124,163,185,0,273,221,179,243,184,0,271,219,197,241,182,0,270,218,146,240,181,0,268,217,135,238,180,0,267,216,131,236,179,0,265,214,135,235,178,0,263,213,133,233,231,0,262,211,135,231,243,0,260,210,134,230,241,0,259,209,131,228,240,0,257,207,134,274,319,0,255,206,149,271,315,0,254,221,147,269,313,0,319,219,147,267,311,0,318,217,153,265,307,0,316,216,153,263,306,0,313,215,153,261,304,0,311,214,151,259,302,0,309,212,147,258,300,0,307,211,143,257,298,0,304,210,146,316,295,0,303,207,179,374,294,0,302,243,203,418,292,0,304,241,209,414,290,0,302,239,211,411,288,0,300,237,204,408,287,0,297,236,204,403,285,0,295,234,205,401,284,0,294,233,201,398,281,0,292,231,202,395,280,0,290,230,210,391,279,0,289,228,201,390,276,0,322,252,199,387,275,0,319,249,204,384,273,0,318,248,201,382,312,0,316,247,198,379,449,0,313,245,192,376,463,0,312,243,201,374,459,0,309,242,194,371,455,0,307,240,197,369,451,0,305,239,194,367,448,0,304,237,259,364,444,0,337,244,261,361,440,0,334,243,262,359,437,0,332,241,260,357,434,0,329,240,231,355,431,0,327,238,233,352,457,0,325,237,222,350,453,0,322,235,216,348,449,0,319,233,216,346,446,0,319,231,217,344,443,0,317,231,203,342,439,0,315,229,217,339,435,0,312,228,220,337,432,0,311,227,219,335,429,0,308,225,191,333,427,0,306,224,193,332,487,0,304,223,190,329,482,0,302,221,204,327,478,0,300,220,199,325,475,0,299,219,198,323,471,0,297,219,193,321,467,0,300,217,184,319,463,0,298,216,185,317,460,0,295,215,184,316,455,0,294,214,187,313,453,0,291,212,187,312,450,0,291,211,186,310,447,1,288,210,187,308,444,0,287,209,184,306,441,1,285,207,206,305,438,1,299,222,206,303,434,1,356,220,204,301,431,1,353,219,203,300,428,1,351,218,201,297,425,1,348,216,198,295,422,1,345,216,199,295,419,1,344,214,193,293,417,1,341,212,184,291,414,2,339,211,178,289,411,2,337,210,173,287,409,2,335,208,177,286,405,2,332,207,172,284,403,3,330,206,175,283,399,2,327,205,174,281,398,2,326,204,172,280,395,3,323,203,174,278,391,2,321,201,179,277,390,3,319,199,184,275,387,3,317,199,179,273,385,3,316,198,179,271,383,3,313,197,183,270,380,3,313,196,178,269,377,3,311,194,179,268,375,3,309,193,178,266,372,3,307,192,177,265,370,3,305,192,184,263,368,3,303,191,184,262,366,3,301,189,180,260,364,3,300,188,175,259,361,3,297,199,178,257,359,3,327,236,179,255,357,3,325,234,175,255,354,3,323,231,179,253,352,3,319,231,177,252,350,3,318,229,180,251,348,3,316,227,177,249,346,3,313,226,176,248,344,3,312,225,171,246,342,3,310,224,169,245,340,3,307,253,174,243,338,3,315,259,167,242,335,3,312,258,169,241,334,3,310,255,171,240,332,3,308,254,171,238,329,3,306,252,171,237,327,3,304,251,169,236,326,3,302,249,167,235,324,3,300,248,165,233,322,3,299,247,170,231,321,3,297,273,169,231,318,3,303,271,165,230,316,3,301,269,166,228,315,3,299,268,164,227,313,3,297,265,162,226,312,3,295,263,163,225,310,3,293,262,157,224,307,3,291,261,156,223,306,3,289,259,158,221,304,3,287,257,156,220,302,3,327,259,158,219,300,3,329,257,155,218,299,3,327,255,158,217,297,3,324,254,153,216,295,3,322,252,156,215,294,3,319,251,153,214,292,2,317,249,155,212,291,3,315,248,154,211,289,3,313,246,153,210,287,3,312,244,150,209,286,2,311,243,153,207,284,3,309,241,152,207,283,2,307,240,151,206,281,2,305,239,145,205,280,2,303,237,146,204,278,2,300,236,145,203,277,2,299,235,144,201,275,2,295,233,142,199,274,3,295,231,145,199,271,3,293,231,142,199,271,2,319,233,144,198,269,2,317,231,145,196,268,2,314,230,140,195,266,2,312,229,140,195,265,2,310,227,140,194,263,2,307,226,143,193,262,2,305,225,139,192,260,2,304,224,137,191,259,2,302,223,141,190,258,2,300,221,137,189,256,2,341,253,135,188,255,2,338,251,139,187,253,2,335,249,135,186,252,2,334,248,135,185,251,2,332,246,139,184,249,2,329,245,138,184,248,2,327,243,134,183,247,2,324,241,135,182,246,2,322,240,135,181,244,2,319,239,134,179,243,1,319,237,134,179,241,2,317,236,134,178,240,2,315,234,131,177,239,2,313,233,130,176,238,1,312,231,133,175,237,1,308,230,133,174,236,1,307,229,129,174,235,1,305,227,129,173,233,1,303,226,127,172,231,2,344,231,129,171,231,1,347,229,131,170,229,1,344,227,131,169,228,1,342,226,127,167,227,1,339,224,127,167,226,1,337,223,130,167,225,1,334,222,125,166,224,1,332,221,125,165,223,1,330,219,126,164,221,1,327,218,125,163,220,1,326,246,128,163,220,1,323,243,127,162,218,1,322,242,135,161,217,1,319,240,129,160,216,1,317,239,127,159,215,1,316,237,125,159,214,1,313,236,121,158,213,1,312,234,120,157,211,1,309,233,120,156,210,1,307,231,119,156,209,1,305,230,118,155,208,1,304,228,120,154,207,1,302,227,118,153,206,1,300,226,115,153,205,1,298,224,115,152,204,1,295,223,117,151,203,1,294,222,115,150,202,1,292,220,118,150,201,1,291,219,113,149,199,1,289,217,113,148,199,1,326,230,114,147,198,1,323,227,112,147,197,1,321,226,110,146,195,1,319,225,107,145,195,1,317,224,109,144,194,1,315,222,114,143,193,1,312,220,114,143,192,1,311,220,118,142,191,1,309,218,119,142,190,1,307,217,114,141,189,1,327,227,112,140,188,1,324,225,111,140,187,1,322,224,108,139,186,0,319,223,112,138,185,0,317,221,111,137,184,1,315,220,124,137,184,1,313,218,126,135,183,1,311,217,129,135,182,1,309,216,126,135,181,1,330,224,124,134,179,1,331,222,127,134,179,0,327,220,125,133,178,1,327,219,124,132,177,0,324,218,125,131,176,0,322,217,125,131,176,1,319,216,121,131,175,0,318,214,120,129,174,1,315,212,122,129,173,0,313,211,120,129,172,0,323,243,123,127,171,0,319,241,123,127,171,1,318,239,118,127,169,0,316,237,117,126,167,0,314,236,120,126,167,0,312,235,116,125,167,0,309,233,115,124,166,0,307,231,114,124,165,0,305,230,116,123,165,1,304,229,113,122,164,1,333,231,115,122,163,0,331,229,115,121,162,0,327,227,112,121,161,1,326,226,111,120,161,0,324,225,113,120,159,0,321,223,111,119,159,1,319,222,110,119,158,0,317,221,113,118,157,0,315,220,112,118,157,0,313,219,109,117,156,1,342,224,110,116,155,0,339,222,110,116,154,1,337,220,107,115,153,0,334,219,107,115,153,1,332,218,110,114,152,1,330,216,109,114,152,0,327,216,106,113,151,0,325,214,107,112,150,0,323,212,106,112,149,0,321,211,106,111,149,0,319,211,103,111,148,1,317,209,103,110,147,1,315,207,101,110,146,0,313,207,101,109,145,0,311,206,103,109,145,0,309,205,103,108,143,0,306,204,99,108,143,0,305,203,99,107,143,1,303,201,101,107,142,0,301,231,99,106,141,0,321,230,98,105,141,0,319,228,98,105,140,0,317,227,97,103,140,0,315,225,97,103,161,0,312,224,100,103,165,0,311,223,99,103,164,0,308,221,97,103,163,0,306,220,96,102,162,0,304,219,96,102,161,0,303,217,97,101,159,0,319,233,96,101,159,0,316,231,95,100,158,0,315,231,97,99,158,0,313,229,96,99,156,0,311,227,97,99,156,0,309,227,92,98,155,0,307,225,92,98,154,0,305,224,94,98,153,0,304,222,90,97,152,0,302,221,92,97,152,0,301,241,91,96,151,0,299,238,91,96,150,0,297,237,92,96,149,0,295,235,92,95,148,0,294,234,91,95,147,0,292,231,88,94,146,0,291,231,89,94,145,0,289,230,88,93,145,0,287,228,87,93,143,0,285,227,89,93,143,0,284,226,86,92,143,0,327,273,89,92,142,0,323,271,89,91,141,0,322,269,85,91,141,0,319,268,86,90,140,0,318,265,88,90,139,0,316,263,85,89,138,0,314,263,83,89,138,0,312,261,87,89,137,0,311,259,83,88,137,0,308,258,85,88,135,0,307,257,85,88,135,0,339,257,85,88,135,0,335,255,81,87,134,0,334,254,83,86,134,0,332,252,80,86,133,0,329,251,81,85,132,0,327,249,83,85,131,0,326,248,80,85,131,0,323,247,79,85,130,0,321,246,80,84,130,0,319,244,78,83,129,0,335,248,78,83,129,0,354,246,78,83,128,0,351,245,78,83,127,0,349,243,80,82,127,0,347,242,78,82,126,0,344,241,76,81,126,0,342,240,79,81,125,0,340,238,76,81,125,0,338,237,76,80,124,0,335,236,76,79,124,0,334,234,77,79,123,0,359,233,76,79,123,0,356,231,78,79,122,0,354,230,78,78,121,0,352,229,76,78,121,0,350,228,76,78,243,0,348,227,76,77,255,0,345,225,76,77,253,0,343,224,73,77,251,0,341,223,75,77,249,0,339,221,71,76,248,0,337,221,73,76,247,0,373,251,74,76,245,0,370,249,71,75,243,0,368,248,73,75,242,0,365,247,73,74,241,0,363,245,73,74,239,0,359,243,70,74,238,0,359,242,69,73,236,0,356,240,69,73,235,0,354,239,68,72,234,0,352,238,71,101,231,0,361,258,103,135,231,0,359,255,118,135,230,0,355,255,121,134,228,0,353,253,116,133,227,0,352,251,112,132,225,0,349,249,114,131,224,0,347,248,116,130,223,0,344,246,119,129,222,0,342,244,119,129,220,0,339,243,115,127,219,0,338,243,115,127,217,0,335,241,110,126,216,0,334,240,110,126,216,0,332,238,105,125,214,0,329,237,110,124,213,0,327,235,113,123,211,0,325,233,111,123,210,0,323,231,112,121,209,0,321,231,108,121,207,0,319,229,108,120,206,0,317,239,110,120,205,0,315,237,110,119,204,0,313,236,108,118,203,0,312,234,110,118,202,0,310,231,107,117,261,0,307,231,107,116,259,0,306,229,105,115,257,0,304,227,107,115,255,0,302,227,107,114,254,0,300,225,103,113,252,0,298,224,103,113,250,0,295,223,103,112,249,0,295,222,102,112,248,0,293,220,99,111,246,0,291,219,99,111,244,0,290,218,103,110,243,0,287,217,103,109,242,0,286,216,101,108,240,0,285,214,100,108,239,0,283,220,99,108,237,0,303,227,99,107,236,0,301,225,100,106,234,0,299,224,100,105,231,0,295,222,100,105,231,0,295,221,97,103,230,0,293,220,95,103,229,0,291,218,97,103,227,0,289,217,94,103,226,0,287,216,94,102,225,0,286,215,95,102,224,0,287,231,94,101,223,0,285,229,95,100,221,0,284,227,95,100,220,0,282,226,94,99,219,0,280,225,92,99,217,0,279,223,92,99,216,0,277,222,91,98,216,0,275,221,90,98,214,0,274,220,90,97,213,0,273,219,93,101,212,1,289,249,109,125,211,0,302,248,115,124,209,0,300,245,113,124,207,0,297,243,112,123,207,0,295,242,111,122,206,0,293,240,113,121,205,0,291,239,113,121,203,0,289,238,111,120,203,0,287,236,110,119,201,0,286,235,108,118,199,0,302,239,111,118,199,0,302,238,108,117,198,0,300,236,110,116,197,0,297,234,106,115,195,0,295,233,102,115,195,0,294,231,103,114,193,0,291,231,105,113,192,0,290,229,99,113,192,0,287,227,99,112,190,0,286,226,103,112,189,0,284,226,101,110,188,0,283,224,101,110,187,0,281,223,105,109,186,0,280,221,103,109,185,0,278,220,101,108,184,0,275,219,102,108,183,0,274,218,102,107,182,0,273,216,99,106,181,0,271,215,98,105,180,0,270,214,97,105,179,0,268,229,97,105,178,0,267,227,97,103,177,0,265,226,99,103,177,0,263,225,98,103,176,0,263,224,96,102,175,0,261,222,95,102,174,0,259,221,93,101,173,0,258,220,93,101,172,0,257,218,93,99,171,0,255,217,96,99,171,0,294,235,97,99,169,0,316,233,93,98,169,0,313,231,86,98,167,0,312,230,91,97,167,0,310,229,89,97,166,0,307,227,92,96,165,0,305,226,89,96,164,0,304,225,89,95,163,0,302,223,92,96,163,0,300,222,92,94,162,0,299,221,92,94,161,0,295,220,86,94,160,0,295,219,84,93,159,0,294,217,86,92,159,0,291,216,86,92,158,0,290,216,89,91,157,0,288,214,86,91,156,0,286,213,89,91,156,0,285,211,88,90,155,0,283,211,82,89,154,0,281,209,83,89,153,0,280,207,79,88,153,0,278,207,78,88,152,0,276,206,78,88,151,0,275,205,80,88,150,0,274,204,80,87,150,0,271,203,83,86,149,0,271,201,83,86,148,0,269,199,81,86,147,0,268,199,82,85,147,0,267,199,79,84,146,0,265,198,79,84,145,0,297,234,83,83,144,0,295,231,79,83,144,0,293,231,79,83,143,0,291,229,78,82,143,0,289,227,79,82,142,0,287,226,80,82,141,0,286,225,80,81,141,0,284,224,79,81,140,0,282,222,76,80,139,0,281,221,75,79,139,0,280,220,75,79,138,0,283,243,75,79,137,0,281,241,78,79,136,0,280,239,75,78,135,0,278,238,77,78,135,0,276,236,77,78,135,0,275,235,76,77,134,0,273,233,76,77,133,0,271,231,71,76,133,0,270,231,71,76,132,0,268,230,74,76,131,0,268,228,71,76,131,0,287,243,74,75,130,0,286,242,74,74,130,0,284,240,74,74,129,0,282,239,70,74,128,0,280,237,71,73,127,0,279,236,69,73,127,0,277,235,69,73,126,0,275,233,71,71,125,0,274,231,69,71,125,0,271,230,71,71,125,0,291,263,70,71,124,0,319,263,70,71,123,0,317,263,70,71,123,0,315,260,70,70,122,0,313,259,69,70,121,0,312,257,67,70,121,0,310,255,67,69,121,0,307,254,65,69,120,0,305,253,65,68,120,0,304,251,68,68,119,0,302,250,65,68,118,0,300,267,68,67,118,0,299,266,67,67,117,0,295,263,66,67,117,0,295,262,63,67,116,0,293,260,66,67,115,0,291,259,62,66,115,0,289,257,63,66,115,0,288,255,65,66,114,0,287,254,64,65,114,0,285,253,63,65,113,0,283,252,66,65,113,0,354,287,65,64,112,0,351,285,61,64,112,0,348,284,62,63,111,0,345,282,60,63,111,0,343,280,61,63,110,0,342,279,63,63,110,0,339,277,60,63,109,0,337,275,60,62,109,0,335,274,60,62,108,0,333,271,58,62,108,0,331,291,59,61,107,0,329,289,60,61,107,0,327,287,58,61,106,0,325,285,60,61,106,0,323,284,60,60,105,0,321,282,57,60,105,0,319,280,59,60,103,0,318,279,56,59,103,0,315,276,59,59,103,0,313,275,56,59,103,0,312,273,56,59,103,0,310,275,56,59,102,0,308,274,59,58,102,0,306,272,58,57,101,0,304,271,58,57,101,0,303,269,56,57,100,0,301,268,56,57,100,0,300,266,54,57,99,0,297,265,53,56,99,0,295,263,56,56,99,0,294,262,53,56,98,0,293,260,56,56,98,0,291,261,52,56,97,0,290,259,53,56,97,0,288,258,53,55,96,0,287,257,55,55,96,0,286,255,51,55,96,0,284,254,51,54,95,0,283,253,51,54,95,0,281,251,51,54,95,0,280,250,54,54,94,0,278,248,54,53,94,0,276,248,54,53,93,0,275,263,51,53,92,0,275,262,51,52,92,0,273,260,52,52,92,0,271,258,50,52,92,0,270,257,49,52,91,0,269,255,49,51,91,0,268,254,49,51,91,0,267,253,49,51,90,0,265,251,49,51,89,0,263,250,49,51,89,0,263,248,48,50,89,0,261,259,51,50,88,0,259,274,48,50,88,0,259,271,48,49,88,0,257,271,50,49,88,0,255,269,49,49,87,0,255,268,50,49,87,0,253,266,49,49,86,0,252,265,47,48,86,0,251,263,48,48,86,0,249,262,49,48,85,0,248,260,48,48,84,0,248,259,45,48,84,0,246,261,45,47,84,0,245,259,45,47,83,0,243,258,45,47,83,0,242,256,48,47,83,0,241,255,45,46,83,0,240,254,47,46,82,0,239,252,44,46,81,0,238,251,44,46,82,0,237,249,46,46,81,0,236,248,46,45,81,0,235,247,46,45,80,0,265,282,46,45,79,0,263,281,44,45,79,0,261,279,45,45,79,0,260,277,46,45,79,0,258,275,45,45,78,0,257,274,45,44,78,0,255,273,44,44,78,0,254,271,42,44,78,0,253,269,42,44,77,0,251,268,44,43,77,0,250,266,41,43,77,0,249,265,44,43,76,0,248,263,39,43,76,0,246,262,41,43,76,0,245,260,43,43,75,0,243,259,41,42,75,0,242,258,43,42,75,0,241,255,39,42,75,0,240,255,39,41,74,0,238,253,39,41,73,0,238,252,43,41,73,0,236,251,41,41,73,0,235,263,43,41,73,0,241,262,42,41,71,0,239,259,42,39,71,0,238,258,41,39,71,0,237,257,40,39,71,0,235,255,38,39,71,0,233,254,37,39,71,0,233,252,37,39,70,0,231,251,38,39,70,0,230,249,40,39,70,0,230,248,39,39,70,0,228,257,39,39,69,0,227,271,39,39,69,0,227,269,38,39,68,0,225,268,36,38,69,0,225,265,39,38,68,0,223,263,35,38,67,0,222,263,39,37,67,0,221,261,39,37,67,0,221,259,39,38,67,0,219,258,38,37,66,0,218,257,37,37,66,0,217,255,37,36,66,0,217,275,34,36,66,0,216,273,34,36,65,0,215,271,35,36,65,0,214,269,34,36,65,0,213,268,37,36,65,0,212,267,37,35,64,0,211,265,34,35,63,0,210,263,35,35,63,0,209,262,36,35,63,0,208,260,35,35,63,0,207,259,32,35,63,0,211,270,35,34,63,0,211,269,33,34,62,0,210,267,36,34,62,0,208,265,34,34,62,0,207,263,35,34,62,0,207,262,35,34,61,0,206,261,31,34,61,0,205,259,34,34,61,0,204,258,34,33,60,0,203,256,31,33,60,0,202,255,31,33,60,0,247,275,32,33,59,0,247,273,31,33,60,0,245,271,34,33,59,0,243,270,34,32,59,0,242,269,33,32,59,0,240,267,32,31,58,0,239,265,31,31,58,0,238,263,30,31,58,0,237,263,32,31,58,0,235,261,29,31,57,0,233,259,30,31,57,0,233,259,31,31,56,0,231,257,30,31,56,0,230,255,31,31,56,0,229,254,31,31,56,0,227,253,29,31,56,0,227,251,29,30,56,0,225,250,29,30,55,0,224,249,30,30,55,0,223,248,28,30,55,0,222,246,31,30,55,0,221,245,31,30,54,0,220,243,27,29,54,0,224,243,29,29,54,0,223,242,27,29,53,0,222,241,30,29,54,0,220,240,27,29,53,0,219,239,27,29,52,0,218,237,27,28,52,0,217,236,27,28,52,0,216,235,29,28,52,0,215,234,30,28,51,0,213,231,27,28,51,0,213,231,29,28,51,0,249,257,27,28,51,0,248,255,26,28,51,0,246,253,25,27,51,0,244,252,27,27,51,0,243,250,26,27,50,0,242,249,28,27,50,0,241,248,28,27,50,0,239,246,25,27,49,0,238,245,28,27,49,0,237,243,24,27,49,0,235,242,25,29,48,0,262,259,28,29,48,0,263,258,27,29,48,0,262,255,26,29,48,0,261,255,30,29,48,0,259,253,27,28,48,0,257,251,27,28,48,0,255,250,27,28,47,0,254,249,29,28,47,0,253,248,26,27,47,0,252,246,25,27,47,0,250,245,25,27,46,0,249,251,25,27,46,0,248,249,24,27,46,0,246,248,25,27,46,0,245,247,29,27,46,0,243,245,25,27,46,0,242,243,28,26,45,0,241,243,27,26,45,0,240,241,24,26,45,0,239,240,24,25,45,0,237,239,27,26,44,0,236,238,24,25,44,0,235,246,27,25,44,0,236,245,24,25,44,0,236,243,24,25,44,0,233,242,24,25,44,0,231,241,23,25,43,0,231,239,24,