
44,94,0,319,211,0,

44,94,0,318,211,0,

43,93,0,316,210,0,

45,94,0,315,209,0,

45,94,0,312,207,0,

45,93,0,311,207,0,

45,93,0,310,206,0,

45,93,0,307,205,0,

44,92,0,306,204,0,

44,91,0,304,203,0,

44,91,0,303,202,0,

44,91,0,301,201,0,

44,90,0,300,201,0,

43,90,0,298,199,0,

43,89,0,295,199,0,

44,120,0,295,198,0,

43,120,0,293,197,0,

43,119,0,291,196,0,

43,118,0,290,195,0,

42,117,0,287,194,0,

42,117,0,287,210,0,

42,116,0,318,209,0,

42,115,0,315,207,0,

41,115,0,313,206,0,

41,114,0,312,205,0,

41,113,0,310,204,0,

45,120,0,307,203,0,

45,120,0,307,202,0,

44,119,0,304,199,0,

44,118,0,302,199,0,

44,117,0,301,199,0,

44,117,0,299,198,0,

43,116,0,297,196,0,

43,115,0,295,195,0,

43,115,0,294,194,0,

42,114,0,292,193,0,

43,114,0,291,193,0,

49,117,0,289,192,0,

49,116,0,287,191,0,

49,115,0,286,190,0,

48,115,0,285,189,0,

48,114,0,283,188,0,

48,113,0,281,187,0,

48,113,0,280,186,0,

47,112,0,279,185,0,

47,112,0,277,184,0,

47,111,0,275,184,0,

46,110,0,274,183,0,

46,111,0,273,182,0,

48,110,0,271,181,0,

48,110,0,270,180,0,

48,109,0,268,179,0,

48,109,0,267,179,0,

48,108,0,266,178,0,

47,108,0,298,242,0,

47,107,0,373,240,0,

46,106,0,370,239,0,

46,106,0,368,237,0,

46,105,0,365,236,0,

46,105,0,363,235,0,

46,103,0,359,233,0,

46,103,0,359,231,0,

45,103,0,356,231,0,

45,103,0,354,230,0,

45,102,0,352,228,0,

44,101,0,350,227,0,

44,101,0,371,226,0,

44,100,0,369,224,0,

44,99,0,367,223,0,

44,99,0,364,223,0,

43,102,0,363,221,0,

44,108,0,359,220,0,

44,108,0,358,219,0,

43,107,0,355,217,0,

43,106,0,353,216,0,

43,105,0,352,216,0,

43,105,0,349,214,0,

42,103,0,347,213,0,

42,103,0,345,212,0,

41,103,0,344,211,0,

41,103,0,342,210,0,

41,102,0,339,209,0,

44,108,0,338,207,0,

44,108,0,335,207,0,

43,107,0,334,206,0,

43,107,0,332,204,0,

42,106,0,330,204,0,

42,105,0,327,202,0,

42,105,0,326,201,0,

42,103,0,324,199,0,

42,103,0,323,199,0,

41,103,0,321,199,0,

41,103,0,319,198,0,

45,110,0,318,196,0,

47,110,0,316,195,0,

47,109,0,314,195,0,

46,109,0,312,193,0,

46,108,0,311,193,0,

46,108,0,309,192,0,

46,107,0,311,207,0,

45,106,0,309,206,0,

45,105,0,307,205,0,

45,105,0,305,204,0,

45,103,0,304,203,0,

45,103,0,302,201,0,

53,103,0,300,201,0,

52,103,0,299,199,0,

52,103,0,297,198,0,

52,103,0,295,198,0,

51,102,0,294,196,0,

51,101,0,301,195,0,

51,101,0,317,194,0,

50,100,0,315,193,0,

50,99,0,313,192,0,

50,99,0,312,192,0,

50,99,0,310,190,0,

50,103,0,307,190,0,

49,103,0,306,188,0,

49,103,0,304,188,0,

48,102,0,302,187,0,

48,102,0,301,185,0,

48,101,0,299,185,0,

48,100,0,297,184,0,

48,100,0,295,183,0,

47,99,0,294,182,0,

47,99,0,292,182,0,

47,98,0,291,181,0,

47,113,0,289,179,0,

46,112,0,287,179,0,

46,111,0,286,178,0,

46,110,0,285,177,0,

46,109,0,284,176,0,

45,109,0,282,176,0,

45,108,0,313,210,0,

45,108,0,313,208,0,

45,107,0,312,207,0,

45,107,0,310,206,0,

44,106,0,307,205,0,

45,106,0,306,204,0,

57,105,0,304,203,0,

56,105,0,302,201,0,

56,103,0,301,201,0,

56,103,0,299,199,0,

55,103,0,297,198,0,

55,103,0,295,198,0,

54,102,0,294,196,0,

54,101,0,292,195,0,

54,101,0,291,194,0,

53,100,0,289,193,0,

53,99,0,287,192,0,

53,103,0,286,191,0,

53,103,0,284,190,0,

52,103,0,283,190,0,

52,103,0,281,189,0,

52,102,0,280,188,0,

51,101,0,279,187,0,

51,101,0,277,186,0,

51,100,0,275,185,0,

51,99,0,274,184,0,

50,99,0,273,183,0,

50,99,0,271,183,0,

50,99,0,270,181,0,

50,98,0,269,181,0,

50,98,0,268,179,0,

49,98,0,267,179,0,

49,97,0,265,179,0,

49,97,0,263,177,0,

48,96,0,290,176,0,

48,96,0,289,176,0,

48,95,0,287,175,0,

48,95,0,285,174,0,

48,94,0,284,174,0,

47,94,0,282,173,0,

50,114,0,281,172,0,

50,113,0,279,171,0,

50,112,0,278,170,0,

50,112,0,275,169,0,

49,111,0,274,169,0,

49,111,0,273,167,0,

48,110,0,280,167,0,

48,109,0,278,167,0,

48,109,0,276,166,0,

48,108,0,275,165,0,

48,108,0,273,164,0,

48,108,0,271,163,0,

48,107,0,271,163,0,

47,106,0,269,162,0,

47,106,0,268,161,0,

47,105,0,266,160,0,

46,103,0,263,159,0,

46,103,0,268,159,0,

46,103,0,266,158,0,

45,103,0,265,158,0,

45,103,0,263,157,0,

45,102,0,262,156,0,

52,102,0,261,156,0,

53,101,0,259,155,0,

53,101,0,258,154,0,

52,100,0,257,153,0,

52,99,0,255,153,0,

51,99,0,254,153,0,

51,99,0,278,199,0,

51,98,0,284,199,0,

51,97,0,281,198,0,

50,97,0,281,197,0,

50,97,0,279,196,0,

50,96,0,278,195,0,

56,100,0,275,194,0,

56,99,0,274,193,0,

55,99,0,273,192,0,

55,98,0,271,191,0,

54,98,0,270,190,0,

54,98,0,269,209,0,

54,97,0,322,241,0,

54,97,0,322,239,0,

53,96,0,319,237,0,

53,96,0,318,236,0,

53,95,0,316,235,0,

53,102,0,314,233,0,

56,107,0,313,231,0,

56,106,0,311,231,0,

55,105,0,309,230,0,

56,105,0,307,228,0,

55,103,0,305,227,0,

55,103,0,304,226,0,

54,103,0,303,225,0,

54,103,0,302,223,0,

54,102,0,300,222,0,

53,101,0,298,221,0,

53,101,0,295,220,0,

53,100,0,295,219,0,

53,99,0,293,217,0,

52,99,0,292,216,0,

52,99,0,290,216,0,

52,98,0,289,215,0,

51,98,0,287,216,0,

51,97,0,302,216,0,

51,97,0,300,214,0,

51,96,0,299,214,0,

50,96,0,297,212,0,

50,95,0,295,211,0,

52,99,0,294,210,0,

53,99,0,291,209,0,

53,98,0,291,207,0,

52,97,0,289,207,0,

52,97,0,287,206,0,

51,96,0,286,205,0,

51,96,0,284,259,0,

51,96,0,316,255,0,

51,95,0,313,254,0,

50,94,0,312,253,0,

50,94,0,310,251,0,

50,93,0,307,250,0,

68,98,0,306,249,0,

68,97,0,304,248,0,

67,97,0,303,246,0,

67,96,0,301,245,0,

67,96,0,300,243,0,

67,96,0,298,242,0,

66,95,0,324,313,0,

66,94,0,339,310,0,

65,94,0,337,307,0,

65,93,0,335,306,0,

65,93,0,333,304,0,

64,92,0,332,303,0,

73,96,0,329,300,0,

71,95,0,327,299,0,

71,94,0,326,297,0,

71,94,0,324,295,0,

71,93,0,322,294,0,

71,93,0,319,293,0,

71,92,0,340,291,0,

70,92,0,339,289,0,

70,91,0,337,287,0,

69,91,0,335,287,0,

69,90,0,334,284,0,

69,90,0,332,284,0,

68,89,0,329,281,0,

67,89,0,327,280,0,

67,89,0,326,279,0,

67,88,0,323,277,0,

67,88,0,322,276,0,

66,88,0,320,275,0,

66,87,0,319,273,0,

66,87,0,317,271,0,

65,86,0,315,270,0,

65,86,0,313,269,0,

64,85,0,312,268,0,

64,97,0,310,267,0,

63,106,0,309,265,0,

63,105,0,307,263,0,

63,103,0,305,312,0,

63,103,0,304,310,0,

62,103,0,302,308,0,

62,103,0,300,306,0,

62,103,0,299,304,0,

61,102,0,297,302,0,

61,101,0,295,300,0,

61,101,0,294,299,0,

73,109,0,292,297,0,

76,110,0,290,295,0,

76,109,0,289,294,0,

75,109,0,287,291,0,

75,108,0,286,291,0,

74,107,0,285,288,0,

73,107,0,283,287,0,

73,106,0,311,286,0,

73,106,0,309,284,0,

71,105,0,307,282,0,

71,103,0,305,281,0,

103,159,0,304,280,0,

151,216,0,301,278,0,

149,215,0,300,275,0,

148,213,0,297,275,0,

147,211,0,295,273,0,

146,210,0,294,271,0,

145,209,0,293,270,0,

144,207,0,291,268,0,

143,207,0,289,267,0,

143,205,0,287,265,0,

142,204,0,286,263,0,

141,204,0,284,262,0,

141,203,0,283,261,0,

140,202,0,281,259,0,

139,201,0,280,258,0,

138,199,0,278,257,0,

137,199,0,276,255,0,

137,198,0,275,254,0,

135,196,0,273,252,0,

135,195,0,271,251,0,

135,194,0,271,250,0,

134,193,0,269,249,0,

133,192,0,268,248,0,

132,191,0,267,246,0,

131,189,0,265,244,0,

131,189,0,263,243,0,

130,188,0,262,242,0,

129,187,0,261,241,0,

129,185,0,259,240,0,

128,185,0,258,239,0,

127,184,0,256,237,0,

127,183,0,255,236,0,

127,227,0,254,235,0,

132,270,0,252,233,0,

131,268,0,251,231,0,

131,265,0,249,231,0,

130,274,0,249,230,0,

129,283,0,247,229,0,

129,280,0,263,252,0,

127,278,0,313,249,0,

127,275,0,312,248,0,

127,275,0,310,246,0,

126,299,0,308,246,0,

226,434,0,306,243,0,

305,586,0,304,243,0,

301,612,0,303,241,0,

299,606,0,300,240,0,

297,600,0,299,238,0,

295,594,0,297,237,0,

293,589,0,295,236,0,

291,585,0,294,234,0,

289,579,0,291,233,0,

287,575,0,290,231,0,

286,570,0,288,230,0,

353,567,0,287,229,0,

372,562,0,285,227,0,

369,557,0,284,227,0,

367,553,0,281,225,0,

364,549,0,280,224,0,

361,545,0,279,223,0,

359,541,0,309,222,0,

357,536,0,341,220,0,

354,534,0,339,220,0,

352,529,0,335,219,0,

350,665,0,334,217,0,

348,675,0,332,216,0,

345,670,0,329,215,0,

344,664,0,327,214,0,

342,657,0,325,213,0,

339,651,0,323,212,1,

337,647,0,322,267,0,

335,639,0,319,265,1,

334,635,0,318,263,0,

332,629,0,317,261,0,

329,625,1,315,259,0,

327,620,0,313,258,0,

326,614,0,311,255,0,

323,609,0,309,254,0,

322,604,0,307,253,1,

319,600,1,305,252,0,

318,595,0,304,250,1,

317,590,0,302,248,0,

315,585,0,331,248,0,

313,582,0,329,246,0,

311,577,0,327,244,0,

309,573,0,325,243,0,

307,568,0,323,241,0,

306,565,1,321,240,1,

304,560,1,318,239,0,

302,556,0,317,238,0,

301,551,1,315,236,0,

299,549,0,313,235,0,

298,545,1,344,234,0,

295,540,1,340,231,0,

295,536,1,339,231,0,

293,533,1,336,230,0,

291,529,0,334,229,0,

289,526,1,332,227,0,

287,521,1,330,227,1,

286,519,1,327,225,0,

285,515,0,326,224,1,

284,511,1,323,223,0,

282,508,1,323,226,0,

281,505,0,399,225,0,

280,501,1,396,224,1,

278,498,1,393,222,1,

276,494,1,391,221,1,

275,491,1,388,220,1,

273,487,1,385,219,1,

271,485,1,383,217,1,

271,481,1,381,216,1,

269,478,1,378,215,1,

268,476,1,376,214,1,

266,473,1,373,255,1,

265,470,1,371,253,1,

263,466,1,369,251,1,

262,463,1,367,250,1,

261,461,1,364,249,1,

259,458,1,362,247,1,

258,455,2,359,245,1,

257,453,1,358,244,1,

255,450,2,355,243,1,

254,447,2,353,241,2,

253,444,2,352,254,1,

252,442,2,349,289,1,

251,440,2,347,287,1,

249,436,1,345,285,1,

248,433,2,344,284,2,

247,432,2,341,281,2,

246,429,2,339,280,2,

243,426,2,337,278,2,

243,423,2,335,276,2,

242,422,2,333,275,2,

240,419,2,331,273,2,

239,415,2,329,271,2,

238,414,2,327,270,2,

237,411,2,326,268,2,

236,409,2,323,268,2,

235,407,2,322,265,2,

233,404,2,319,263,2,

231,401,2,318,263,2,

231,399,2,317,261,2,

230,397,2,315,259,2,

229,395,2,313,258,2,

227,393,2,312,257,2,

227,391,2,310,255,2,

225,389,2,307,254,2,

224,386,2,307,252,2,

224,384,2,304,251,2,

222,382,2,303,249,2,

221,380,2,301,248,2,

220,377,2,300,247,2,

219,376,2,298,245,2,

217,374,2,295,244,3,

217,371,2,295,243,2,

216,369,2,293,242,3,

215,368,2,300,241,3,

214,366,2,298,239,2,

213,364,2,295,238,2,

211,361,2,294,237,2,

211,404,2,293,236,2,

210,401,2,291,234,2,

209,398,2,289,233,2,

207,396,2,287,231,2,

207,391,2,287,231,2,

206,390,2,285,229,2,

205,388,2,283,229,2,

204,385,2,355,230,2,

203,383,2,353,229,2,

202,380,3,351,227,2,

201,378,2,348,226,2,

199,376,2,346,225,2,

199,373,2,344,224,2,

198,371,3,342,223,2,

197,369,2,339,222,3,

196,366,2,337,221,2,

195,364,2,335,220,2,

194,361,2,333,218,2,

193,359,2,355,217,2,

193,358,2,353,216,2,

192,355,2,351,215,2,

190,353,2,349,214,2,

190,352,2,347,213,2,

189,350,2,344,211,2,

188,348,2,342,211,2,

187,346,2,340,209,2,

187,344,2,337,207,2,

185,343,2,335,207,2,

185,341,2,346,268,2,

184,339,2,344,265,2,

183,337,2,342,263,2,

182,335,2,339,263,2,

181,334,2,337,261,2,

180,332,2,335,259,2,

179,330,2,333,257,2,

179,327,2,331,255,2,

178,327,2,327,254,2,

177,325,2,327,253,2,

176,323,2,325,251,2,

175,321,2,323,251,2,

175,319,2,321,249,2,

174,318,2,319,247,2,

173,316,1,318,246,2,

172,315,1,316,245,2,

171,313,2,313,243,2,

170,312,2,312,242,2,

169,310,2,310,240,2,

169,309,2,309,239,2,

167,307,1,307,238,2,

167,305,1,305,236,2,

167,304,2,304,235,2,

166,303,2,302,233,2,

165,301,1,300,231,2,

164,300,1,298,231,2,

163,298,2,297,230,2,

163,297,2,295,229,2,

162,295,2,293,227,2,

161,294,2,291,226,2,

161,292,2,291,225,2,

159,291,2,288,224,2,

159,289,1,313,223,1,

158,287,2,359,221,1,

157,286,1,357,220,1,

157,285,1,354,219,1,

156,284,1,352,218,1,

156,282,2,349,217,1,

155,281,1,348,216,1,

154,280,1,345,214,1,

153,278,1,343,214,1,

153,277,1,341,212,1,

152,275,1,339,211,1,

151,274,1,337,210,1,

150,273,1,335,209,1,

150,271,1,333,207,1,

149,270,1,330,207,1,

148,269,1,329,206,1,

147,268,1,327,204,1,

147,267,1,324,204,1,

146,265,1,323,203,1,

146,263,1,321,201,1,

145,263,1,319,199,1,

144,261,1,317,205,1,

143,260,1,340,215,1,

143,259,1,339,213,1,

142,258,1,335,212,1,

142,255,1,334,211,1,

141,255,1,332,210,1,

173,255,1,330,208,1,

172,254,1,327,207,1,

170,252,1,326,206,1,

169,251,1,323,205,1,

167,250,1,322,204,1,

167,249,1,319,203,1,

166,248,1,318,201,1,

166,247,1,316,201,1,

165,246,1,315,199,1,

163,243,1,313,198,1,

163,243,1,312,198,1,

162,242,0,309,196,1,

161,240,1,307,195,1,

160,240,1,305,194,1,

159,239,1,304,194,1,

158,237,1,302,192,1,

158,236,0,350,192,1,

157,235,1,348,191,0,

156,234,1,345,190,1,

155,233,1,344,189,1,

154,231,1,341,188,1,

153,231,1,339,187,1,

153,230,1,337,186,1,

152,229,1,335,185,1,

151,227,1,332,184,1,

150,227,1,331,184,1,

149,226,1,327,184,1,

148,225,0,327,183,1,

147,224,1,325,182,1,

147,222,1,323,180,1,

146,221,0,321,179,1,

145,221,1,319,179,1,

145,220,0,318,178,0,

143,218,1,316,177,1,

143,217,0,314,176,0,

143,216,1,312,176,0,

142,216,0,310,175,0,

141,215,0,309,285,1,

140,213,1,345,284,1,

140,212,1,342,283,0,

139,211,0,339,281,0,

139,210,0,338,279,0,

138,210,1,335,277,0,

137,209,0,334,275,1,

137,207,1,331,274,1,

135,207,0,329,271,1,

135,206,1,327,270,0,

135,205,0,325,269,1,

134,204,0,323,268,1,

134,203,0,321,266,0,

133,202,0,319,263,0,

132,201,0,318,263,0,

132,199,0,316,262,0,

140,199,0,313,259,0,

167,198,0,312,258,0,

166,198,0,311,256,0,

165,197,0,308,255,0,

163,195,0,307,254,0,

163,195,0,305,252,1,

162,194,0,323,251,0,

161,193,0,319,249,0,

159,192,0,318,248,0,

159,192,0,317,247,0,

158,190,0,315,245,1,

157,190,1,313,243,0,

156,189,0,311,243,0,

156,188,0,309,241,0,

155,187,0,307,240,0,

154,186,0,305,239,0,

153,185,0,304,241,0,

152,184,0,327,239,0,

152,184,0,325,238,1,

151,183,0,323,236,0,

150,182,0,321,235,0,

149,181,0,319,234,0,

148,180,0,317,231,0,

147,179,0,315,231,0,

147,179,0,313,230,0,

146,178,0,311,229,0,

145,177,0,310,249,0,

143,177,0,319,304,0,

143,176,0,319,301,0,

143,175,0,317,299,0,

142,174,0,316,297,0,

142,174,0,313,295,0,

141,173,0,312,294,0,

140,172,0,309,291,0,

139,171,0,308,290,0,

139,170,0,306,287,0,

137,170,0,304,287,0,

137,169,0,303,297,0,

135,167,0,305,323,0,

135,167,0,303,319,0,

135,167,0,301,318,0,

134,166,0,299,316,0,

133,165,0,298,314,0,

133,170,0,295,312,0,

132,169,0,294,311,0,

131,167,0,293,309,0,

131,167,0,291,307,0,

130,166,0,289,305,0,

129,166,0,287,303,0,

129,165,0,326,301,0,

128,164,0,323,300,0,

127,163,0,321,297,0,

127,162,0,319,295,0,

126,162,0,318,294,0,

126,161,0,315,292,0,

125,159,0,313,291,0,

125,159,0,312,289,0,

124,159,0,310,287,0,

124,158,0,307,286,0,

123,157,0,306,284,0,

123,157,0,340,283,0,

122,156,0,338,281,0,

121,155,0,335,280,0,

121,154,0,334,278,0,

121,154,0,332,276,0,

120,153,0,329,275,0,

119,153,0,327,273,0,

119,152,0,326,271,0,

119,151,0,323,270,0,

118,151,0,321,269,0,

117,150,0,319,268,0,

117,149,0,318,266,0,

116,149,0,316,263,0,

115,147,0,313,263,0,

115,147,0,312,262,0,

115,147,0,311,260,0,

135,146,0,308,259,0,

135,145,0,306,257,0,

135,145,0,304,255,0,

134,143,0,303,254,0,

133,143,0,301,253,0,

131,143,0,307,252,0,

131,142,0,306,251,0,

131,142,0,304,249,0,

130,141,0,302,248,0,

129,140,0,300,247,0,

128,161,0,299,245,0,

127,159,0,295,243,0,

127,158,0,295,243,0,

126,158,0,293,241,0,

126,156,0,291,240,0,

125,156,0,292,239,0,

124,155,0,307,238,0,

124,154,0,304,236,0,

123,153,0,302,235,0,

122,152,0,300,234,0,

121,152,0,299,231,0,

121,177,0,297,231,0,

185,176,0,295,231,0,

184,175,0,293,230,0,

183,173,0,291,227,0,

182,172,0,290,227,0,

180,172,0,326,226,0,

179,171,0,326,225,0,

178,170,0,323,224,0,

177,167,0,321,222,0,

176,167,0,319,221,0,

291,167,0,317,220,0,

289,192,0,316,219,0,

286,257,0,313,218,0,

284,255,0,312,217,0,

283,253,0,310,216,0,

281,252,0,307,215,0,

280,249,0,306,220,0,

277,248,0,304,219,0,

275,247,0,303,217,0,

274,245,0,301,216,0,

272,243,0,299,215,0,

271,243,0,297,214,0,

269,241,0,295,213,0,

268,240,0,294,211,0,

266,238,0,293,211,0,

265,237,0,291,209,0,

263,236,0,289,208,0,

262,234,0,316,207,0,

260,233,0,314,206,0,

259,231,0,312,205,0,

257,231,0,310,204,0,

255,229,0,307,204,0,

254,227,0,307,202,0,

253,227,0,304,201,0,

252,225,0,303,199,0,

250,224,0,300,199,0,

248,223,0,299,199,0,

248,222,0,311,198,0,

246,221,0,335,197,0,

245,219,0,332,196,0,

243,218,0,330,195,0,

242,217,0,327,194,0,

240,216,0,327,193,0,

240,215,0,324,192,0,

238,213,0,322,192,0,

237,212,0,319,190,0,

236,211,0,319,189,0,

235,210,0,316,189,0,

233,209,0,319,188,0,

231,207,0,318,187,0,

231,207,0,316,186,0,

230,206,0,313,185,0,

228,204,0,312,184,0,

227,203,0,310,184,0,

226,203,0,308,182,0,

225,201,0,306,181,0,

224,199,0,304,181,0,

223,199,0,303,180,0,

221,198,0,301,179,0,

220,198,0,300,178,0,

219,196,0,298,177,0,

218,195,0,295,176,0,

217,194,0,294,176,0,

216,231,0,293,175,0,

215,263,0,291,174,0,

214,261,0,289,173,0,

213,259,0,287,172,0,

211,258,0,286,172,0,

211,255,0,285,171,0,

209,254,0,306,171,0,

208,252,0,308,170,0,

207,252,0,306,169,0,

206,249,0,304,167,0,

205,249,0,302,167,0,

204,247,0,301,167,0,

203,246,0,299,166,0,

202,244,0,297,165,0,

201,243,0,295,165,0,

199,241,0,294,163,0,

199,240,0,291,163,0,

198,239,0,339,187,0,

197,237,0,339,186,0,

196,236,0,338,185,0,

195,235,0,335,184,0,

194,233,0,333,183,0,

193,231,0,331,182,0,

192,231,0,329,180,0,

192,229,0,327,179,0,

190,228,0,325,179,0,

189,227,0,323,177,0,

188,225,0,321,176,0,

188,224,0,319,175,0,

187,224,0,317,175,0,

185,222,0,315,174,0,

185,221,0,313,172,0,

184,220,0,312,172,0,

183,219,0,310,171,0,

182,217,0,307,170,0,

181,216,0,306,169,0,

180,215,0,304,167,0,

179,214,0,303,167,0,

179,213,0,301,166,0,

178,211,0,299,165,0,

177,210,0,297,164,0,

176,209,0,295,163,0,

175,207,0,294,163,0,

174,207,0,292,162,0,

174,206,0,291,161,0,

172,205,0,289,160,0,

172,204,0,287,159,0,

171,203,0,286,159,0,

171,202,0,284,158,0,

169,201,0,283,159,0,

167,199,0,281,158,0,

167,199,0,280,158,0,

167,198,0,279,157,0,

167,196,0,277,156,0,

165,195,0,275,155,0,

164,195,0,274,155,0,

163,193,0,273,154,0,

163,192,0,271,153,0,

162,192,0,270,153,0,

161,191,0,268,164,0,

161,190,0,327,201,0,

159,189,0,326,199,0,

159,188,0,323,199,0,

158,187,0,321,198,0,

158,186,0,318,197,0,

157,185,0,317,195,0,

156,184,0,315,194,0,

156,184,0,313,193,0,

154,182,0,311,192,0,

154,181,0,310,191,0,

153,180,0,307,190,0,

152,179,0,305,189,0,

152,179,0,304,188,0,

151,178,0,302,187,0,

151,177,0,301,185,0,

150,176,0,299,185,0,

149,175,0,297,184,0,

148,174,0,295,182,0,

147,173,0,293,182,0,

147,172,0,291,181,0,

146,172,0,290,179,0,

145,171,0,288,179,0,

145,170,0,287,178,0,

143,169,0,286,177,0,

143,167,0,284,176,0,

142,167,0,283,175,0,

142,167,0,281,174,0,

141,166,0,280,173,0,

141,165,0,278,172,0,

140,164,0,276,171,0,

139,163,0,275,170,0,

139,163,0,274,169,0,

138,162,0,271,169,0,

137,161,0,270,167,0,

137,159,0,269,167,0,

135,159,0,268,166,0,

135,159,0,266,165,0,

135,158,0,265,164,0,

134,157,0,263,163,0,

134,156,0,262,163,0,

133,155,0,261,162,0,

132,155,0,259,161,0,

132,154,0,259,214,0,

131,153,0,287,211,0,

131,153,0,285,210,0,

130,152,0,283,209,0,

129,151,0,281,207,0,

129,150,0,280,206,0,

127,150,0,279,205,0,

127,149,0,277,204,0,

127,148,0,275,203,0,

126,147,0,273,201,0,

126,146,0,271,199,0,

125,146,0,270,199,0,

124,145,0,269,198,0,

124,144,0,267,197,0,

123,143,0,265,196,0,

123,143,0,263,195,0,

122,142,0,263,194,0,

121,142,0,262,192,0,

121,141,0,259,192,0,

120,141,0,259,238,0,

120,140,0,257,236,0,

120,139,0,255,234,0,

119,139,0,257,231,0,

119,138,0,255,231,0,

118,137,0,254,230,0,

117,136,0,252,228,0,

116,135,0,251,227,0,

115,135,0,250,225,0,

115,135,0,248,224,0,

115,134,0,248,223,0,

115,134,0,246,221,0,

114,133,0,244,220,0,

113,133,0,243,219,0,

113,131,0,242,217,0,

112,131,0,241,216,0,

112,131,0,240,216,0,

111,130,0,239,214,0,

111,129,0,237,213,0,

110,129,0,236,211,0,

110,128,0,235,211,0,

109,127,0,234,210,0,

109,127,0,233,208,0,

109,126,0,231,207,0,

108,126,0,231,206,0,

108,126,0,231,205,0,

107,125,0,230,204,0,

106,124,0,229,203,0,

106,124,0,227,202,0,

105,123,0,226,201,0,

105,123,0,225,199,0,

105,122,0,224,199,0,

103,122,0,223,198,0,

103,121,0,222,197,0,

103,121,0,221,195,0,

103,120,0,248,194,0,

102,120,0,260,193,0,

102,119,0,259,193,0,

101,119,0,257,192,0,

101,118,0,255,190,0,

101,118,0,254,189,0,

100,117,0,252,189,0,

99,116,0,251,188,0,

99,116,0,249,187,0,

99,115,0,248,187,0,

98,115,0,247,312,0,

98,115,0,310,357,0,

97,114,0,319,353,0,

97,113,0,317,351,0,

96,113,0,315,349,0,

96,113,0,313,346,0,

96,112,0,311,344,0,

95,112,0,309,342,0,

95,111,0,307,340,0,

94,111,0,305,338,0,

94,110,0,304,335,0,

94,110,0,302,334,0,

93,110,0,301,332,0,

93,109,0,299,331,0,

92,109,0,297,327,0,

92,108,0,295,326,0,

92,108,0,294,324,0,

91,107,0,292,322,0,

91,107,0,291,321,0,

91,106,0,289,319,0,

90,106,0,287,316,0,

89,105,0,286,315,0,

89,105,0,284,313,0,

89,105,0,283,312,0,

88,103,0,281,310,0,

88,103,0,280,308,0,

88,103,0,278,307,0,

88,102,0,277,305,0,

87,102,0,275,304,0,

87,102,0,274,301,0,

86,102,0,272,300,0,

86,101,0,271,299,0,

86,100,0,270,295,0,

85,100,0,268,295,0,

84,99,0,267,294,0,

84,99,0,265,292,0,

84,99,0,263,291,0,

83,99,0,263,289,0,

83,98,0,262,287,0,

83,97,0,260,286,0,

82,97,0,259,285,0,

83,97,0,258,284,0,

82,97,0,256,282,0,

81,96,0,255,281,0,

81,96,0,254,280,0,

81,95,0,252,278,0,

80,95,0,252,276,0,

80,95,0,250,275,0,

79,94,0,249,274,0,

79,93,0,248,272,0,

79,93,0,246,271,0,

79,93,0,246,270,0,

78,93,0,244,269,0,

78,92,0,243,268,0,

78,92,0,242,265,0,

78,92,0,241,265,0,

77,91,0,240,263,0,

77,91,0,238,262,0,

76,91,0,237,261,0,

76,90,0,236,259,0,

76,89,0,235,258,0,

76,89,0,235,257,0,

75,89,0,233,255,0,

75,89,0,231,254,0,

74,89,0,231,253,0,

75,88,0,230,252,0,

74,88,0,229,251,0,

74,88,0,227,250,0,

73,87,0,227,249,0,

73,86,0,225,248,0,

72,86,0,224,247,0,

73,86,0,224,245,0,

71,85,0,223,244,0,

71,85,0,222,243,0,

71,85,0,221,242,0,

71,84,0,220,241,0,

71,84,0,219,240,0,

71,83,0,217,238,0,

70,83,0,217,238,0,

70,83,0,216,236,0,

70,83,0,216,235,0,

70,82,0,214,312,0,

69,82,0,259,342,0,

69,81,0,257,339,0,

68,81,0,255,338,0,

68,81,0,255,335,0,

68,81,0,253,334,0,

67,83,0,252,332,0,

67,82,0,250,330,0,

67,82,0,249,327,0,

67,81,0,248,326,0,

67,81,0,247,325,0,

66,81,0,245,322,0,

66,80,0,243,321,0,

66,79,0,243,319,0,

66,79,0,241,317,0,

65,79,0,240,316,0,

65,79,0,239,313,0,

65,78,0,238,312,0,

65,102,0,236,310,0,

64,101,0,235,308,0,

64,100,0,233,307,0,

63,99,0,233,305,0,

63,99,0,231,304,0,

63,99,0,231,302,0,

63,98,0,255,300,0,

62,98,0,259,299,0,

62,97,0,259,297,0,

62,96,0,257,295,0,

62,96,0,255,295,0,

62,96,0,254,293,0,

61,95,0,252,291,0,

61,95,0,251,289,0,

61,94,0,249,287,0,

61,94,0,249,287,0,

60,93,0,248,286,0,

60,93,0,246,284,0,

60,92,0,291,284,0,

60,92,0,291,282,0,

60,91,0,289,280,0,

59,91,0,287,280,0,

59,91,0,286,278,0,

59,101,0,285,277,0,

59,111,0,283,275,0,

59,110,0,281,274,0,

58,109,0,280,271,0,

58,109,0,278,271,0,

58,108,0,276,270,0,

57,108,0,275,269,0,

57,107,0,275,267,0,

57,106,0,275,265,0,

57,105,0,273,263,0,

57,105,0,271,263,0,

56,105,0,270,262,0,

64,110,0,268,260,0,

64,109,0,267,259,0,

63,108,0,265,258,0,

63,108,0,263,255,0,

63,108,0,263,255,0,

63,107,0,261,254,0,

62,106,0,259,252,0,

62,105,0,258,251,0,

62,105,0,257,250,0,

61,103,0,255,249,0,

61,103,0,254,248,0,

82,103,0,253,247,0,

81,103,0,252,245,0,

80,103,0,250,243,0,

80,102,0,249,243,0,

79,102,0,248,241,0,

79,101,0,247,240,0,

78,100,0,245,239,0,

78,100,0,243,238,0,

78,99,0,243,237,0,

77,99,0,241,236,0,

77,98,0,240,235,0,

77,98,0,239,234,0,

76,97,0,238,231,0,

76,97,0,237,231,0,

76,96,0,236,230,0,

76,96,0,235,231,0,

75,96,0,233,231,0,

74,95,0,231,236,0,

74,95,0,276,235,0,

73,94,0,274,233,0,

73,93,0,272,231,0,

73,93,0,271,231,0,

73,93,0,270,229,0,

71,92,0,268,228,0,

71,92,0,267,227,0,

71,91,0,265,226,0,

71,91,0,263,225,0,

71,91,0,263,224,0,

71,90,0,261,223,0,

70,89,0,259,222,0,

70,89,0,258,221,0,

69,89,0,257,220,0,

68,88,0,255,219,0,

69,88,0,254,219,0,

68,88,0,253,217,0,

67,89,0,252,216,0,

67,89,0,251,216,0,

67,89,0,249,214,0,

67,88,0,248,214,0,

67,88,0,247,212,0,

66,88,0,245,211,0,

66,87,0,244,211,0,

65,87,0,243,210,0,

65,86,0,242,208,0,

64,86,0,240,207,0,

64,85,0,239,207,0,

64,93,0,238,206,0,

63,94,0,237,205,0,

63,93,0,236,205,0,

63,92,0,235,204,0,

63,92,0,233,203,0,

63,91,0,231,202,0,

62,91,0,231,201,0,

62,90,0,241,199,0,

62,90,0,240,199,0,

61,89,0,239,199,0,

61,89,0,237,198,0,

61,88,0,236,197,0,

88,88,0,236,196,0,

87,88,0,234,195,0,

86,88,0,233,194,0,

86,87,0,231,193,0,

85,86,0,230,193,0,

85,86,0,230,192,0,

84,86,0,228,192,0,

83,85,0,287,191,0,

83,84,0,285,190,0,

83,83,0,283,189,0,

82,83,0,281,188,0,

82,83,0,280,188,0,

81,114,0,278,187,0,

81,113,0,277,185,0,

81,112,0,275,185,0,

80,112,0,274,184,0,

79,111,0,271,184,0,

79,110,0,271,183,0,

79,110,0,307,182,0,

78,109,0,307,181,0,

78,108,0,305,179,0,

77,108,0,303,179,0,

77,107,0,302,178,0,

77,107,0,300,177,0,

77,106,0,297,177,0,

77,105,0,295,176,0,

76,105,0,294,175,0,

75,103,0,293,174,0,

75,103,0,291,214,0,

75,103,0,367,317,0,

75,103,0,371,313,0,

74,102,0,368,312,0,

73,102,0,366,309,0,

73,101,0,363,307,0,

73,101,0,361,306,0,

73,100,0,359,304,0,

73,99,0,357,302,0,

73,99,0,355,301,0,

71,99,0,353,299,0,

71,98,0,350,297,0,

71,97,0,349,295,0,

71,97,0,352,294,0,

71,96,0,350,292,0,

70,96,0,348,291,0,

70,96,0,346,289,0,

70,95,0,344,287,0,

70,108,0,343,286,0,

69,107,0,340,284,0,

69,107,0,338,283,0,

69,106,0,336,281,0,

68,105,0,335,280,0,

67,105,0,332,279,0,

67,103,0,331,277,0,

67,103,0,329,275,0,

67,103,0,327,274,0,

67,103,0,326,272,0,

66,102,0,323,271,0,

92,103,0,322,270,0,

102,103,0,319,268,0,

101,103,0,318,267,0,

101,103,0,316,265,0,

100,102,0,315,263,0,

100,101,0,313,262,0,

99,101,0,311,261,0,

98,100,0,310,259,0,

98,99,0,307,258,0,

97,99,0,306,257,0,

97,99,0,304,255,0,

96,98,0,303,255,0,

96,97,0,302,253,0,

96,97,0,300,252,0,

95,96,0,299,251,0,

94,96,0,297,249,0,

94,96,0,295,248,0,

93,95,0,294,248,0,

93,94,0,292,246,0,

92,94,0,291,244,0,

92,94,0,290,243,0,

91,93,0,288,242,0,

91,92,0,287,241,0,

91,93,0,286,240,0,

90,92,0,284,239,0,

89,92,0,283,238,0,

89,91,0,281,237,0,

89,91,0,280,236,0,

89,90,0,279,234,0,

88,90,0,277,233,0,

88,89,0,276,231,0,

87,89,0,275,231,0,

87,89,0,273,230,0,

86,88,0,271,229,0,

86,88,0,271,228,0,

85,101,0,269,227,0,

85,101,0,268,226,0,

84,100,0,267,224,0,

84,99,0,265,224,0,

83,99,0,263,222,0,

83,98,0,263,222,0,

83,98,0,281,221,0,

82,97,0,280,220,0,

82,97,0,278,219,0,

81,97,0,276,217,0,

81,96,0,274,216,0,

80,95,0,273,216,0,

80,95,0,271,214,0,

80,95,0,270,214,0,

79,94,0,269,212,0,

79,93,0,267,211,0,

78,93,0,265,211,0,

78,92,0,263,210,0,

78,92,0,278,209,0,

77,92,0,276,207,0,

77,91,0,275,207,0,

77,91,0,273,206,0,

76,90,0,271,205,0,

76,96,0,271,204,0,

76,96,0,269,203,0,

75,95,0,267,203,0,

75,94,0,266,217,0,

74,94,0,265,216,0,

74,94,0,263,214,0,

74,93,0,262,213,0,

73,93,0,262,211,0,

73,92,0,261,211,0,

73,92,0,259,210,0,

71,91,0,258,209,0,

71,91,0,257,207,0,

71,93,0,255,207,0,

71,92,0,254,206,0,

71,92,0,253,205,0,

71,92,0,252,211,0,

71,91,0,250,211,0,

70,90,0,249,209,0,

70,90,0,272,208,0,

69,89,0,298,207,0,

69,89,0,295,206,0,

68,89,0,294,205,0,

68,88,0,292,204,0,

68,88,0,291,203,0,

68,93,0,289,202,0,

68,92,0,287,201,0,

67,92,0,286,199,0,

67,91,0,285,199,0,

67,91,0,283,199,0,

67,90,0,281,198,0,

66,90,0,280,197,0,

66,89,0,279,195,0,

66,89,0,277,195,0,

65,88,0,275,194,0,

64,88,0,274,193,0,

64,88,0,273,192,0,

64,103,0,271,191,0,

63,103,0,270,190,0,

63,103,0,268,189,0,

63,102,0,267,189,0,

63,102,0,265,188,0,

62,101,0,263,235,0,

62,101,0,295,233,0,

62,100,0,295,231,0,

62,99,0,293,230,0,

61,99,0,291,229,0,

61,98,0,289,227,0,

62,98,0,287,226,0,

61,97,0,287,225,0,

61,97,0,284,224,0,

61,96,0,284,223,0,

60,96,0,281,222,0,

60,95,0,280,221,0,

60,95,0,293,220,0,

60,94,0,294,219,0,

59,94,0,292,217,0,

59,93,0,290,216,0,

59,93,0,289,216,0,

59,92,0,287,214,0,

59,96,0,286,213,0,

59,96,0,284,211,0,

59,95,0,283,211,0,

59,94,0,281,210,0,

58,94,0,280,209,0,

58,94,0,278,227,0,

58,93,0,278,233,0,

57,93,0,276,231,0,

57,92,0,275,231,0,

57,92,0,273,230,0,

56,91,0,271,228,0,

56,91,0,271,227,0,

59,90,0,269,226,0,

59,89,0,268,225,0,

59,89,0,267,224,0,

58,89,0,265,222,0,

58,88,0,263,221,0,

57,88,0,263,220,0,

57,88,0,283,219,0,

57,87,0,281,218,0,

57,87,0,280,217,0,

56,86,0,278,216,0,

56,86,0,277,215,0,

56,105,0,275,214,0,

58,103,0,274,212,0,

58,103,0,271,211,0,

57,102,0,270,210,0,

57,102,0,269,209,0,

57,101,0,268,211,0,

57,101,0,295,280,0,

56,101,0,324,278,0,

56,99,0,323,276,0,

56,99,0,319,275,0,

55,99,0,319,273,0,

55,98,0,317,271,0,

55,97,0,315,270,0,

55,97,0,313,268,0,

54,97,0,312,267,0,

54,96,0,310,265,0,

54,96,0,307,263,0,

53,95,0,306,263,0,

53,95,0,338,261,0,

53,94,0,335,260,0,

53,94,0,334,259,0,

52,93,0,332,257,0,

52,93,0,330,255,0,

52,93,0,327,255,0,

56,94,0,326,253,0,

55,93,0,324,252,0,

55,93,0,323,251,0,

55,92,0,321,249,0,

54,92,0,319,248,0,

54,91,0,317,247,0,

54,91,0,319,246,0,

53,91,0,318,244,0,

53,90,0,316,243,0,

53,89,0,314,242,0,

52,89,0,313,241,0,

52,89,0,311,240,0,

68,88,0,309,238,0,

67,88,0,308,237,0,

67,88,0,306,236,0,

67,88,0,304,235,0,

66,87,0,303,234,0,

66,86,0,302,231,0,

65,86,0,345,231,0,

65,85,0,344,231,0,

65,85,0,342,229,0,

64,85,0,339,228,0,

64,84,0,338,227,0,

63,87,0,335,226,0,

63,86,0,334,224,0,

63,86,0,332,224,0,

63,86,0,329,223,0,

62,85,0,327,222,0,

62,85,0,326,230,0,

62,84,0,337,284,0,

61,83,0,380,281,0,

61,83,0,377,280,0,

61,83,0,375,278,0,

61,83,0,372,277,0,

60,82,0,370,275,0,

60,99,0,368,273,0,

60,98,0,366,271,0,

59,98,0,364,270,0,

59,97,0,361,269,0,

59,96,0,359,268,0,

58,96,0,357,266,0,

58,96,0,355,265,0,

57,95,0,353,263,0,

57,94,0,352,262,0,

57,94,0,350,261,0,

57,103,0,348,259,0,

57,132,0,345,257,0,

57,131,0,344,255,0,

57,130,0,342,255,0,

57,129,0,339,254,0,

56,129,0,338,252,0,

56,127,0,335,251,0,

56,127,0,334,249,0,

56,126,0,337,248,0,

56,126,0,335,247,0,

55,125,0,334,246,0,

54,124,0,332,244,0,

56,124,0,330,243,0,

66,123,0,327,242,0,

66,122,0,326,240,0,

65,122,0,324,239,0,

65,121,0,323,238,0,

65,121,0,321,237,0,

63,120,0,319,237,0,

63,120,0,318,235,0,

63,119,0,316,234,0,

63,118,0,314,233,0,

63,117,0,312,231,0,

62,117,0,311,231,0,

63,116,0,309,229,0,

62,115,0,307,228,0,

63,115,0,306,227,0,

62,114,0,304,226,0,

62,114,0,302,225,0,

61,113,0,301,224,0,

61,112,0,323,223,0,

60,112,0,321,222,0,

60,112,0,319,220,0,

60,111,0,318,219,0,

60,110,0,316,219,0,

78,112,0,313,217,0,

77,111,0,312,216,0,

77,111,0,310,216,0,

76,110,0,309,214,0,

76,110,0,307,213,0,

76,109,0,305,259,0,

75,109,0,369,285,0,

75,108,0,366,284,0,

74,107,0,364,281,0,

73,107,0,361,280,0,

73,106,0,359,278,0,

73,107,0,357,276,0,

75,107,0,354,275,0,

75,106,0,353,273,0,

74,106,0,350,271,0,

73,105,0,348,270,0,

73,105,0,347,268,0,

73,103,0,344,267,0,

71,103,0,343,265,0,

71,103,0,340,263,0,

71,103,0,338,263,0,

71,102,0,335,261,0,

71,102,0,335,259,0,

71,101,0,332,258,0,

71,100,0,331,257,0,

70,99,0,329,255,0,

70,99,0,327,254,0,

69,99,0,325,253,0,

69,98,0,323,252,0,

69,98,0,322,250,0,

68,97,0,319,249,0,

67,97,0,318,248,0,

67,96,0,317,247,0,

67,96,0,315,246,0,

70,127,0,313,244,0,

69,125,0,312,243,0,

69,124,0,310,241,0,

68,124,0,308,240,0,

68,123,0,307,239,0,

68,122,0,305,238,0,

67,122,0,304,239,0,

67,121,0,303,237,0,

67,120,0,301,236,0,

66,120,0,300,235,0,

66,119,0,297,234,0,

65,119,0,295,231,0,

66,118,0,295,231,0,

65,117,0,293,231,0,

65,116,0,291,229,0,

64,115,0,290,228,0,

63,115,0,289,227,0,

63,115,0,295,251,0,

63,114,0,300,249,0,

63,113,0,299,248,0,

62,113,0,295,246,0,

62,112,0,295,244,0,

62,112,0,293,243,0,

62,111,0,291,242,0,

61,111,0,290,240,0,

61,110,0,287,239,0,

61,109,0,287,238,0,

60,109,0,285,237,0,

60,108,0,284,236,0,

60,108,0,283,234,0,

59,107,0,281,233,0,

59,107,0,280,231,0,

59,106,0,278,231,0,

58,105,0,276,229,0,

59,105,0,275,228,0,

59,103,0,274,227,0,

59,103,0,272,225,0,

57,103,0,271,224,0,

57,103,0,270,223,0,

57,103,0,268,222,0,

57,102,0,267,221,0,

57,101,0,265,220,0,

56,101,0,263,219,0,

56,100,0,263,217,0,

56,100,0,262,217,0,

67,99,0,261,216,0,

70,99,0,259,215,0,

69,98,0,258,214,0,

68,98,0,257,212,0,

68,98,0,255,211,0,

67,97,0,254,211,0,

67,96,0,259,209,0,

67,96,0,263,209,0,

66,96,0,261,207,0,

66,95,0,259,206,0,

66,95,0,259,206,0,

66,94,0,257,205,0,

67,94,0,255,204,0,

67,93,0,254,203,0,

66,93,0,253,202,0,

66,93,0,252,201,0,

65,92,0,251,199,0,

65,92,0,249,199,0,

65,92,0,281,201,0,

64,91,0,281,199,0,

64,90,0,280,199,0,

63,90,0,278,198,0,

63,89,0,276,197,0,

63,90,0,275,196,0,

64,96,0,273,195,0,

63,95,0,271,195,0,

63,95,0,270,193,0,

63,94,0,269,193,0,

63,94,0,268,192,0,

63,93,0,267,265,0,

62,93,0,300,263,0,

62,92,0,299,261,0,

62,92,0,295,259,0,

61,91,0,295,257,0,

61,91,0,294,255,0,

61,102,0,291,254,0,

61,103,0,290,254,0,

60,102,0,287,252,0,

60,102,0,286,251,0,

60,101,0,285,249,0,

59,101,0,284,248,0,

59,100,0,283,247,0,

59,99,0,281,245,0,

59,99,0,280,243,0,

58,98,0,279,243,0,

57,98,0,277,241,0,

57,97,0,275,240,0,

61,114,0,274,239,0,

61,113,0,273,238,0,

60,112,0,271,236,0,

60,112,0,270,235,0,

60,111,0,268,233,0,

59,110,0,267,238,0,

58,110,0,266,237,0,

58,109,0,263,236,0,

58,109,0,263,235,0,

58,108,0,262,233,0,

57,108,0,261,231,0,

57,107,0,259,231,0,

57,106,0,257,230,0,

57,106,0,255,228,0,

57,105,0,255,227,0,

56,105,0,254,226,0,

56,103,0,252,230,0,

56,103,0,271,231,0,

56,103,0,269,230,0,

55,103,0,267,228,0,

55,102,0,265,227,0,

55,101,0,263,226,0,

54,101,0,263,225,0,

54,100,0,261,224,0,

54,99,0,260,223,0,

53,99,0,259,221,0,

53,99,0,257,221,0,

53,98,0,255,219,0,

53,98,0,282,219,0,

52,97,0,280,217,0,

52,97,0,278,216,0,

51,96,0,277,215,0,

51,96,0,275,214,0,

51,96,0,274,213,0,

54,123,0,271,211,0,

53,122,0,271,211,0,

53,121,0,269,210,0,

53,120,0,268,209,0,

52,120,0,266,207,0,

52,119,0,265,207,0,

52,118,0,266,206,0,

51,118,0,263,205,0,

51,117,0,263,204,0,

51,116,0,261,203,0,

51,115,0,259,201,0,

51,115,0,258,201,0,

51,114,0,257,199,0,

51,114,0,255,199,0,

51,113,0,254,198,0,

50,112,0,253,197,0,

50,112,0,251,195,0,

50,111,0,250,195,0,

49,111,0,249,194,0,

49,110,0,248,193,0,

49,109,0,247,192,0,

48,109,0,245,192,0,

50,109,0,244,190,0,

51,108,0,243,189,0,

50,107,0,241,188,0,

50,107,0,240,188,0,

49,106,0,239,187,0,

50,105,0,238,185,0,

49,105,0,237,185,0,

49,103,0,236,184,0,

48,103,0,235,184,0,

48,103,0,233,183,0,

48,103,0,233,182,0,

48,102,0,231,181,0,

48,102,0,230,180,0,

48,101,0,229,179,0,

48,101,0,227,179,0,

47,100,0,227,178,0,

47,99,0,226,177,0,

47,99,0,236,247,0,

46,99,0,281,245,0,

46,98,0,280,243,0,

46,97,0,278,242,0,

46,97,0,276,241,0,

46,99,0,275,239,0,

83,155,0,273,238,0,

82,153,0,271,236,0,

81,152,0,270,235,0,

81,152,0,268,234,0,

80,150,0,267,231,0,

79,150,0,265,231,0,

79,148,0,263,230,0,

79,148,0,263,229,0,

79,147,0,261,227,0,

78,146,0,259,226,0,

78,145,0,258,225,0,

77,144,0,257,224,0,

77,143,0,255,223,0,

76,143,0,254,222,0,

76,143,0,253,221,0,

76,141,0,251,219,0,

75,141,0,250,218,0,

75,140,0,249,217,0,

74,140,0,248,216,0,

74,139,0,246,215,0,

73,137,0,245,214,0,

73,137,0,243,212,0,

72,137,0,242,211,0,

74,135,0,241,210,0,

73,135,0,240,209,0,

73,135,0,239,208,0,

72,134,0,237,207,0,

71,133,0,236,206,0,

71,132,0,246,205,0,

71,131,0,289,204,0,

