
29,20,7,71,73,7,
28,20,7,71,71,7,
28,20,7,71,71,7,
28,20,7,71,71,7,
28,20,7,71,71,7,
28,19,7,71,71,7,
28,19,7,70,71,7,
28,20,7,70,70,7,
28,20,7,70,70,7,
28,19,7,70,70,7,
27,20,7,69,69,7,
27,20,7,69,69,7,
27,19,7,69,69,7,
27,19,7,68,69,7,
27,19,7,68,68,7,
27,19,7,68,68,7,
27,19,7,68,67,7,
27,19,7,68,67,7,
27,19,7,67,67,7,
26,19,7,67,67,7,
26,20,7,67,66,7,
26,20,7,67,66,7,
26,20,7,66,66,7,
26,20,7,66,66,7,
26,20,7,66,65,7,
26,20,7,65,66,7,
26,20,7,65,65,7,
27,19,7,65,65,7,
25,19,7,65,64,7,
26,19,7,64,64,7,
25,19,7,64,63,7,
25,19,7,64,64,7,
25,20,7,63,63,7,
25,20,7,63,63,7,
25,19,7,63,63,7,
25,20,7,63,62,7,
25,19,7,63,63,7,
38,20,7,63,62,7,
38,20,7,62,62,7,
38,19,7,62,62,7,
38,19,7,62,61,7,
38,19,7,62,61,7,
38,19,7,61,61,7,
37,19,7,61,61,7,
37,19,7,61,60,7,
37,19,7,61,60,7,
37,20,7,61,60,7,
36,20,7,60,60,7,
36,20,7,60,59,7,
37,20,7,60,59,7,
36,20,7,60,59,7,
35,20,7,59,58,7,
36,20,7,59,58,7,
35,20,7,59,58,7,
35,19,7,59,58,7,
35,19,7,59,57,7,
35,19,7,59,57,7,
35,19,7,59,57,7,
35,21,7,58,57,7,
35,28,7,57,57,7,
34,28,7,57,57,7,
35,27,7,57,56,7,
34,27,7,57,56,7,
35,27,7,57,56,7,
34,27,7,57,56,7,
34,27,7,56,56,7,
34,27,7,56,56,7,
34,27,7,56,55,7,
34,27,7,56,55,7,
34,26,7,56,55,7,
33,26,7,56,55,7,
33,26,7,55,54,7,
33,26,7,55,54,7,
33,26,7,55,54,7,
33,25,7,55,53,7,
33,25,7,55,53,7,
32,26,7,54,53,7,
33,25,7,54,53,7,
33,25,7,54,53,7,
32,25,7,54,52,7,
32,25,7,53,51,7,
31,25,7,53,52,7,
32,25,7,53,51,7,
32,25,7,53,51,7,
32,25,7,53,103,7,
31,25,7,52,102,7,
31,25,7,52,101,7,
31,25,7,51,101,7,
31,25,7,51,100,7,
31,25,7,51,99,7,
31,25,7,51,99,7,
31,25,7,51,99,7,
31,25,7,51,98,7,
30,25,7,51,98,7,
30,25,7,51,97,7,
30,25,7,51,97,7,
30,25,7,54,97,7,
30,24,7,54,97,7,
30,25,7,53,96,7,
30,25,7,53,96,7,
30,25,7,53,95,7,
30,24,7,53,94,7,
31,24,7,53,94,7,
30,24,7,52,94,7,
31,24,7,52,93,7,
30,24,7,52,93,7,
30,24,7,51,93,7,
30,24,7,51,92,7,
30,24,7,51,92,7,
30,24,7,51,91,7,
30,24,7,51,91,7,
30,24,7,50,91,7,
30,24,7,50,90,7,
29,24,7,50,89,7,
29,24,7,50,89,7,
29,24,7,50,89,7,
31,23,7,50,89,7,
31,23,7,50,88,7,
31,23,7,49,88,7,
31,23,7,49,88,7,
31,24,7,49,88,7,
31,22,7,48,87,7,
30,23,7,49,87,7,
31,22,7,49,86,7,
30,22,7,48,86,7,
30,23,7,48,86,7,
30,23,7,48,85,7,
30,22,7,48,85,7,
31,22,7,47,85,7,
31,22,7,47,84,7,
31,22,7,47,83,7,
31,22,7,47,83,7,
31,21,7,47,83,7,
31,22,7,46,83,7,
30,22,7,46,82,7,
30,21,7,46,82,7,
30,22,7,46,82,7,
30,24,7,46,81,7,
30,23,7,46,81,7,
30,23,7,46,81,7,
30,24,7,46,80,7,
30,23,7,45,80,7,
29,23,7,45,79,7,
29,23,7,45,79,7,
29,23,7,45,79,7,
30,23,7,45,79,7,
29,23,7,45,79,7,
29,23,7,44,78,7,
29,22,7,44,78,7,
29,23,7,44,77,7,
28,23,7,44,77,7,
28,22,7,44,77,7,
28,22,7,44,77,7,
28,22,7,43,76,7,
28,21,7,43,76,7,
28,22,7,43,76,7,
28,22,7,43,75,7,
28,22,7,43,75,7,
28,22,7,43,75,7,
28,22,7,42,75,7,
27,21,7,42,74,7,
28,21,7,42,74,7,
27,21,7,67,73,7,
27,22,7,112,73,7,
27,22,7,111,73,7,
27,21,7,110,73,7,
27,21,7,109,73,7,
26,22,7,109,71,7,
27,22,7,108,71,7,
27,21,7,108,71,7,
27,21,7,107,71,7,
27,21,7,107,71,7,
27,21,7,107,115,7,
27,20,7,106,115,7,
26,21,7,105,114,7,
26,22,7,103,113,7,
26,21,7,103,113,7,
25,21,7,103,112,7,
26,21,7,103,112,7,
29,21,7,103,111,7,
29,21,7,103,110,7,
29,20,7,102,110,7,
28,20,7,101,109,7,
28,20,7,101,109,7,
28,20,7,101,108,7,
28,20,7,100,108,7,
28,20,7,99,107,7,
28,25,7,99,107,7,
28,28,7,99,106,7,
28,28,7,98,106,7,
28,28,7,98,105,7,
30,28,7,98,105,7,
31,28,7,97,103,7,
30,28,7,96,103,7,
30,27,7,96,103,7,
30,27,7,96,103,7,
30,27,7,96,103,7,
30,27,7,95,102,7,
30,27,7,95,102,7,
30,28,7,94,102,7,
30,28,7,94,101,7,
29,28,7,93,100,7,
29,28,7,93,100,7,
30,28,7,93,99,7,
30,27,7,93,99,7,
30,28,7,92,99,7,
30,27,7,92,98,7,
30,27,7,92,98,7,
30,27,7,91,97,7,
29,27,7,90,97,7,
29,27,7,90,96,7,
29,27,7,91,96,7,
29,27,7,89,96,7,
29,26,7,89,96,7,
29,26,7,89,95,7,
29,25,7,88,95,7,
28,26,7,88,94,7,
29,26,7,88,94,7,
28,25,7,88,94,7,
29,25,7,88,93,7,
28,26,7,88,93,7,
28,26,7,87,93,7,
28,25,7,87,93,7,
28,25,7,86,92,7,
28,25,7,86,92,7,
28,25,7,85,91,7,
28,31,7,85,91,7,
28,30,7,85,91,7,
28,30,7,85,90,7,
27,30,7,84,90,7,
28,30,7,83,89,7,
27,30,7,83,89,7,
27,30,7,83,88,7,
27,29,7,83,88,7,
27,30,7,82,88,7,
27,30,7,82,88,7,
27,29,7,81,87,7,
27,30,7,81,88,7,
27,29,7,81,87,7,
27,31,7,81,86,7,
26,30,7,80,86,7,
26,31,7,80,86,7,
27,30,7,79,85,7,
28,30,7,79,85,7,
30,30,7,79,85,7,
31,30,7,79,84,7,
31,30,7,79,83,7,
31,30,7,78,83,7,
30,29,7,78,83,7,
30,29,7,78,83,7,
30,29,7,78,83,7,
30,29,7,77,82,7,
30,29,7,77,82,7,
30,29,7,76,82,7,
30,28,7,76,81,7,
31,28,7,76,81,7,
35,29,7,76,80,7,
36,28,7,76,80,7,
35,28,7,75,80,7,
36,29,7,76,95,7,
35,42,7,75,95,7,
35,42,7,74,94,7,
35,42,7,74,93,7,
35,42,7,74,93,7,
35,42,7,73,93,7,
34,42,7,73,92,7,
34,41,7,73,92,7,
34,41,7,73,91,7,
34,41,7,73,92,7,
35,41,7,73,91,7,
41,41,7,71,90,7,
41,41,7,71,90,7,
41,41,7,71,89,7,
41,39,7,71,89,7,
39,39,7,71,89,7,
39,39,7,71,88,7,
39,39,7,70,88,7,
39,39,7,71,88,7,
39,58,7,70,88,7,
39,57,7,70,87,7,
39,57,7,69,87,7,
39,57,7,69,86,7,
39,56,7,69,86,7,
39,56,7,68,86,7,
39,56,7,69,85,7,
38,56,7,68,85,7,
39,56,7,68,85,7,
38,55,7,67,84,7,
38,55,7,67,83,7,
38,55,7,67,83,7,
38,59,7,67,83,7,
37,59,7,67,83,7,
38,59,7,66,83,7,
37,58,7,66,82,7,
37,58,7,65,82,7,
37,57,7,66,82,7,
37,57,7,65,81,7,
37,57,7,65,81,7,
36,57,7,65,81,7,
36,56,7,65,79,7,
36,56,7,64,79,7,
36,56,7,64,79,7,
36,56,7,63,79,7,
35,56,7,63,79,7,
35,56,7,63,79,7,
35,55,7,63,78,7,
35,55,7,63,78,7,
35,55,7,63,78,7,
35,54,7,63,78,7,
35,54,7,62,77,7,
35,54,7,62,77,7,
34,53,7,62,76,7,
35,53,7,62,76,7,
34,53,7,61,76,7,
34,53,7,61,76,7,
34,53,7,61,76,7,
34,52,7,61,75,7,
34,52,7,61,75,7,
34,52,7,60,74,7,
33,51,7,60,74,7,
33,51,7,60,74,7,
33,51,7,60,74,7,
33,51,7,60,73,7,
33,51,7,59,73,7,
33,50,7,59,73,7,
33,50,7,59,72,7,
32,50,7,59,71,7,
31,50,7,58,71,7,
31,50,7,58,71,7,
31,49,7,57,71,7,
31,49,7,57,71,7,
31,49,7,57,71,7,
31,49,7,57,71,7,
31,49,7,57,70,7,
31,48,7,57,70,7,
31,48,7,57,70,7,
31,48,7,56,70,7,
31,48,7,56,69,7,
31,48,7,56,69,7,
31,47,7,56,69,7,
31,47,7,56,68,7,
31,47,7,56,68,7,
31,47,7,56,67,7,
30,61,7,55,67,7,
30,69,7,55,67,7,
30,69,7,54,67,7,
30,68,7,54,67,7,
30,68,7,55,67,7,
30,67,7,54,67,7,
30,67,7,54,66,7,
30,67,7,54,66,7,
30,67,7,54,66,7,
30,66,7,54,65,7,
29,66,7,53,65,7,
29,66,7,53,65,7,
29,65,7,53,65,7,
29,65,7,52,64,7,
29,65,7,52,64,7,
29,64,7,52,63,7,
29,64,7,52,63,7,
29,64,7,51,63,7,
29,63,7,51,63,7,
29,63,7,51,63,7,
29,63,7,51,63,7,
29,62,7,51,62,7,
29,63,7,51,62,7,
29,62,7,51,62,7,
28,62,7,50,62,7,
28,62,7,50,62,7,
28,62,7,50,61,7,
28,61,7,50,61,7,
28,61,7,50,61,8,
54,78,7,50,61,7,
84,78,7,50,61,7,
83,77,7,49,60,7,
83,76,7,49,60,7,
82,76,7,49,60,7,
82,76,7,49,60,7,
81,75,7,48,59,7,
81,75,7,48,59,7,
81,75,7,48,59,7,
80,74,7,48,59,7,
79,74,7,48,58,7,
79,74,7,48,58,7,
79,73,7,47,58,7,
79,73,7,47,58,7,
78,73,7,47,57,7,
78,73,7,47,57,7,
78,71,7,47,57,7,
78,71,7,47,57,7,
77,71,7,47,57,7,
77,71,7,47,56,7,
77,71,7,46,56,7,
77,71,7,46,57,7,
76,80,7,46,56,7,
76,79,7,46,56,7,
75,79,7,46,56,7,
75,79,7,45,56,7,
75,79,7,45,55,7,
75,78,7,45,55,7,
80,78,7,45,55,7,
82,78,7,45,54,7,
82,77,7,44,54,7,
81,76,7,44,54,7,
81,76,7,44,54,7,
81,76,7,44,53,7,
80,76,7,44,54,7,
80,76,7,44,53,7,
79,75,7,43,53,7,
79,77,7,44,53,7,
79,76,7,44,53,7,
79,76,7,43,52,7,
78,75,7,43,52,7,
78,75,7,43,52,7,
78,75,7,43,51,7,
77,74,7,42,51,7,
77,74,7,42,51,7,
77,73,7,42,51,7,
76,73,7,42,51,7,
76,73,7,42,51,7,
76,73,7,42,51,7,
76,116,7,41,51,7,
75,133,7,41,50,7,
75,132,7,41,50,7,
74,131,7,41,50,7,
74,130,7,41,50,7,
74,130,7,41,50,7,
91,129,7,41,49,7,
90,128,7,41,49,7,
89,127,7,40,49,7,
89,127,7,39,48,7,
88,126,7,39,49,7,
88,126,7,39,48,7,
88,125,7,39,48,7,
87,125,7,39,48,7,
87,124,7,39,48,7,
86,123,7,39,48,7,
86,123,7,39,47,7,
86,123,7,39,47,7,
85,122,7,39,47,7,
85,121,7,39,47,7,
85,121,7,39,47,7,
84,120,7,39,47,7,
84,120,7,39,46,7,
83,120,7,39,46,7,
83,125,7,39,46,7,
83,133,7,38,46,7,
82,132,7,38,45,7,
82,131,7,38,45,7,
81,131,7,38,45,7,
82,129,7,38,46,7,
81,129,7,38,45,7,
80,129,7,37,45,7,
80,129,7,37,45,7,
80,128,7,37,44,7,
79,127,7,37,45,7,
79,127,7,37,45,7,
79,126,7,37,44,7,
78,126,7,36,44,7,
78,126,7,37,44,7,
78,126,7,37,44,7,
78,125,7,36,43,7,
77,124,7,36,43,7,
78,124,7,36,43,7,
87,123,7,35,42,7,
86,123,7,36,43,7,
85,123,7,35,43,7,
85,122,7,35,42,7,
85,121,7,35,42,7,
85,121,7,35,42,7,
83,120,7,35,42,7,
83,120,7,35,42,7,
83,120,7,35,42,7,
83,119,7,35,41,7,
102,123,7,35,41,7,
117,129,7,35,41,7,
116,127,7,34,41,7,
115,127,7,34,41,7,
114,127,7,34,39,7,
114,126,7,34,39,7,
113,125,7,34,39,7,
113,125,7,34,39,7,
112,124,7,34,39,7,
112,124,7,33,39,7,
111,123,7,33,39,7,
111,122,7,33,39,7,
110,122,7,33,39,7,
135,156,7,33,39,7,
135,154,7,33,39,7,
134,153,7,32,39,7,
133,152,7,32,38,7,
133,152,7,32,38,7,
132,151,7,32,39,7,
131,150,7,32,38,7,
131,148,7,31,38,7,
130,149,7,31,38,7,
130,147,7,31,38,7,
129,146,7,31,37,7,
127,146,7,31,37,7,
127,145,7,31,37,7,
126,145,7,31,37,7,
126,143,7,31,37,9,
180,199,7,31,37,7,
185,239,7,31,37,7,
184,237,7,31,36,7,
184,236,7,31,37,7,
182,233,7,36,36,7,
181,233,7,42,35,7,
180,231,7,42,36,7,
179,230,7,42,35,7,
178,229,7,41,35,7,
177,227,7,41,35,7,
176,227,7,41,35,7,
175,225,7,41,35,7,
174,224,7,41,35,7,
174,224,7,41,38,7,
173,222,7,39,39,7,
172,221,7,39,39,7,
172,225,7,39,38,7,
171,225,7,39,59,7,
169,224,7,39,58,7,
169,222,7,39,58,7,
167,221,7,39,58,7,
167,220,7,39,58,7,
167,219,7,39,57,7,
166,218,7,39,57,7,
165,246,7,39,57,7,
164,270,7,39,56,7,
163,268,7,38,56,7,
163,266,7,38,56,7,
162,265,7,38,56,7,
161,263,7,38,56,7,
161,263,7,37,55,7,
159,260,7,38,55,7,
159,259,7,37,54,7,
158,258,7,37,54,7,
158,256,7,37,54,7,
157,255,7,36,54,7,
157,253,7,36,54,7,
156,253,7,36,53,7,
155,251,7,36,52,7,
155,250,7,36,52,7,
154,249,7,36,52,7,
153,248,7,35,52,7,
153,247,7,36,52,7,
152,246,7,35,51,7,
152,245,7,35,52,7,
151,243,7,35,51,7,
150,242,7,35,51,7,
149,241,7,35,51,7,
149,239,7,35,51,7,
148,239,7,35,51,7,
147,238,7,35,50,7,
147,237,8,82,50,9,
147,235,7,95,50,7,
145,234,7,94,49,7,
145,233,8,94,50,7,
145,231,7,93,49,7,
143,231,8,93,49,7,
143,230,7,92,49,7,
142,229,9,92,49,7,
142,227,7,91,48,7,
142,227,7,91,48,7,
141,226,7,90,49,7,
140,224,7,90,48,7,
139,224,7,89,48,7,
139,222,8,89,48,9,
138,222,9,89,48,7,
140,220,7,88,47,7,
140,219,7,88,47,7,
139,219,8,88,46,7,
138,217,7,87,46,8,
138,216,8,87,46,8,
137,216,9,87,46,7,
137,214,7,86,46,7,
135,214,8,86,46,7,
135,213,7,85,45,7,
135,211,9,84,45,7,
135,210,9,84,45,9,
134,241,9,83,45,7,
133,239,9,83,45,9,
141,238,8,83,44,9,
140,237,8,83,44,7,
139,235,8,83,44,9,
139,234,9,82,44,7,
138,231,9,82,44,9,
138,231,9,82,44,9,
137,231,9,81,44,8,
135,230,9,81,44,8,
135,228,9,83,44,7,
135,242,9,83,44,9,
134,287,9,82,43,9,
134,286,9,82,43,8,
134,284,9,82,43,9,
132,283,9,81,42,9,
132,281,9,81,42,8,
131,280,9,79,42,9,
131,278,9,80,42,9,
131,276,9,79,42,9,
130,275,9,79,55,9,
130,274,9,79,103,9,
129,273,9,79,103,9,
127,271,9,78,103,8,
127,269,9,78,102,9,
127,268,9,78,102,9,
126,266,9,77,101,9,
126,265,9,77,100,9,
125,263,9,77,100,9,
134,262,9,76,99,9,
133,261,9,76,99,9,
132,259,9,76,99,9,
131,259,9,76,98,9,
131,257,9,75,98,9,
130,255,9,75,97,9,
130,255,9,74,96,9,
129,254,9,74,96,7,
128,252,9,74,95,9,
127,251,9,73,95,9,
127,249,9,73,95,9,
127,249,9,71,94,9,
126,248,9,71,94,8,
126,246,9,71,93,9,
125,245,9,71,93,9,
124,243,9,71,93,9,
124,243,9,71,92,9,
124,241,9,71,92,8,
123,240,9,70,91,9,
123,239,9,70,91,9,
121,238,9,70,91,9,
121,237,9,70,90,9,
121,236,9,69,89,9,
120,235,9,69,89,9,
120,233,9,68,89,9,
120,233,9,69,89,9,
119,231,9,68,88,9,
119,231,9,68,88,9,
118,230,9,67,88,9,
118,229,9,67,87,8,
117,227,9,67,87,9,
116,227,9,67,86,9,
115,226,9,67,86,7,
115,225,9,66,86,9,
115,224,9,66,85,9,
114,222,9,65,85,9,
114,222,9,65,84,9,
114,220,9,65,83,7,
113,219,9,65,83,9,
113,218,9,64,83,9,
113,217,9,64,83,9,
112,216,9,64,82,9,
112,216,9,64,82,9,
111,215,9,63,82,9,
110,214,9,63,81,8,
110,213,9,63,81,9,
110,212,9,63,80,8,
109,211,9,63,79,8,
109,210,9,62,79,8,
108,209,9,62,79,9,
108,207,9,62,79,8,
108,207,9,62,79,8,
107,206,9,61,78,9,
107,205,8,61,78,9,
106,204,8,61,78,9,
105,204,9,60,77,9,
105,203,9,60,77,9,
105,202,9,60,77,9,
103,201,9,60,76,9,
103,199,9,59,76,9,
103,199,9,59,76,8,
103,199,9,60,75,7,
103,198,9,59,76,9,
102,197,9,59,75,9,
102,195,8,59,74,9,
101,195,9,58,74,8,
101,195,9,58,73,9,
100,194,9,58,74,9,
100,193,9,57,73,9,
99,192,9,57,73,9,
99,191,9,57,73,9,
99,190,9,57,78,9,
99,190,9,57,115,9,
98,189,9,56,114,9,
98,188,9,63,113,8,
97,188,9,79,113,9,
97,187,9,78,113,9,
97,185,9,78,112,7,
96,185,8,77,111,9,
96,184,9,77,110,7,
96,184,9,77,110,9,
95,183,9,76,109,7,
95,182,9,76,109,9,
95,182,9,76,109,9,
94,180,9,75,108,9,
94,179,9,75,108,9,
93,179,9,75,107,9,
93,178,9,74,107,9,
93,177,9,73,106,8,
92,177,8,73,105,9,
92,176,9,73,105,8,
92,175,9,73,103,9,
91,175,9,72,103,8,
91,174,9,71,103,9,
91,173,9,71,103,7,
90,172,8,71,103,9,
89,172,9,71,102,7,
89,171,9,71,102,8,
89,170,8,71,101,8,
88,169,9,70,101,9,
88,169,7,70,100,9,
88,167,8,70,99,7,
88,167,8,69,99,9,
88,167,9,69,99,8,
87,166,8,68,98,8,
86,165,9,68,98,8,
86,165,9,68,98,9,
86,164,9,68,97,7,
85,163,9,68,97,8,
86,163,8,67,96,8,
85,162,9,67,96,7,
85,162,8,67,96,8,
84,161,9,67,95,7,
84,160,9,66,95,7,
83,159,8,66,95,8,
83,159,7,66,94,8,
83,159,9,65,94,7,
83,158,9,65,93,7,
83,157,7,65,92,7,
82,156,7,63,92,7,
81,156,7,64,92,7,
81,155,7,63,92,7,
81,155,7,64,91,7,
80,154,7,64,91,7,
80,153,7,63,90,7,
79,153,7,63,90,7,
79,152,7,63,89,7,
79,152,7,63,89,7,
79,152,7,63,89,7,
79,150,7,63,88,7,
78,150,7,62,88,7,
78,150,7,62,88,7,
78,148,7,62,88,7,
78,148,7,62,87,7,
77,147,7,61,86,7,
77,147,7,61,86,7,
77,146,7,61,86,7,
76,146,7,61,86,7,
76,145,7,60,85,7,
76,145,7,60,85,7,
76,143,8,60,85,7,
76,143,7,60,84,7,
75,143,7,60,83,7,
75,143,7,59,83,7,
75,142,7,59,83,7,
75,142,7,58,83,7,
75,141,7,58,83,7,
74,140,7,58,82,7,
73,140,7,58,82,7,
73,140,7,58,81,7,
73,139,7,57,81,7,
73,138,7,57,80,7,
73,137,7,57,79,7,
71,137,7,57,79,7,
71,137,7,56,79,7,
71,137,7,57,87,7,
71,135,7,56,86,7,
71,135,7,56,86,7,
71,135,7,56,86,7,
71,134,7,56,85,7,
71,134,7,55,85,7,
70,133,7,56,84,7,
70,133,7,55,84,7,
70,132,7,55,83,7,
69,131,7,54,83,7,
69,131,7,54,82,7,
69,131,7,54,83,7,
70,130,7,53,82,7,
70,129,7,54,82,7,
69,129,7,53,81,7,
69,129,7,53,81,7,
69,128,7,53,81,7,
69,127,7,53,80,7,
68,127,7,52,79,7,
67,127,7,52,79,7,
67,126,7,52,79,7,
67,126,7,52,79,7,
67,126,7,51,79,7,
67,125,7,51,78,7,
67,125,7,51,78,7,
66,124,7,51,78,7,
66,124,7,51,78,7,
66,123,7,51,77,7,
66,123,8,50,77,7,
65,123,7,50,76,7,
65,121,7,50,76,7,
65,121,7,49,76,7,
64,121,7,49,76,7,
64,120,7,49,75,7,
64,120,7,49,75,7,
63,120,7,49,75,7,
63,120,7,49,74,7,
63,119,7,48,75,7,
63,118,7,48,73,7,
63,118,7,48,73,7,
62,118,7,48,73,7,
63,117,7,48,73,7,
62,116,7,48,73,7,
62,116,7,48,71,7,
62,115,7,47,71,7,
61,115,7,47,71,7,
61,115,7,47,71,7,
61,114,7,47,71,7,
61,114,7,46,71,7,
61,114,7,46,71,7,
61,113,7,46,70,7,
60,114,7,46,70,7,
60,115,7,46,70,7,
60,114,7,45,69,7,
60,113,7,46,69,7,
60,113,7,46,69,7,
59,113,7,45,68,7,
59,112,7,45,69,7,
113,112,7,45,68,7,
112,112,7,44,68,7,
112,111,7,44,67,7,
111,111,7,45,67,7,
111,110,7,44,67,7,
110,110,7,44,67,7,
109,110,7,44,67,7,
109,109,7,50,66,7,
109,109,7,65,66,7,
107,108,7,64,66,7,
107,108,7,64,65,7,
107,108,7,63,65,7,
106,107,7,63,65,7,
105,107,7,63,64,7,
105,106,7,62,64,7,
105,105,7,62,63,7,
103,105,7,62,63,7,
103,105,7,62,63,7,
103,104,7,62,63,7,
103,103,7,61,63,7,
102,103,7,61,63,7,
102,103,7,60,62,7,
102,103,7,60,62,7,
101,103,7,60,62,7,
100,102,7,60,62,7,
100,102,7,59,61,7,
99,101,7,59,61,7,
99,100,7,59,61,7,
99,101,7,59,61,7,
99,100,7,58,60,7,
98,99,7,58,60,7,
97,99,7,58,60,7,
97,99,7,58,60,7,
96,99,7,57,59,7,
96,98,7,57,59,7,
96,98,7,57,59,7,
96,98,7,57,59,7,
95,97,7,57,59,7,
95,97,7,57,58,7,
95,97,7,56,59,7,
94,96,7,56,58,7,
94,96,7,56,58,7,
93,96,7,56,57,7,
92,96,7,56,57,7,
93,95,7,56,57,7,
92,95,7,55,57,7,
92,94,7,55,57,7,
92,94,7,54,56,7,
91,93,7,54,56,7,
91,94,7,54,56,7,
90,93,7,54,56,7,
90,93,7,54,56,7,
90,92,7,54,56,7,
89,92,7,53,56,7,
89,92,7,53,55,7,
88,91,7,53,55,7,
88,91,7,52,54,7,
88,91,7,52,55,7,
88,91,7,52,54,7,
87,90,7,52,54,7,
87,90,7,51,54,7,
86,90,7,51,54,7,
86,89,7,51,53,7,
86,89,7,51,53,7,
86,88,7,51,53,7,
85,88,7,51,53,7,
85,88,7,51,53,7,
84,88,7,50,52,7,
84,88,7,50,52,7,
83,88,7,50,52,7,
83,87,7,49,52,7,
83,87,7,49,51,7,
83,86,7,49,51,7,
83,86,7,49,51,7,
82,86,7,49,51,7,
82,86,7,49,51,7,
81,85,7,48,51,7,
81,85,7,48,51,7,
81,85,7,48,50,7,
81,84,7,48,50,7,
80,83,7,48,50,7,
80,83,7,47,50,7,
79,83,7,47,50,7,
79,83,7,47,49,7,
79,83,7,47,49,7,
79,82,7,46,49,7,
78,82,7,47,49,7,
78,82,7,47,48,7,
78,81,7,46,48,7,
77,81,7,46,48,7,
77,81,7,46,48,7,
77,81,7,46,48,7,
77,81,7,45,48,7,
76,80,7,45,48,7,
76,80,7,45,48,7,
76,79,7,45,47,7,
75,79,7,45,47,7,
75,79,7,45,47,7,
75,79,7,45,47,7,
74,78,7,44,47,7,
74,79,7,44,46,7,
74,78,7,44,46,7,
79,78,7,44,46,7,
91,78,7,44,46,7,
90,77,7,44,46,7,
89,77,7,43,45,7,
89,77,7,43,45,7,
89,77,7,43,45,7,
88,76,7,43,45,7,
88,76,7,43,45,7,
88,76,7,64,46,7,
87,76,7,76,45,7,
86,75,7,75,45,7,
86,75,7,75,45,7,
86,75,7,75,45,7,
85,74,7,74,45,7,
86,75,7,73,44,7,
86,74,7,73,44,7,
85,73,7,73,44,7,
85,73,7,73,44,7,
84,73,7,71,44,7,
84,73,7,71,44,7,
83,73,7,71,43,7,
83,73,7,74,44,7,
83,73,7,73,44,7,
83,71,7,73,43,7,
82,71,7,73,43,7,
82,71,7,71,43,7,
81,71,7,71,42,7,
81,71,7,71,42,7,
81,71,7,71,42,7,
80,71,7,71,42,7,
80,70,7,71,42,7,
79,70,7,70,42,7,
80,70,7,70,42,7,
79,70,7,70,42,7,
79,69,7,70,41,7,
79,69,7,70,42,7,
79,69,7,69,41,7,
78,68,7,69,41,7,
78,69,7,69,41,7,
77,68,7,68,41,7,
77,68,7,68,41,7,
77,68,7,68,41,7,
77,68,7,67,40,7,
77,67,7,67,39,7,
76,67,7,67,39,7,
76,67,7,67,39,7,
75,67,7,66,39,7,
75,66,7,66,39,7,
75,66,7,66,39,7,
74,66,7,66,39,7,
74,66,7,65,39,7,
74,66,7,65,39,7,
79,65,7,65,39,7,
93,65,7,65,39,7,
93,65,7,65,39,7,
92,65,7,64,39,7,
92,64,7,63,38,7,
91,64,7,63,38,7,
90,64,7,63,38,7,
90,63,7,63,38,7,
90,63,7,63,38,7,
89,63,7,62,38,7,
89,63,7,62,37,7,
88,63,7,62,38,7,
88,63,7,62,37,7,
88,62,7,61,37,7,
88,62,7,62,37,7,
87,62,7,61,37,7,
87,62,7,61,36,7,
86,62,7,61,36,7,
86,61,7,60,37,7,
85,61,7,60,36,7,
85,61,7,60,36,7,
85,61,7,60,35,7,
85,61,7,60,36,7,
84,60,7,59,35,7,
84,60,7,59,35,7,
83,60,7,59,35,7,
83,60,7,59,35,7,
83,59,7,58,35,7,
82,59,7,58,35,7,
82,59,7,58,35,7,
82,59,7,57,35,7,
81,59,7,58,35,7,
81,59,7,57,34,7,
81,58,7,57,35,7,
80,58,7,57,35,7,
79,58,7,57,34,7,
79,58,7,57,34,7,
79,57,7,56,34,7,
79,57,7,56,34,7,
79,57,7,56,34,7,
79,57,7,56,34,7,
78,57,7,55,33,7,
78,57,7,56,33,7,
78,56,7,55,33,7,
77,56,7,55,33,7,
77,56,7,54,33,7,
77,56,7,54,33,7,
76,56,7,54,33,7,
76,56,7,54,32,7,
76,56,7,53,32,7,
76,55,7,53,36,7,
75,55,7,53,37,7,
75,56,7,53,36,7,
75,54,7,53,36,7,
74,55,7,52,35,7,
74,54,7,52,36,7,
73,54,7,52,35,7,
73,54,7,52,35,7,
73,54,7,52,35,7,
71,54,7,51,35,7,
72,53,7,51,35,7,
71,53,7,51,35,7,
71,53,7,51,35,7,
71,53,7,50,34,7,
71,52,7,50,34,7,
71,52,7,50,34,7,
71,52,7,50,34,7,
70,52,7,50,34,7,
70,52,7,50,34,7,
70,51,7,49,33,7,
70,51,7,49,34,7,
70,51,7,49,34,7,
69,51,7,49,33,7,
69,51,7,49,34,7,
69,50,7,48,33,7,
68,51,7,49,33,7,
68,51,7,48,33,7,
68,50,7,48,33,7,
67,50,7,48,32,7,
67,50,7,48,32,7,
67,50,7,48,32,7,
67,49,7,47,32,7,
66,49,7,47,32,7,
66,49,7,47,32,7,
66,49,7,47,31,7,
66,49,7,46,31,7,
65,49,7,47,31,7,
65,49,7,46,31,7,
65,48,7,46,31,7,
65,48,7,46,31,7,
65,48,7,46,31,7,
64,48,7,45,31,7,
63,48,7,46,31,7,
63,48,7,46,31,7,
63,48,7,45,31,7,
63,47,7,45,31,7,
63,48,7,45,31,7,
63,47,7,45,30,7,
63,47,7,44,30,7,
62,47,7,44,30,7,
62,46,7,44,30,7,
62,46,7,44,30,7,
62,46,7,43,30,7,
61,46,7,44,29,7,
61,46,7,43,30,7,
61,46,7,43,29,7,
61,46,7,43,30,7,
61,45,7,43,30,7,
60,45,7,43,29,7,
60,45,7,43,29,7,
60,45,7,42,29,7,
60,45,7,43,29,7,
60,45,7,42,29,7,
59,45,7,42,29,7,
59,44,7,42,28,7,
59,44,7,42,29,7,
59,44,7,41,28,7,
58,44,7,41,28,7,
58,44,7,41,28,7,
57,43,7,41,28,7,
58,44,7,41,28,7,
57,43,7,40,28,7,
57,43,7,39,28,7,
57,43,7,41,28,7,
57,43,7,39,28,7,
57,43,7,39,28,7,
57,43,7,39,28,7,
56,42,7,39,27,7,
56,42,7,39,27,7,
56,42,7,39,27,7,
56,42,7,39,27,7,
56,42,7,39,27,7,
55,42,7,39,27,7,
55,41,7,39,27,7,
55,41,7,39,26,7,
55,41,7,39,27,7,
55,41,7,38,26,7,
54,41,7,38,27,7,
54,41,7,38,26,7,
54,41,7,39,51,7,
54,41,7,38,71,7,
54,39,7,38,70,7,
54,39,7,38,70,7,
53,39,7,38,69,7,
53,39,7,37,69,7,
53,39,7,37,68,7,
53,39,7,37,68,7,
52,39,7,37,67,7,
52,39,7,37,67,7,
51,39,7,37,67,7,
52,39,7,37,67,7,
51,39,7,37,66,7,
51,39,7,36,66,7,
51,39,7,36,66,7,
51,39,7,36,65,7,
51,39,7,35,65,7,
51,39,7,36,65,7,
50,38,7,35,65,7,
50,38,7,35,65,7,
50,38,7,35,65,7,
50,38,7,35,64,7,
50,38,7,35,63,7,
50,38,7,35,63,7,
50,37,7,35,63,7,
49,37,7,34,63,7,
49,38,7,35,63,7,
49,37,7,35,63,7,
49,37,7,36,62,7,
49,37,7,35,62,7,
48,37,7,35,62,7,
49,37,7,35,61,7,
48,37,7,35,61,7,
48,37,7,35,61,7,
48,36,7,34,61,7,
48,36,7,35,60,7,
47,36,7,34,60,7,
47,36,7,34,60,7,
47,35,7,34,60,7,
47,35,7,34,59,7,
47,35,7,34,59,7,
47,35,7,34,59,7,
46,35,7,34,59,7,
47,35,7,34,59,7,
46,35,7,34,58,7,
46,35,7,34,58,7,
46,35,7,33,57,7,
46,34,7,33,57,7,
45,34,7,33,57,7,
45,34,7,33,57,7,
45,34,7,33,57,7,
45,34,7,33,56,7,
45,34,7,32,56,7,
45,34,7,32,56,7,
45,34,7,32,56,7,
44,33,7,31,56,7,
44,34,7,32,56,7,
44,33,7,31,55,7,
44,33,7,31,56,7,
44,33,7,31,55,7,
44,33,7,31,54,7,
43,33,7,31,54,7,
43,33,7,31,54,7,
43,33,7,31,54,7,
43,33,7,31,53,7,
43,33,7,31,54,7,
43,33,7,31,53,7,
43,32,7,30,52,7,
43,32,7,30,52,7,
42,32,7,30,53,7,
42,32,7,30,52,7,
41,31,7,30,52,7,
42,31,7,30,52,7,
41,31,7,30,52,7,
41,31,7,30,52,7,
41,31,7,30,51,7,
41,31,7,30,51,7,
41,31,7,30,51,7,
41,31,7,29,51,7,
41,31,7,30,51,7,
41,31,7,29,50,7,
39,31,7,29,50,7,
39,31,7,29,50,7,
39,31,7,29,50,7,
39,30,7,29,49,7,
39,31,7,29,49,7,
39,31,7,28,49,7,
39,30,7,29,48,7,
39,30,7,28,49,7,
39,30,7,28,48,7,
39,31,7,39,110,7,
39,30,7,39,108,7,
39,30,7,39,108,7,
39,30,7,39,107,7,
39,29,7,39,106,7,
38,29,7,39,105,7,
39,30,7,39,105,7,
38,29,7,39,105,7,
38,29,7,39,103,7,
38,29,7,38,103,7,
38,29,7,38,103,7,
38,29,7,38,103,7,
38,29,7,38,103,7,
38,29,7,59,102,7,
37,29,7,59,102,7,
37,28,7,59,101,7,
37,28,7,58,100,7,
37,28,7,57,100,7,
37,28,7,57,99,7,
37,28,7,57,99,7,
37,28,7,57,99,7,
36,28,7,57,99,7,
37,28,7,57,98,7,
36,28,7,56,98,7,
36,27,7,56,97,7,
36,27,7,56,97,7,
35,28,7,56,96,7,
35,27,7,55,96,7,
35,27,7,55,96,7,
35,27,7,55,95,7,
35,27,7,55,95,7,
35,27,7,54,94,7,
35,27,7,54,94,7,
35,27,7,54,93,7,
35,27,7,53,94,7,
35,26,7,54,93,7,
35,27,7,53,92,7,
34,27,7,53,92,7,
34,26,7,53,92,7,
34,26,7,53,92,7,
34,26,7,52,91,7,
34,26,7,52,90,7,
34,26,7,52,90,7,
34,26,7,51,90,7,
34,26,7,51,89,7,
34,25,7,51,89,7,
34,25,7,51,89,7,
34,25,7,51,89,7,
34,25,7,51,88,7,
33,25,7,50,88,7,
33,25,7,50,88,7,
33,25,7,50,87,7,
33,25,7,50,87,7,
33,25,7,50,87,7,
33,25,7,49,86,7,
33,25,7,49,86,7,
32,24,7,49,86,7,
32,25,7,49,85,7,
32,24,7,49,85,7,
31,25,7,49,84,7,
31,24,7,48,84,7,
31,24,7,48,83,7,
31,24,7,48,83,7,
31,24,7,48,83,7,
31,24,7,48,82,7,
31,24,7,47,83,7,
31,24,7,47,82,7,
31,24,7,47,82,7,
31,24,7,47,81,7,
31,24,7,47,81,7,
31,24,7,47,80,7,
31,24,7,46,80,7,
31,24,7,46,80,7,
31,24,7,46,80,7,
31,24,7,46,79,7,
30,24,7,45,79,7,
30,23,7,46,78,7,
30,23,7,45,78,7,
30,23,7,45,78,7,
30,23,7,45,78,7,
30,23,7,45,77,7,
29,23,7,44,77,7,
30,23,7,44,77,7,
30,23,7,44,77,7,
29,22,7,44,77,7,
35,22,7,44,76,7,
34,22,7,44,76,7,
34,23,7,44,76,7,
35,22,7,44,108,7,
34,22,7,43,107,7,
34,22,7,43,105,7,
33,22,7,43,105,7,
33,22,7,43,105,7,
33,22,7,42,103,7,
33,22,7,42,103,7,
33,21,7,42,103,7,
33,21,7,42,103,7,
32,21,7,41,102,7,
33,21,7,41,102,7,
32,22,7,41,102,7,
32,21,7,41,101,7,
32,21,7,41,101,7,
31,21,7,41,100,7,
31,25,7,41,99,7,
31,25,7,39,99,7,
31,25,7,41,99,7,
31,25,7,39,98,7,
31,25,7,41,98,7,
31,25,7,39,98,7,
31,25,7,39,97,7,
31,24,7,39,97,7,
31,24,7,39,97,7,
31,24,7,39,96,7,
31,24,7,39,96,7,
31,24,7,39,96,7,
31,25,7,39,95,7,
31,24,7,39,95,7,
31,24,7,39,94,7,
31,24,7,38,94,7,
31,24,7,38,93,7,
31,24,7,38,93,7,
30,24,7,38,93,7,
31,24,7,38,92,7,
31,24,7,38,92,7,
30,24,7,37,91,7,
30,24,7,37,91,7,
30,23,7,37,91,7,
30,23,7,37,91,7,
30,23,7,37,90,7,
29,23,7,37,89,7,
29,23,7,36,89,7,
30,23,7,36,88,7,
30,23,7,36,89,7,
29,23,7,36,88,7,
29,23,7,35,88,7,
29,23,7,35,88,7,
29,22,7,36,88,7,
29,22,7,35,87,7,
29,22,7,35,86,7,
29,22,7,35,86,7,
28,22,7,35,86,7,
28,22,7,35,85,7,
29,22,7,35,85,7,
28,22,7,35,85,7,
28,22,7,35,84,7,
28,22,7,35,84,7,
28,21,7,34,83,7,
28,21,7,35,83,7,
28,21,7,34,83,7,
27,22,7,34,83,7,
27,21,7,34,82,7,
28,21,7,34,82,7,
28,21,7,33,82,7,
27,21,7,34,81,7,
27,21,7,33,81,7,
27,21,7,33,81,7,
27,20,7,33,80,7,
27,21,7,33,80,7,
27,21,7,33,79,7,
27,21,7,33,79,7,
26,21,7,33,79,7,
26,20,7,32,79,7,
27,20,7,32,78,7,
27,19,7,32,78,7,
26,20,7,31,78,7,
26,19,7,31,78,7,
25,20,7,31,77,7,
25,20,7,31,77,7,
26,19,7,31,77,7,
25,20,7,31,76,7,
25,20,7,31,76,7,
25,19,7,31,76,7,
25,19,7,31,75,7,
25,19,7,31,75,7,
25,19,7,31,75,7,
25,20,7,31,75,7,
25,20,7,31,74,7,
25,19,7,30,74,7,
25,19,7,30,74,7,
25,19,7,30,73,7,
25,19,7,30,73,7,
24,19,7,30,73,7,
24,19,7,30,73,7,
24,19,7,30,71,7,
24,19,7,30,71,7,
24,19,7,29,71,7,
24,19,7,29,71,7,
24,19,7,29,71,7,
24,19,7,29,71,7,
24,19,7,29,71,7,
24,19,7,29,71,7,
24,18,7,29,70,7,
24,19,7,29,70,7,
24,19,7,29,69,7,
24,19,7,28,70,7,
24,18,7,28,69,7,
24,19,7,28,69,7,
24,19,7,28,69,7,
23,18,7,28,69,7,
24,18,7,28,68,7,
23,18,7,28,68,7,
23,18,7,28,67,7,
23,18,7,28,67,7,
23,18,7,28,67,7,
22,18,7,28,67,7,
23,17,7,28,67,7,
22,18,7,28,66,7,
23,18,7,27,66,7,
22,17,7,28,66,7,
22,17,7,27,65,7,
22,18,7,27,65,7,
22,17,7,27,65,7,
22,17,7,27,65,7,
22,17,7,27,64,7,
22,17,7,27,64,7,
22,17,7,27,64,7,
22,17,7,27,63,7,
22,18,7,33,63,7,
22,17,7,34,63,7,
22,17,7,33,63,7,
22,17,7,33,63,7,
22,17,7,33,63,7,
21,17,7,33,63,7,
21,17,7,33,62,7,
21,17,7,32,62,7,
21,16,7,32,62,7,
21,17,7,33,61,7,
21,16,7,32,61,7,
21,16,7,31,61,7,
21,16,7,31,61,7,
21,16,7,31,61,7,
21,16,7,31,60,7,
20,16,7,31,60,7,
20,16,7,31,60,7,
21,16,7,31,59,7,
20,17,7,31,59,7,
20,16,7,31,59,7,
20,16,7,31,59,7,
20,16,7,31,59,7,
20,15,7,30,58,7,
20,16,7,31,58,7,
20,16,7,30,58,7,
21,15,7,30,58,7,
20,15,7,30,57,7,
20,16,7,31,57,7,
21,15,7,31,57,7,
20,16,7,31,57,7,
20,15,7,31,57,7,
20,15,7,30,57,7,
20,15,7,30,56,7,
19,15,7,30,56,7,
19,15,7,30,56,7,
19,15,7,30,56,7,
20,15,7,30,56,7,
19,15,7,30,56,7,
19,15,7,30,55,7,
19,15,7,29,55,7,
19,15,7,30,55,7,
19,15,7,29,55,7,
19,15,7,30,54,7,
19,15,7,29,54,7,
19,15,7,29,54,7,
19,15,7,29,54,7,
19,14,7,29,53,7,
19,14,7,29,53,7,
19,15,7,29,53,7,
19,14,7,28,52,7,
30,14,7,28,53,7,
30,15,7,28,53,7,
30,15,7,28,52,7,
30,15,7,53,52,7,
30,15,7,56,52,7,
29,14,7,56,51,7,
30,14,7,56,51,7,
29,14,7,56,51,7,
29,14,7,55,51,7,
29,14,7,55,51,7,
29,14,7,54,50,7,
29,14,7,54,51,7,
28,14,7,54,50,7,
29,14,7,54,50,7,
28,14,7,53,50,7,
28,14,7,53,49,7,
28,13,7,53,50,7,
28,14,7,53,49,7,
28,14,7,53,49,7,
28,14,7,52,49,7,
28,14,7,67,49,7,
28,14,7,85,49,7,
28,14,7,83,48,7,
27,14,7,83,48,7,
27,14,7,83,48,7,
27,13,7,82,48,7,
27,13,7,82,48,7,
27,14,7,81,48,7,
27,14,7,81,48,7,
26,13,7,81,47,7,
27,13,7,81,48,7,
26,13,7,80,47,7,
26,13,7,80,47,7,
26,13,7,79,47,7,
26,13,7,79,46,7,
26,13,7,79,46,7,
26,13,7,78,46,7,
25,13,7,78,46,7,
26,13,7,78,46,7,
26,13,7,77,46,7,
25,13,7,77,45,7,
25,13,7,77,45,7,
25,13,7,76,45,7,
25,13,7,76,45,7,
25,13,7,76,45,7,
25,13,7,76,45,7,
25,13,7,76,44,7,
25,13,7,75,44,7,
25,12,7,75,44,7,
25,13,7,74,44,7,
24,12,7,74,44,7,
24,13,7,73,43,7,
25,12,7,73,43,7,
24,13,7,73,43,7,
24,12,7,73,43,7,
24,12,7,73,43,7,
24,12,7,71,43,7,
24,12,7,71,43,7,
24,13,7,71,43,7,
24,12,7,71,42,7,
24,13,7,71,42,7,
24,26,7,71,42,7,
24,26,7,71,42,7,
24,25,7,71,41,7,
24,25,7,70,41,7,
24,25,7,70,41,7,
24,25,7,70,41,7,
24,25,7,69,41,7,
24,25,7,69,41,7,
24,25,7,69,41,7,
24,24,7,68,40,7,
23,24,7,68,39,7,
24,24,7,89,39,7,
23,24,7,88,39,7,
23,25,7,88,39,7,
22,24,7,88,39,7,
23,24,7,86,39,7,
22,24,7,86,39,7,
24,25,7,86,39,7,
26,24,7,85,39,7,
25,24,7,85,39,7,
25,24,7,85,39,7,
25,24,7,85,39,7,
25,24,7,84,38,7,
25,24,7,83,39,7,
25,24,7,83,39,7,
25,23,7,83,39,7,
25,23,7,82,39,7,
25,23,7,83,54,7,
25,23,7,82,54,7,
25,23,7,82,54,7,
24,23,7,81,54,7,
24,23,7,81,53,7,
24,22,7,81,52,7,
24,22,7,80,52,7,
24,22,7,79,53,7,
24,22,7,79,52,7,
24,22,7,79,52,7,
24,22,7,79,51,7,
24,22,7,79,51,7,
24,22,7,78,51,7,
24,22,7,78,51,7,
24,21,7,78,51,7,
23,21,7,78,51,7,
24,21,7,77,50,7,
24,21,7,77,50,7,
24,21,7,76,50,7,
24,21,7,76,49,7,
24,21,7,76,49,7,
23,21,7,76,49,7,
23,21,7,75,49,7,
23,21,7,75,49,7,
24,21,7,75,48,7,
23,21,7,75,48,7,
23,21,7,75,48,7,
23,21,7,74,48,7,
23,20,7,74,48,7,
22,20,7,73,48,7,
24,21,7,73,47,7,
24,20,7,73,47,7,
23,20,7,73,47,7,
24,19,7,71,47,7,
23,20,7,71,47,7,
24,19,7,71,46,7,
23,20,7,71,46,7,
24,19,7,71,46,7,
23,20,7,71,46,7,
23,19,7,71,45,7,
22,19,7,70,46,7,
22,19,7,70,45,7,
22,19,7,70,45,7,
23,19,7,70,45,7,
23,19,7,69,45,7,
23,19,7,69,45,7,
23,19,7,69,44,7,
22,19,7,68,44,7,
22,19,7,68,44,7,
23,19,7,67,44,7,
22,19,7,67,44,7,
22,19,7,67,44,7,
22,19,7,67,43,7,
22,18,7,67,43,7,
22,19,7,66,43,7,
22,18,7,66,43,7,
22,19,7,66,43,7,
22,18,7,66,42,7,
22,18,7,65,42,7,
22,18,7,66,42,7,
22,18,7,65,42,7,
22,18,7,65,41,7,
21,18,7,64,42,7,
21,18,7,64,41,7,
21,17,7,63,41,7,
21,18,7,63,41,7,
21,17,7,63,41,7,
21,17,7,63,41,7,
21,18,7,63,41,7,
21,17,7,63,41,7,
20,17,7,63,39,7,
21,17,7,62,39,7,
20,17,7,62,39,7,
21,17,7,62,39,7,
21,17,7,62,39,7,
20,17,7,61,39,7,
20,17,7,61,39,7,
20,17,7,61,39,7,
20,17,7,61,39,7,
20,17,7,61,39,7,
20,17,7,60,39,7,
20,16,7,60,38,7,
19,17,7,60,39,7,
20,16,7,60,38,7,
19,16,7,59,38,7,
19,17,7,59,38,7,
19,16,7,59,38,7,
19,16,7,59,38,7,
19,16,7,59,37,7,
19,16,7,60,73,8,
19,16,7,59,89,7,
19,16,7,59,89,7,
19,16,7,59,88,7,
19,16,7,58,88,7,
19,16,7,58,88,7,
19,16,7,58,87,7,
19,15,7,58,86,7,
19,15,7,57,87,7,
19,15,7,57,86,7,
18,15,7,57,85,7,
19,15,7,57,85,7,
18,15,7,57,84,7,
19,15,7,56,84,7,
18,15,7,56,83,7,
18,15,7,56,83,7,
18,15,7,56,83,7,
18,15,7,56,83,7,
18,15,7,56,82,7,
18,15,7,55,82,7,
18,15,7,55,82,7,
18,15,7,55,81,7,
18,14,7,54,81,7,
18,15,7,55,81,7,
18,15,7,57,80,7,
17,15,7,57,79,7,
17,15,7,57,79,7,
18,15,7,56,79,7,
18,15,7,57,79,7,
17,15,7,57,79,7,
17,14,7,56,79,7,
18,14,7,56,78,7,
18,15,7,56,77,7,
18,14,7,56,77,7,
17,14,7,55,77,7,
17,14,7,55,77,7,
17,14,7,55,77,7,
17,14,7,55,76,7,
17,14,7,55,76,7,
17,14,7,54,75,7,
17,14,7,54,75,7,
17,14,7,53,75,7,
17,14,7,54,75,7,
17,14,7,53,74,7,
17,14,7,53,74,7,
18,14,7,53,74,7,
18,14,7,52,73,7,
18,13,7,52,73,7,
18,14,7,52,73,7,
18,13,7,52,72,7,
18,13,7,52,72,7,
18,14,7,51,71,7,
18,13,7,51,71,7,
18,13,7,51,71,7,
18,13,7,51,71,7,
18,14,7,51,71,7,
18,13,7,51,71,7,
17,13,7,51,70,7,
17,13,7,50,71,7,
17,13,7,50,70,7,
18,13,7,50,69,7,
17,13,7,50,70,7,
17,13,7,50,69,7,
18,13,7,50,68,7,
17,13,7,49,69,7,
17,13,7,50,68,7,
17,13,7,49,67,7,
17,12,7,49,67,7,
17,12,7,49,67,7,
17,13,7,48,67,7,
17,12,7,48,67,7,
17,13,7,48,67,7,
17,13,7,48,66,7,
17,13,7,48,66,7,
17,13,7,48,66,7,
16,13,7,47,65,7,
16,12,7,48,65,7,
16,13,7,47,65,7,
16,12,7,47,64,7,
16,12,7,47,64,7,
16,12,7,46,65,7,
16,12,7,46,63,7,
16,12,7,46,63,7,
16,12,7,46,63,7,
16,12,7,46,63,7,
18,12,7,46,63,7,
18,12,7,46,63,7,
17,12,7,45,62,7,
18,12,7,45,62,7,
17,12,7,45,62,7,
17,12,7,46,103,7,
17,12,7,44,102,7,
17,12,7,45,101,7,
17,12,7,44,100,7,
17,12,7,44,100,7,
17,12,7,44,99,7,
16,12,7,44,99,7,
17,11,7,44,99,7,
16,12,7,44,98,7,
16,12,7,43,98,7,
17,12,7,43,97,7,
16,12,7,43,97,7,
17,11,7,43,97,7,
16,12,7,43,96,7,
16,12,7,43,96,7,
16,12,7,43,95,7,
16,12,7,42,94,7,
16,12,7,43,94,7,
16,12,7,42,94,7,
16,12,7,42,93,7,
17,12,7,42,93,7,
17,12,7,41,93,7,
17,11,7,41,92,7,
17,12,7,41,92,7,
17,12,7,41,92,7,
17,12,7,41,91,7,
17,11,7,41,91,7,
17,12,7,39,91,7,
17,11,7,39,90,7,
17,12,7,39,90,7,
16,12,7,39,89,7,
16,12,7,39,89,7,
17,11,7,39,89,7,
17,11,7,39,88,7,
16,11,7,39,88,7,
17,12,7,39,88,7,
17,11,7,39,88,7,
16,11,7,39,87,7,
16,11,7,39,87,7,
16,11,7,39,86,7,
16,11,7,39,86,7,
16,11,7,39,85,7,
16,11,7,38,85,7,
16,11,7,38,84,7,
15,11,7,38,84,7,
16,11,7,38,84,7,
15,11,7,38,83,7,
16,11,7,38,83,7,
16,11,7,37,83,7,
16,11,7,38,83,7,
16,11,7,38,82,7,
16,11,7,37,82,7,
16,12,7,37,82,7,
16,11,7,41,81,7,
15,11,7,39,81,7,
15,11,7,41,81,7,
16,11,7,39,81,7,
16,11,7,39,79,7,
16,11,7,39,79,7,
16,11,7,39,79,7,
15,11,7,39,79,7,
16,11,7,39,79,7,
16,11,7,39,79,7,
16,11,7,39,78,7,
15,11,7,39,78,7,
16,11,7,39,78,7,
15,11,7,39,78,7,
15,11,7,39,77,7,
15,10,7,38,77,7,
15,10,7,38,76,7,
15,10,7,38,76,7,
15,10,7,38,76,7,
15,10,7,38,76,7,
16,11,7,38,75,7,
16,10,7,37,75,7,
16,10,7,37,75,7,
16,10,7,37,74,7,
16,11,7,37,74,7,
16,11,7,37,73,7,
16,10,7,37,73,7,
15,10,7,37,73,7,
15,10,7,37,72,7,
15,10,7,36,73,7,
15,11,7,36,71,7,
15,10,7,36,71,7,
16,10,7,35,71,7,
15,10,7,35,71,7,
15,10,7,35,71,7,
15,10,7,35,71,7,
15,10,7,35,116,7,
15,10,7,37,115,7,
15,10,7,46,114,7,
15,10,7,86,115,7,
15,10,7,92,113,7,
15,10,7,91,112,7,
15,10,7,90,112,7,
14,10,7,89,112,7,
15,10,7,89,111,7,
15,10,7,89,110,7,
14,10,7,88,110,7,
15,10,7,88,109,7,
15,10,7,88,109,7,
15,10,7,87,109,7,
14,9,7,87,108,7,
14,9,7,86,107,7,
14,9,7,86,107,7,
14,9,7,86,106,7,
14,9,7,85,106,7,
14,9,7,85,105,7,
14,9,7,84,105,7,
14,9,7,83,105,7,
14,9,7,83,103,7,
14,9,7,83,103,7,
14,9,7,83,103,7,
14,9,7,83,103,7,
14,9,7,82,103,7,
14,9,7,82,102,7,
14,9,7,81,102,7,
14,9,7,81,101,7,
14,9,7,81,101,7,
14,9,7,80,100,7,
14,9,7,79,100,7,
14,9,7,79,99,7,
14,9,7,79,99,7,
13,9,7,79,99,7,
14,9,7,79,99,7,
14,9,7,78,98,7,
14,9,7,78,98,7,
13,9,7,78,97,7,
13,9,7,78,97,7,
13,9,7,78,97,7,
13,9,7,77,96,7,
13,9,7,77,96,7,
13,9,7,76,96,7,
13,9,7,76,96,7,
13,9,7,76,95,7,
13,9,7,76,94,7,
13,9,7,76,94,7,
13,9,7,75,94,7,
13,9,7,75,94,7,
13,9,7,74,93,7,
13,9,7,74,93,7,
13,9,7,74,92,7,
13,9,7,74,92,7,
13,9,7,74,91,7,
13,9,7,73,92,7,
13,8,7,73,91,7,
13,9,7,71,90,7,
13,9,7,73,90,7,
13,8,7,71,90,7,
13,9,7,71,90,7,
13,9,7,71,89,7,
13,9,7,71,89,7,
12,9,7,71,89,7,
13,9,7,71,88,7,
13,9,7,71,88,7,
13,9,7,71,88,7,
12,9,7,70,87,7,
12,9,7,70,87,7,
12,9,7,70,86,7,
12,9,7,69,87,7,
13,9,7,69,86,7,
12,8,7,69,86,7,
12,9,7,68,85,7,
12,9,7,68,85,7,
12,8,7,68,84,7,
12,9,7,67,84,7,
12,9,7,67,83,7,
12,8,7,67,83,7,
12,9,7,67,83,7,
12,8,7,67,83,7,
12,9,7,67,83,7,
12,9,7,67,82,7,
12,9,7,66,82,7,
12,8,7,66,82,7,
12,9,7,66,82,7,
12,9,7,65,81,7,
12,9,7,66,81,7,
12,9,7,65,81,7,
12,8,7,65,81,7,
12,7,7,64,79,7,