
18,53,7,31,25,7,

18,53,7,31,25,7,

57,54,8,31,25,8,

60,53,9,31,25,8,

60,52,7,31,24,7,

60,52,7,31,24,7,

59,51,7,30,24,7,

59,52,7,30,25,7,

59,53,7,30,24,7,

58,52,8,30,24,8,

59,52,7,30,25,7,

58,51,7,30,24,8,

57,52,7,30,24,7,

57,51,8,30,24,8,

57,51,7,29,24,8,

56,51,7,30,24,8,

56,51,8,29,24,7,

56,51,9,29,23,7,

56,51,8,28,24,9,

56,50,8,29,24,7,

56,50,7,29,25,8,

56,53,8,29,31,8,

56,53,7,68,31,7,

54,53,8,92,31,7,

54,52,7,91,31,7,

54,52,7,91,30,8,

54,51,7,90,30,8,

54,51,8,89,30,9,

54,51,8,88,30,8,

53,51,8,89,30,7,

53,51,7,88,29,7,

53,50,8,88,30,9,

52,51,9,88,29,8,

52,50,8,88,29,7,

52,56,7,88,29,7,

52,55,9,87,29,7,

51,56,7,86,29,7,

51,55,7,85,29,7,

51,54,7,85,29,7,

51,54,8,85,28,7,

51,54,7,84,28,7,

50,54,8,84,28,7,

50,53,7,84,28,8,

50,53,7,83,28,8,

50,53,8,83,28,7,

50,52,7,83,28,7,

50,52,7,82,28,8,

49,53,8,82,28,7,

49,53,8,81,27,8,

49,53,8,81,27,7,

48,52,7,81,27,8,

48,53,9,80,28,8,

48,52,7,79,27,7,

48,51,7,80,27,8,

48,51,8,79,27,7,

60,51,7,79,27,8,

60,50,9,78,26,8,

60,51,8,79,26,8,

60,50,7,78,26,7,

60,50,9,78,26,7,

59,51,8,78,27,7,

59,50,7,77,26,7,

59,50,8,77,25,8,

58,50,7,77,25,8,

58,49,8,76,26,7,

58,50,8,76,25,9,

58,49,8,76,25,8,

57,49,7,75,26,7,

57,49,7,75,25,9,

57,49,9,75,25,8,

57,48,7,75,25,8,

56,48,8,74,25,9,

56,48,8,74,25,7,

56,54,8,73,24,7,

56,53,9,73,24,8,

55,53,9,73,24,8,

56,53,7,73,25,7,

56,53,7,73,24,8,

56,53,8,72,35,7,

55,52,8,72,35,8,

54,52,7,71,35,7,

54,51,9,71,35,7,

54,52,9,71,35,9,

54,51,7,71,35,7,

53,51,8,70,35,8,

53,51,9,70,35,7,

53,56,9,70,34,9,

52,55,7,70,34,8,

53,55,8,69,34,7,

52,56,8,69,38,7,

52,54,7,69,44,7,

51,55,8,68,44,7,

51,54,7,68,44,7,

51,54,8,68,44,8,

51,53,8,69,43,7,

51,53,8,67,43,8,

50,53,7,67,43,7,

50,53,7,67,41,9,

50,53,7,66,42,7,

50,62,9,66,42,7,

50,71,7,66,42,8,

49,71,7,66,41,7,

49,70,7,66,41,7,

49,70,8,66,41,8,

49,70,8,66,41,7,

49,70,7,65,39,7,

49,69,8,65,41,9,

48,69,9,64,39,7,

48,68,8,65,40,7,

48,67,8,63,39,8,

47,68,7,63,39,7,

48,67,8,63,39,9,

48,67,7,63,39,8,

47,67,8,63,39,7,

47,66,8,63,39,9,

47,67,7,62,39,8,

47,66,8,62,39,7,

46,65,8,62,39,9,

46,65,8,62,39,7,

46,65,8,62,79,7,

46,64,8,61,101,7,

46,64,7,61,100,8,

46,64,7,61,99,9,

45,64,7,61,98,7,

45,63,7,61,98,9,

45,79,8,61,98,7,

45,78,9,60,97,8,

44,78,7,60,97,7,

44,78,8,60,97,7,

44,77,9,68,96,9,

44,77,7,76,95,7,

44,76,7,75,95,9,

44,77,9,75,95,7,

44,76,8,74,111,8,

44,75,9,74,111,7,

43,75,8,74,111,8,

43,74,8,73,110,7,

43,74,7,73,110,7,

43,75,7,71,109,8,

43,74,7,71,109,8,

42,74,7,71,108,7,

42,73,7,71,107,7,

42,73,9,71,107,8,

42,73,7,71,107,7,

41,71,8,71,106,7,

41,71,8,71,105,9,

41,71,8,70,105,8,

41,71,8,70,104,8,

39,71,7,69,103,7,

41,71,7,69,103,7,

40,73,7,69,103,7,

39,72,7,68,103,7,

39,71,7,68,102,9,

39,71,9,68,102,8,

39,71,7,67,102,8,

39,71,7,67,101,7,

39,71,7,67,100,9,

39,71,7,66,99,7,

39,70,8,67,99,7,

43,70,8,66,99,7,

43,70,8,66,98,7,

43,69,8,66,98,9,

43,69,7,66,98,8,

43,69,8,65,97,9,

42,69,9,65,97,8,

42,68,9,64,97,7,

42,68,7,64,96,7,

42,67,7,64,96,7,

41,67,9,63,96,7,

41,67,7,63,95,8,

41,67,7,63,94,8,

41,67,9,63,94,8,

40,66,7,62,93,8,

39,66,8,62,93,8,

40,65,7,63,93,7,

39,65,7,62,93,7,

39,65,9,62,92,8,

39,65,7,62,92,7,

39,65,9,62,92,9,

39,65,7,61,91,8,

39,64,7,61,91,9,

39,64,7,60,91,9,

39,63,9,61,91,9,

39,63,8,60,90,8,

39,63,7,60,89,9,

42,63,7,60,89,7,

42,62,9,60,89,8,

42,62,9,59,88,7,

41,62,7,59,88,8,

42,62,9,59,88,9,

41,70,8,58,88,7,

41,69,7,58,87,7,

41,69,8,58,86,8,

40,69,7,58,86,9,

39,68,8,57,86,7,

40,67,9,57,85,8,

39,67,7,57,85,8,

39,67,7,57,85,7,

40,67,8,57,84,8,

39,67,8,56,84,8,

39,67,9,56,84,7,

39,66,8,56,83,8,

39,66,7,56,83,8,

39,66,7,56,82,8,

38,65,7,56,82,9,

39,65,7,55,82,7,

39,65,8,55,82,7,

38,65,8,56,81,7,

39,65,9,55,81,7,

38,63,7,55,80,7,

38,63,8,54,80,8,

38,63,7,54,80,7,

37,63,8,54,79,7,

37,63,7,53,79,8,

37,63,8,53,79,9,

37,62,8,53,79,7,

37,62,9,53,79,7,

37,62,7,53,78,9,

37,62,9,53,78,8,

36,61,7,52,78,8,

36,61,7,52,78,7,

36,61,7,52,77,8,

35,60,8,52,77,8,

35,61,8,51,77,7,

35,60,7,51,76,7,

36,60,7,51,76,9,

35,60,8,51,76,7,

35,60,7,51,75,8,

35,59,7,51,75,7,

35,59,7,50,75,8,

35,59,8,50,75,7,

35,59,7,50,74,7,

35,59,8,49,74,8,

34,58,7,50,73,7,

34,58,7,50,73,9,

34,57,7,49,73,8,

34,57,7,49,73,7,

34,57,7,49,73,8,

34,57,8,49,71,8,

34,57,7,48,71,9,

33,57,8,48,71,7,

33,61,7,48,71,7,

33,67,7,47,71,8,

33,67,7,48,71,7,

33,66,7,48,71,7,

33,66,8,48,70,8,

33,66,9,47,70,7,

32,65,9,47,70,9,

33,65,7,47,69,7,

33,65,7,47,69,7,

32,64,7,47,69,9,

31,64,8,46,68,8,

31,63,7,46,68,8,

31,63,8,46,69,7,

31,63,7,45,68,8,

31,63,7,45,68,8,

31,63,7,45,67,8,

31,63,7,45,67,8,

31,62,8,45,67,7,

30,62,9,44,66,8,

31,61,9,45,67,7,

31,62,7,44,66,8,

30,61,8,45,66,7,

31,61,7,44,66,7,

30,60,7,44,66,8,

30,60,7,44,65,7,

30,60,7,44,64,7,

30,60,7,44,64,8,

29,60,9,44,64,7,

29,60,8,43,63,8,

29,60,9,43,63,8,

29,59,7,43,63,7,

29,60,7,42,63,7,

29,59,8,43,63,8,

29,59,8,42,63,7,

29,59,8,43,63,8,

29,59,7,42,63,8,

29,58,8,42,62,8,

28,57,8,41,62,7,

29,57,9,42,62,7,

28,57,7,41,61,9,

28,57,7,41,61,9,

28,57,9,41,61,8,

28,57,8,39,61,7,

28,57,7,41,61,7,

28,56,8,40,60,7,

27,56,7,40,60,9,

28,56,7,39,60,7,

28,56,8,39,59,7,

27,56,8,39,60,7,

27,55,8,39,60,8,

27,55,8,39,59,7,

27,55,8,39,59,8,

27,54,8,39,59,8,

27,56,7,39,59,9,

27,56,7,39,58,8,

26,56,7,39,57,7,

27,55,8,39,57,7,

27,56,7,39,57,8,

26,55,8,39,57,7,

26,54,9,39,57,8,

26,54,7,38,57,8,

26,54,7,38,57,7,

26,54,9,38,57,8,

26,54,8,38,56,8,

26,54,7,38,56,7,

25,53,8,37,56,7,

25,56,7,37,56,7,

25,55,7,37,56,7,

25,54,8,38,56,7,

25,54,9,37,55,7,

25,55,8,36,55,7,

25,55,7,37,55,7,

25,54,7,36,54,8,

25,54,8,36,54,8,

25,53,7,36,54,7,

25,53,8,36,54,7,

24,53,7,36,53,7,

25,53,7,35,53,7,

24,52,8,35,53,7,

24,63,7,35,53,7,

24,63,7,35,52,7,

24,63,8,35,53,8,

24,62,9,35,52,7,

24,62,7,35,53,8,

24,62,7,35,51,9,

24,62,7,35,52,8,

24,62,8,35,51,7,

24,62,8,35,51,8,

24,61,7,34,51,7,

24,60,7,34,51,8,

24,60,8,34,51,8,

24,63,9,34,51,8,

24,81,9,33,50,8,

23,81,8,34,50,7,

24,80,9,42,50,8,

23,80,7,42,50,8,

23,79,8,42,50,8,

23,79,8,42,49,7,

23,78,8,41,49,8,

23,79,7,41,49,7,

22,78,8,41,49,8,

23,77,7,41,49,8,

24,77,9,41,49,7,

22,77,8,40,48,8,

22,77,7,39,48,7,

22,77,7,39,48,8,

22,76,8,39,47,7,

22,76,7,39,48,7,

22,76,7,39,47,8,

22,75,7,39,48,7,

21,75,8,39,47,8,

22,75,8,39,47,8,

22,74,7,39,47,8,

22,74,7,39,47,8,

22,73,7,39,46,9,

22,73,7,39,46,9,

22,73,7,39,46,7,

22,73,7,38,46,7,

22,71,7,38,46,7,

22,72,7,63,46,7,

21,71,7,62,45,7,

22,71,7,62,46,7,

21,71,9,62,45,7,

21,71,7,61,45,7,

21,70,7,61,45,8,

21,70,8,61,45,7,

56,71,7,61,44,8,

55,70,7,61,44,8,

54,70,7,60,44,7,

55,69,7,60,44,7,

54,69,7,60,44,8,

54,69,7,59,44,7,

54,68,7,59,43,8,

53,67,8,59,43,8,

53,67,8,58,43,7,

53,67,7,59,43,7,

52,67,7,58,43,7,

52,67,7,57,43,8,

52,67,8,63,43,8,

51,67,9,63,43,8,

52,66,8,63,42,7,

51,66,9,62,42,7,

51,65,8,62,42,7,

51,65,7,62,41,9,

51,65,7,61,42,9,

51,65,9,61,41,8,

51,64,7,61,41,7,

50,64,7,60,41,8,

50,64,8,60,41,8,

50,63,8,60,41,7,

50,63,7,60,39,7,

50,63,9,60,40,7,

49,63,7,60,39,8,

49,63,8,59,39,8,

48,62,8,59,39,8,

49,63,7,58,39,9,

48,69,7,59,39,9,

48,110,7,58,39,9,

48,109,7,57,39,7,

48,108,7,58,39,7,

48,107,8,58,39,7,

47,107,7,57,39,7,

47,106,7,57,39,7,

46,106,7,56,38,7,

47,103,9,57,38,9,

46,105,7,56,38,8,

46,103,7,56,39,9,

46,103,7,56,91,9,

46,103,7,56,91,8,

46,103,7,56,90,7,

45,102,8,55,89,9,

45,102,7,55,89,7,

45,101,7,54,88,8,

45,100,7,54,88,9,

45,100,7,54,88,7,

45,99,7,54,87,7,

45,99,7,54,88,8,

47,99,9,54,87,7,

46,98,7,53,86,7,

46,99,7,54,86,7,

46,98,7,53,85,8,

45,97,8,53,85,7,

45,96,8,52,85,7,

45,96,7,51,83,7,

45,96,7,51,83,7,

45,96,7,51,83,7,

45,96,8,51,83,7,

45,95,8,51,82,8,

44,94,7,51,82,8,

44,94,9,51,82,7,

44,94,9,51,83,9,

63,94,7,50,82,7,

62,93,7,50,81,8,

62,93,7,50,81,7,

62,92,7,50,80,7,

61,92,8,50,80,9,

61,91,7,49,79,7,

61,91,8,49,79,9,

61,91,8,49,79,8,

60,90,8,49,79,8,

60,90,7,49,79,7,

60,89,7,48,78,9,

59,89,8,48,78,7,

59,89,8,48,78,8,

59,89,7,48,77,9,

59,88,8,48,77,7,

58,88,9,47,77,7,

58,88,9,48,77,8,

58,87,8,47,76,7,

57,87,8,47,76,9,

57,86,7,47,76,8,

57,86,8,46,75,8,

57,85,8,47,75,9,

57,85,8,46,74,7,

56,85,8,46,74,9,

56,85,9,97,74,9,

56,84,7,144,73,7,

56,83,9,143,73,8,

56,83,8,141,73,7,

55,83,9,141,72,8,

55,83,9,140,71,9,

55,116,9,139,71,7,

54,115,8,139,71,7,

54,115,8,138,71,7,

53,114,8,137,71,9,

54,113,7,135,70,7,

53,113,8,135,70,8,

52,112,7,135,71,7,

53,112,8,135,70,8,

53,111,7,134,69,7,

53,111,7,134,69,7,

52,110,8,133,69,7,

52,109,7,132,68,9,

53,109,8,131,68,9,

51,108,7,131,68,7,

51,108,7,130,67,8,

51,108,7,130,67,7,

51,106,7,129,67,7,

51,106,8,129,66,9,

50,106,7,127,67,8,

50,105,7,127,66,8,

50,105,9,127,66,8,

50,103,8,126,66,8,

50,103,8,126,65,7,

49,103,8,125,65,7,

49,103,8,124,65,9,

49,103,8,124,64,8,

49,102,7,123,63,7,

49,101,7,123,63,7,

48,101,7,122,63,9,

48,100,9,121,63,9,

48,100,7,121,63,7,

48,99,8,120,62,7,

48,99,8,120,63,8,

48,99,8,120,63,7,

47,98,8,120,62,9,

48,98,9,120,62,7,

48,98,8,119,61,7,

47,97,7,118,61,8,

47,97,8,117,61,7,

47,96,7,117,61,8,

46,96,8,116,60,7,

46,96,7,116,61,8,

46,95,7,115,60,9,

46,94,7,115,60,7,

60,94,9,115,60,9,

60,94,7,114,60,7,

58,93,7,114,60,9,

57,93,7,113,59,7,

58,99,9,113,59,8,

57,98,9,113,59,7,

57,98,9,112,58,8,

57,97,9,112,58,7,

57,97,7,111,58,7,

56,97,7,110,57,8,

56,96,8,110,58,7,

56,95,8,110,57,9,

56,95,8,109,57,9,

55,95,8,109,57,7,

56,95,7,109,57,7,

55,94,8,108,56,9,

56,97,7,108,56,7,

54,96,8,106,56,8,

54,96,7,107,56,7,

54,95,7,106,56,7,

54,95,7,105,56,7,

53,94,9,105,55,7,

53,94,8,105,56,7,

52,93,8,105,55,9,

71,93,8,103,54,7,

71,92,7,103,54,8,

71,92,7,103,54,7,

71,92,7,102,53,7,

71,91,7,102,53,8,

71,91,7,102,54,8,

70,91,7,101,53,7,

70,91,7,101,53,8,

70,89,7,101,52,7,

69,89,8,101,52,8,

69,89,7,99,51,7,

69,89,8,99,51,7,

68,88,7,99,51,7,

68,88,7,99,51,8,

68,87,8,98,51,8,

68,87,7,98,51,8,

67,87,7,98,51,7,

67,86,8,97,51,9,

66,86,7,97,50,7,

66,86,9,96,51,7,

66,85,9,153,50,9,

66,86,8,157,50,8,

65,85,9,156,50,8,

65,84,7,156,49,8,

65,84,8,154,50,8,

64,84,8,154,51,7,

64,83,9,153,50,7,

64,83,8,153,50,8,

63,83,7,152,50,7,

63,82,7,152,50,9,

63,82,7,150,49,7,

62,82,8,150,49,8,

62,81,8,149,49,7,

62,81,7,149,49,8,

62,81,8,147,49,8,

62,79,8,147,48,9,

61,80,8,146,48,7,

61,80,8,145,48,7,

61,79,8,145,47,8,

61,79,7,144,48,7,

61,79,8,143,48,8,

60,79,8,143,47,9,

60,82,7,143,47,7,

60,82,9,142,46,7,

59,81,7,141,46,7,

59,80,7,140,46,8,

59,79,7,140,46,9,

59,79,9,140,46,9,

58,79,7,139,46,8,

58,79,8,138,46,7,

58,79,7,138,46,7,

68,79,7,137,45,7,

72,78,7,135,45,8,

71,78,7,135,44,7,

71,77,7,135,45,7,

71,79,8,135,44,8,

71,97,8,135,44,8,

71,96,7,134,44,7,

70,96,8,133,44,8,

70,96,7,133,44,8,

70,95,7,132,44,7,

69,95,8,131,43,7,

69,94,9,131,43,7,

69,94,8,131,43,8,

69,94,8,130,43,7,

69,93,7,129,43,9,

67,93,8,129,43,7,

67,92,8,129,42,8,

68,92,8,127,71,8,

67,92,8,127,71,7,

66,91,7,127,71,7,

67,91,8,126,71,8,

66,89,7,126,70,8,

66,89,7,125,70,8,

65,89,7,125,70,8,

65,89,7,124,69,7,

65,88,7,124,69,7,

65,88,8,123,69,7,

65,88,7,123,68,7,

64,88,9,122,68,7,

63,87,8,121,67,8,

63,88,8,121,67,9,

63,86,7,121,68,7,

63,86,7,121,142,9,

63,86,9,120,155,7,

62,85,7,119,154,8,

62,84,8,119,153,7,

62,84,9,119,152,8,

61,84,8,118,152,7,

61,83,8,118,150,7,

61,83,9,117,149,8,

60,83,7,116,148,7,

61,83,8,115,147,7,

61,82,8,115,147,7,

60,81,8,115,146,8,

60,81,9,114,146,9,

59,80,9,114,145,7,

60,80,9,113,144,8,

59,80,7,113,143,7,

59,79,7,112,143,9,

59,79,7,112,142,8,

58,79,8,112,142,9,

57,79,7,111,140,7,

58,78,9,111,140,8,

58,78,7,110,140,7,

57,77,7,110,139,8,

57,77,9,109,138,7,

57,77,9,109,137,9,

56,76,7,108,137,7,

56,76,8,108,135,9,

56,76,9,108,135,8,

56,76,8,107,135,7,

56,75,8,107,134,7,

55,75,9,106,134,7,

55,75,8,105,133,8,

55,74,7,105,133,7,

56,74,8,103,131,7,

55,73,7,104,131,7,

54,73,8,103,131,7,

54,71,8,103,130,8,

54,71,7,103,130,8,

53,71,7,102,129,7,

53,71,7,102,128,7,

54,71,7,101,127,8,

53,71,9,101,127,8,

53,71,7,101,126,9,

53,70,8,101,126,8,

52,70,7,100,126,7,

53,70,8,99,125,8,

52,70,9,99,125,8,

52,70,7,98,124,7,

51,70,8,99,124,7,

51,69,9,98,122,7,

51,69,7,98,122,7,

51,68,8,97,122,8,

50,68,9,97,121,8,

50,68,7,96,121,7,

50,68,9,103,121,9,

50,67,7,109,120,8,

50,67,8,115,119,8,

49,67,8,114,119,8,

50,67,7,114,118,8,

49,66,7,113,118,9,

48,66,8,113,117,7,

48,65,8,112,117,7,

49,65,8,112,116,7,

48,65,9,111,115,7,

48,65,7,110,115,7,

48,65,7,110,115,7,

47,64,7,110,115,7,

48,64,7,109,113,8,

47,63,9,109,113,8,

47,63,7,108,113,8,

46,63,9,108,112,8,

46,63,8,108,112,9,

46,63,7,107,112,8,

46,62,7,106,111,7,

46,62,8,106,110,7,

46,62,7,105,110,7,

46,61,7,103,109,7,

45,61,7,103,109,9,

45,61,9,103,108,7,

45,60,7,103,108,9,

45,60,8,103,107,7,

44,60,8,102,107,8,

44,60,7,102,106,7,

44,60,7,102,106,8,

44,60,7,101,105,8,

43,59,9,101,105,8,

43,59,7,101,105,8,

44,59,9,100,103,7,

51,58,8,99,103,8,

50,58,7,99,103,7,

50,58,7,99,103,8,

49,57,7,98,103,7,

50,57,8,98,102,7,

49,57,7,97,102,7,

49,57,7,97,101,7,

49,57,7,97,101,8,

49,57,7,96,100,7,

48,56,7,96,101,7,

71,56,8,96,100,9,

73,56,9,95,99,7,

73,56,8,95,99,7,

71,55,7,94,99,8,

71,56,7,94,98,7,

71,55,7,94,98,9,

71,55,8,94,98,9,

71,55,8,93,97,7,

71,55,8,92,97,7,

70,54,9,92,96,8,

71,54,7,92,96,8,

70,53,7,92,96,8,

70,53,8,91,96,8,

69,53,9,91,95,9,

69,53,7,91,95,7,

69,53,8,91,94,8,

68,53,8,91,94,7,

67,53,7,89,93,7,

67,52,7,89,93,7,

67,52,8,89,93,7,

67,51,7,89,92,7,

67,51,8,88,92,7,

66,51,8,88,92,7,

66,51,8,88,92,7,

66,51,7,88,91,7,

66,51,8,88,91,8,

66,50,7,87,91,9,

65,50,7,87,90,7,

64,50,7,87,90,9,

65,50,7,86,89,8,

65,50,8,85,89,7,

64,50,7,85,89,8,

63,56,7,85,88,7,

63,56,9,85,88,7,

63,56,7,84,88,7,

63,56,8,84,88,8,

63,55,8,84,87,9,

62,56,7,83,86,8,

62,55,8,83,86,8,

62,55,8,83,87,8,

61,55,7,82,86,7,

61,54,8,82,85,7,

61,54,7,82,85,8,

61,53,8,81,84,9,

61,53,8,82,84,7,

60,53,7,81,84,7,

61,53,8,81,84,8,

60,52,7,81,83,7,

60,52,8,80,83,7,

59,52,7,80,83,8,

59,52,8,85,83,8,

59,51,9,85,123,8,

59,52,7,84,172,9,

59,51,8,83,175,7,

58,51,9,83,174,8,

58,51,8,83,172,8,

57,51,8,82,171,8,

57,50,7,82,171,8,

57,52,8,81,170,8,

57,51,7,81,169,7,

57,51,7,81,167,8,

56,51,7,81,167,8,

56,50,9,81,167,8,

56,50,7,80,166,8,

56,50,7,79,165,8,

62,50,8,79,164,7,

62,49,7,79,163,8,

61,49,7,79,163,7,

61,49,8,78,162,7,

60,49,9,78,161,7,

60,49,7,78,161,8,

60,48,9,78,159,7,

60,48,8,77,159,7,

59,48,7,77,159,7,

59,48,9,77,158,8,

59,47,7,77,157,9,

59,47,7,76,156,7,

58,47,7,76,156,8,

60,48,7,76,155,7,

60,47,7,76,154,7,

59,48,7,75,153,8,

59,47,7,75,153,7,

59,46,7,74,152,8,

59,46,9,75,152,8,

58,46,7,74,151,7,

58,46,7,74,151,7,

58,45,7,73,150,9,

57,46,7,73,149,8,

57,45,7,72,149,9,

57,45,7,72,147,8,

57,44,8,72,147,7,

56,44,7,71,146,9,

56,44,8,71,146,9,

56,45,8,71,145,9,

56,45,8,71,143,8,

56,47,8,71,143,7,

56,46,7,71,143,7,

55,46,8,71,142,7,

54,46,7,70,142,9,

55,46,7,70,141,8,

54,46,8,70,141,8,

54,45,8,69,140,9,

54,45,7,69,140,8,

54,45,9,69,139,7,

53,45,9,69,139,7,

53,45,7,68,138,7,

53,44,7,68,137,7,

53,44,7,68,135,7,

52,48,9,67,135,7,

52,48,7,67,135,7,

52,48,7,67,135,8,

51,48,7,66,134,8,

51,47,8,67,134,7,

51,46,7,66,134,8,

50,47,7,66,133,7,

50,46,8,66,132,9,

51,46,7,65,131,7,

50,46,7,65,131,7,

50,46,7,65,130,8,

50,46,7,65,130,7,

50,45,7,64,130,8,

49,45,8,65,129,7,

49,45,8,63,128,7,

49,45,7,63,127,7,

49,45,8,63,127,9,

49,44,8,63,126,7,

48,44,7,63,126,8,

48,44,7,63,126,7,

50,45,8,63,125,7,

51,44,7,62,124,8,

51,43,7,62,124,8,

51,43,7,62,124,7,

51,44,8,61,124,8,

50,43,8,61,123,7,

50,42,7,61,122,7,

50,42,7,61,121,7,

49,42,8,60,121,7,

50,42,7,61,121,8,

49,42,7,60,120,8,

49,41,7,60,120,7,

48,42,8,60,120,8,

48,41,8,59,119,7,

48,41,7,60,119,8,

48,42,8,59,118,9,

48,43,9,59,117,9,

48,46,8,59,117,7,

48,45,7,59,117,7,

47,45,7,58,116,8,

47,45,7,58,115,8,

47,45,7,57,115,8,

48,45,9,58,116,8,

61,45,9,90,115,9,

60,44,8,97,115,8,

59,44,8,96,115,7,

59,44,8,96,115,8,

59,43,9,96,113,7,

59,44,7,95,113,7,

59,43,8,95,113,7,

58,43,7,94,112,7,

58,43,7,93,112,8,

57,43,7,93,112,7,

57,43,8,93,111,8,

57,42,7,92,111,7,

56,42,8,92,110,8,

57,42,7,91,110,9,

68,42,8,91,110,8,

69,41,8,90,109,7,

67,41,8,91,108,8,

67,41,9,89,109,8,

67,41,7,89,108,8,

67,41,7,89,107,8,

67,39,7,89,107,8,

67,40,7,88,106,7,

66,39,8,88,105,7,

66,39,7,88,105,8,

65,39,8,87,105,8,

65,39,7,87,103,7,

64,39,7,87,103,7,

64,39,8,86,103,8,

64,39,7,86,103,7,

63,39,7,85,103,7,

63,39,8,84,103,7,

63,39,7,85,103,9,

63,39,8,84,102,7,

63,39,9,83,101,7,

62,39,7,83,101,8,

62,39,7,83,100,8,

62,39,9,83,100,7,

62,39,9,83,100,7,

73,39,7,82,99,9,

73,38,7,82,99,8,

72,38,7,81,99,7,

72,38,7,81,98,8,

71,39,8,81,99,7,

71,78,9,80,98,8,

71,77,8,80,97,8,

71,77,9,79,97,9,

71,76,8,79,96,9,

71,76,9,79,96,7,

71,75,9,79,96,9,

70,76,8,79,96,7,

70,75,9,78,95,8,

69,75,7,79,94,7,

94,75,8,78,94,7,

93,74,9,96,94,9,

93,73,9,96,94,7,

92,73,8,96,94,7,

92,85,7,95,93,8,

91,85,8,94,93,9,

90,84,9,94,92,7,

90,84,7,94,93,8,

89,83,7,94,92,7,

89,83,7,93,92,8,

88,83,8,92,91,7,

89,82,9,92,91,7,

88,82,7,92,90,9,

88,81,8,92,90,7,

87,81,7,91,90,8,

87,81,8,90,89,7,

86,80,7,90,89,8,

86,93,9,90,89,7,

85,91,7,89,88,7,

86,92,7,89,89,9,

85,91,8,89,88,7,

85,90,7,89,87,7,

84,90,9,88,87,8,

83,90,7,87,87,7,

83,89,8,87,87,9,

83,89,9,87,86,8,

83,89,8,86,86,8,

83,88,7,86,85,8,

82,88,7,86,86,8,

82,87,7,85,85,8,

81,87,7,85,85,7,

82,86,7,85,83,7,

81,86,7,84,83,7,

80,86,8,84,84,7,

80,85,9,84,83,7,

79,85,7,83,83,7,

80,85,8,83,88,7,

79,85,8,83,88,7,

78,83,7,82,88,7,

79,83,7,82,87,9,

78,83,7,82,87,7,

78,83,7,81,86,7,

78,83,8,81,86,7,

77,82,7,81,86,7,

77,82,8,80,85,7,

76,81,8,79,85,9,

76,81,9,80,85,9,

76,80,9,79,84,7,

75,79,8,79,84,7,

76,79,9,78,84,8,

75,80,7,79,83,7,

75,79,7,79,83,8,

78,79,9,78,83,8,

78,79,8,78,83,7,

77,78,8,77,82,9,

77,78,7,77,82,7,

76,77,8,77,81,9,

76,78,7,76,81,9,

76,77,7,76,81,7,

76,77,8,76,80,7,

75,77,7,76,79,7,

75,76,7,76,79,8,

74,76,7,75,79,7,

90,75,7,76,79,9,

147,75,9,75,79,7,

146,75,7,74,78,8,

144,75,9,74,79,8,

143,74,7,74,78,9,

143,74,7,73,77,7,

142,74,7,73,78,7,

141,73,9,72,77,7,

141,73,8,73,77,8,

140,71,7,73,77,7,

140,72,7,73,77,8,

139,72,8,71,76,9,

138,71,9,71,76,8,

137,71,7,71,76,8,

137,71,7,71,75,9,

137,71,8,71,75,7,

135,71,9,71,75,7,

135,76,7,70,74,9,

134,75,8,71,74,9,

134,75,8,70,73,8,

133,75,8,70,74,9,

133,75,8,121,76,7,

132,73,9,120,76,7,

131,73,8,119,76,7,

131,74,8,118,75,9,

130,73,8,118,75,7,

130,73,8,117,75,8,

129,72,8,117,73,7,

128,72,9,116,74,7,

127,71,7,115,73,7,

127,71,9,114,73,7,

127,71,7,114,73,7,

126,71,7,114,71,7,

125,70,8,113,71,7,

125,70,7,113,71,8,

124,69,8,112,71,8,

124,69,7,112,71,9,

123,69,8,111,71,9,

123,69,7,111,70,8,

122,68,8,110,70,7,

121,67,9,110,70,8,

121,67,8,109,70,8,

120,67,8,109,69,7,

120,67,7,108,69,8,

120,67,7,108,69,7,

119,66,8,107,69,8,

118,66,9,107,69,7,

118,66,7,106,68,8,

117,65,8,105,68,8,

116,65,7,105,67,8,

116,65,8,105,67,8,

115,64,9,104,67,8,

115,64,7,103,67,7,

115,64,9,103,66,9,

114,66,8,103,67,9,

114,66,9,103,125,9,

114,65,7,102,166,8,

112,65,7,102,165,9,

112,65,7,101,164,8,

112,65,8,101,163,7,

111,63,7,100,162,7,

110,63,8,99,161,7,

110,63,7,99,160,7,

110,63,8,99,159,7,

109,63,7,98,159,8,

109,73,8,98,158,7,

109,73,7,98,157,7,

108,71,7,97,156,8,

108,71,7,97,155,7,

107,71,9,96,154,7,

107,71,8,96,154,7,

106,71,9,96,152,7,

105,71,8,95,152,7,

105,71,7,95,152,7,

103,71,7,94,151,7,

104,70,7,94,150,9,

103,69,8,93,149,7,

103,69,8,93,148,7,

103,69,8,93,148,7,

102,69,7,92,147,8,

102,68,7,92,146,8,

101,68,7,91,146,7,

101,67,8,91,145,9,

101,67,7,91,145,7,

100,67,8,90,143,7,

99,66,9,89,143,7,

99,66,8,90,143,7,

99,66,7,89,142,7,

99,66,8,89,142,7,

98,65,9,88,141,7,

98,65,9,88,140,8,

97,65,8,88,140,7,

97,65,8,88,139,7,

97,64,8,87,139,9,

96,63,8,86,138,8,

96,63,9,87,137,7,

96,63,8,86,137,9,

127,63,7,86,135,8,

126,63,9,85,135,9,

126,62,7,85,135,8,

125,62,8,85,135,8,

124,62,7,85,134,7,

124,62,7,83,133,8,

123,61,7,83,132,9,

122,61,8,83,132,8,

122,61,9,83,131,9,

121,60,7,82,131,7,

121,60,7,82,130,8,

120,60,7,82,130,7,

120,60,8,82,129,9,

119,59,8,81,129,8,

119,59,7,81,128,7,

118,59,9,79,127,7,

118,59,9,80,127,7,

116,58,9,80,126,7,

115,57,8,79,126,7,

115,57,7,79,125,7,

115,58,8,79,124,7,

114,57,7,78,124,7,

114,57,7,78,123,7,

113,56,7,77,123,8,

113,57,7,77,122,7,

112,56,8,77,122,7,

112,56,7,77,121,8,

112,56,8,76,121,7,

111,59,7,76,120,7,

110,58,7,76,120,8,

110,57,7,75,120,9,

110,57,9,76,134,7,

109,57,8,75,137,7,

108,57,9,74,135,8,

108,57,7,74,135,7,

107,56,9,73,134,7,

107,56,8,74,134,9,

106,56,8,73,134,8,

106,55,9,73,132,8,

106,56,9,71,132,7,

105,56,7,73,131,7,

103,55,7,73,131,7,

103,55,8,71,130,8,

103,54,7,71,129,9,

103,54,8,71,129,7,

103,54,7,71,127,7,

102,53,7,70,127,7,

102,53,7,71,127,7,

102,53,8,70,126,8,

101,54,7,71,126,7,

100,52,9,71,125,7,

99,52,8,71,124,7,

99,52,8,71,124,8,

99,51,8,71,124,7,

99,52,7,71,123,8,

99,51,9,71,122,9,

98,51,7,71,122,7,

98,51,8,70,121,7,

97,51,8,70,120,8,

97,50,7,70,120,8,

96,50,9,69,120,7,

96,50,7,69,119,9,

96,50,8,69,119,9,

96,98,9,69,118,7,

95,98,7,69,118,7,

94,97,7,68,117,7,

94,97,7,68,117,9,

94,96,9,74,116,9,

93,96,8,73,116,7,

93,96,9,73,115,8,

93,96,7,73,115,8,

105,95,7,71,114,8,

103,93,8,71,114,8,

103,93,7,71,114,7,

103,93,8,71,113,9,

103,92,8,71,113,9,

102,92,7,71,112,8,

102,92,7,70,112,9,

102,92,7,70,111,7,

101,91,9,70,111,7,

100,90,7,69,110,9,

100,90,8,69,110,8,

99,89,7,69,109,8,

99,89,7,68,108,7,

98,89,8,68,108,7,

98,89,8,67,108,8,

98,88,7,67,108,8,

98,88,7,67,107,8,

97,88,7,67,107,7,

97,87,8,66,106,7,

96,86,8,66,106,8,

96,86,7,66,105,7,

96,85,8,66,105,8,

95,85,7,66,105,7,

94,85,7,65,103,7,

94,85,8,65,103,7,

94,84,7,65,103,9,

93,83,9,64,103,7,

93,83,7,64,103,7,

92,82,7,64,103,8,

92,82,9,63,102,9,

92,82,7,63,101,7,

91,81,7,63,101,7,

90,81,7,63,100,8,

90,81,9,63,100,7,

90,81,8,62,99,8,

89,79,7,62,99,7,

89,80,8,62,99,7,

89,80,7,63,99,8,

89,79,9,61,99,9,

89,79,7,61,98,8,

89,79,8,61,97,8,

88,78,8,61,97,8,

88,79,7,63,97,9,

87,78,7,102,124,9,

88,78,9,135,215,8,

87,77,8,135,211,9,

86,76,7,134,211,8,

86,76,7,134,210,8,

85,76,8,133,207,9,

85,76,9,132,207,7,

85,76,9,131,205,8,

84,75,9,131,205,7,

84,75,7,130,203,7,

83,74,8,129,203,7,

83,73,7,129,201,7,

83,73,9,128,200,7,

82,73,9,127,199,8,

83,73,7,127,199,7,

82,71,8,126,198,9,

81,71,7,126,197,9,

81,72,7,125,195,8,

80,71,8,125,195,8,

80,71,7,124,194,7,

80,71,9,124,193,8,

79,71,7,123,192,7,

79,71,9,123,191,8,

79,83,8,122,190,7,

79,83,7,121,189,8,

79,82,8,121,189,7,

78,82,9,120,187,9,

77,82,7,120,187,7,

78,81,8,120,185,9,

78,81,9,119,185,9,

77,81,7,118,184,8,

77,80,7,118,183,7,

76,79,9,117,183,7,

76,79,9,117,182,7,

76,79,8,116,181,7,

76,78,9,115,179,7,

75,78,8,115,179,8,

75,78,9,115,178,9,

75,78,9,114,177,9,

74,78,9,114,177,9,

74,77,9,114,176,9,

107,77,9,113,176,8,

113,76,8,112,175,8,

112,76,9,112,174,9,

112,76,8,111,173,7,

111,76,9,111,172,9,

111,75,9,110,171,9,

110,75,9,110,170,8,

109,75,9,109,169,8,

109,73,9,109,167,9,

109,73,9,108,167,9,

108,73,9,108,167,9,

108,73,9,108,167,9,

107,72,9,107,166,9,

107,71,9,106,165,9,

106,71,9,106,165,9,

105,71,9,105,163,9,

103,71,9,105,163,9,

103,71,9,103,162,9,

103,71,9,103,161,9,

103,70,9,103,161,9,

103,70,9,103,159,9,

102,69,10,103,159,9,

102,69,9,103,158,9,

101,69,9,102,158,10,

101,68,9,102,157,9,

99,67,9,101,156,9,

100,68,9,100,155,9,

99,67,9,100,155,9,

99,67,9,99,154,9,

98,67,9,99,153,9,

98,66,9,98,152,9,

97,66,9,98,152,9,

96,65,9,98,151,9,

96,65,9,97,151,9,

96,65,9,97,149,9,

96,65,9,97,150,9,

95,64,9,96,149,9,

95,64,9,96,149,9,

94,67,10,96,147,9,

94,67,10,95,147,9,

94,66,10,95,146,9,

93,67,9,94,146,9,

92,66,9,93,145,9,

92,66,9,94,145,9,

92,66,9,93,143,9,

91,65,9,92,143,9,

91,65,9,92,143,8,

91,65,9,92,142,9,

90,65,9,92,142,9,

90,64,9,91,141,9,

90,64,9,91,141,9,

89,63,9,91,140,9,

89,63,9,90,140,9,

89,63,9,89,139,9,

88,63,9,90,138,8,

87,63,9,89,137,8,

88,62,9,89,137,8,

87,62,9,88,135,9,

87,62,9,88,135,9,

86,62,9,88,135,7,

86,62,9,88,135,7,

86,61,9,88,134,9,

85,61,9,88,134,9,

85,61,9,86,134,9,

84,60,9,86,133,9,

84,60,9,86,132,9,

83,60,9,85,132,8,

83,60,9,85,131,9,

83,59,9,84,131,8,

82,59,9,84,130,8,

82,59,8,84,130,9,

82,59,9,84,129,9,

81,59,9,83,128,9,

81,58,9,83,127,9,

81,59,9,82,127,9,

81,58,9,82,127,8,

81,58,9,82,127,8,

79,57,9,82,126,9,

80,57,8,81,125,9,

79,57,9,81,125,9,

79,57,9,81,125,9,

78,57,9,79,124,8,

79,56,8,80,124,9,

78,56,8,79,123,9,

78,55,9,79,123,8,

78,56,9,79,122,7,

77,56,7,79,122,9,

77,57,9,79,122,7,

77,112,8,78,121,9,

76,110,9,78,120,8,

76,110,9,77,120,9,

76,110,9,77,120,9,

75,109,8,77,119,9,

76,108,8,77,119,9,

74,108,9,76,118,8,

75,107,9,76,117,7,

73,107,9,76,117,9,

73,106,9,75,117,7,

73,105,9,75,116,9,

74,107,9,75,115,9,

73,135,9,75,115,9,

71,134,9,74,115,9,

71,133,9,74,114,7,

71,131,9,73,114,9,

71,131,8,73,113,9,

71,131,8,73,113,9,

71,130,7,72,112,8,

71,129,9,71,112,8,

71,128,7,71,112,7,

71,127,7,71,111,9,

70,127,9,71,111,9,

71,127,9,71,110,8,

69,126,9,71,110,9,

70,126,7,71,109,9,

69,125,7,71,109,8,

69,124,9,70,108,9,

69,124,7,70,108,8,

68,123,7,70,107,8,

67,123,9,69,107,9,

68,122,9,69,106,9,

67,121,9,68,106,7,

67,121,9,69,106,8,

67,120,9,68,105,7,

67,120,9,68,105,8,

66,119,9,67,103,8,

66,119,8,67,103,9,

66,118,8,67,103,9,

66,117,9,67,103,9,

66,117,7,66,102,9,

65,117,7,66,102,7,

65,115,8,65,102,8,

64,115,9,65,101,8,

65,115,9,65,101,9,

64,114,7,65,101,7,

64,114,9,65,100,8,

63,140,9,64,100,8,

63,138,8,64,99,7,

63,137,9,63,99,7,

63,137,8,63,99,9,

62,135,8,63,99,8,

62,135,8,63,98,9,

73,135,8,63,98,9,

71,135,8,62,97,7,

71,134,9,62,103,9,

72,133,9,88,229,9,

71,132,9,97,319,9,

71,132,8,97,391,8,

71,131,7,96,388,8,

70,130,9,95,385,7,

70,129,9,94,382,7,

69,129,8,94,380,9,

69,129,7,94,377,9,

74,128,9,93,376,7,

78,127,8,93,372,9,

77,126,9,93,371,7,

77,126,9,92,369,7,

117,125,9,114,367,9,

116,125,8,180,364,8,

115,124,7,177,366,7,

114,124,7,176,367,8,

113,123,7,174,364,8,

113,122,7,173,362,7,

112,121,8,172,359,8,

111,121,7,171,358,8,

111,120,7,170,355,7,

110,120,8,169,353,9,

110,119,8,168,351,8,

109,118,8,167,348,7,

108,117,7,167,347,8,

108,118,8,166,345,8,

108,117,7,165,343,9,

107,117,7,164,340,7,

107,119,7,163,339,9,

106,118,8,163,337,9,

105,118,9,162,335,7,

104,117,7,161,333,7,

103,117,7,160,331,7,

103,115,9,159,329,7,

103,115,9,159,327,9,

103,115,9,159,326,9,

102,115,9,157,324,9,

102,115,9,157,323,9,

102,113,9,156,321,9,

101,113,9,155,319,9,

101,112,9,155,318,9,

99,112,9,154,316,9,

99,111,9,153,314,9,

99,111,9,152,313,9,

99,110,9,152,311,9,

98,110,9,151,310,9,

97,109,9,152,313,9,

97,109,9,150,312,9,

97,108,10,149,311,9,

96,108,9,148,308,9,

96,107,9,147,307,9,

96,107,9,147,305,9,

95,106,9,146,304,10,

95,105,10,146,302,10,

94,105,9,145,301,9,

94,105,10,143,299,10,

93,103,10,143,297,10,

93,103,10,143,295,10,

92,138,11,143,294,11,

92,141,10,141,292,11,

92,140,11,142,291,11,

91,139,11,143,289,11,

91,138,10,142,287,10,

90,137,11,141,286,10,

89,135,11,141,284,11,

89,135,11,140,283,10,

89,135,11,139,282,11,

88,134,11,139,280,11,

88,133,11,137,279,11,

87,132,11,137,277,11,

87,132,11,135,275,11,

87,131,11,135,274,11,

86,130,11,135,273,11,

86,130,11,134,271,11,

85,129,11,134,270,10,

84,128,11,133,269,11,

84,127,11,133,267,11,

83,127,11,132,265,11,

83,126,11,131,263,11,

83,126,12,131,263,11,

83,142,11,130,262,11,

82,141,11,130,260,11,

82,139,11,127,259,10,

81,139,11,127,258,11,

82,139,11,164,298,12,

90,138,12,249,438,11,

125,137,12,246,534,11,

123,135,11,244,527,11,

122,135,11,242,524,11,

121,134,11,241,519,12,

121,133,10,239,514,11,

120,132,11,238,509,11,

120,131,10,236,505,11,

119,131,11,236,502,12,

119,131,12,235,498,12,

118,131,11,233,494,12,

117,130,12,231,491,12,

116,129,12,231,487,12,

115,128,12,229,483,12,

115,127,12,227,480,12,

114,127,12,227,476,12,

114,127,12,225,473,12,

113,126,12,224,469,12,

113,125,13,222,466,13,

112,124,13,222,462,13,

112,123,14,220,460,13,

111,123,13,220,455,14,

110,121,14,218,453,14,

110,121,14,217,451,14,

109,120,14,216,448,14,

108,120,14,215,444,15,

108,120,14,213,440,14,

107,119,14,212,437,15,

107,118,15,211,435,15,

107,118,15,210,432,15,

105,117,15,209,429,15,

105,116,15,207,426,15,

103,115,15,206,423,15,

104,115,15,205,421,16,

103,115,15,204,418,15,

102,114,15,204,415,15,

102,114,15,203,412,15,

102,113,16,201,410,15,

102,112,16,201,408,15,

101,112,17,199,405,16,

101,112,16,199,403,17,

100,112,16,198,399,17,

99,111,16,197,398,17,

99,110,17,196,395,17,

99,109,17,195,393,17,

98,109,17,194,393,18,

97,109,18,193,391,17,

97,108,18,192,388,18,

96,107,18,191,386,19,

96,107,18,190,384,18,

96,107,18,189,383,19,

159,106,19,188,379,19,

157,105,19,188,377,20,

155,158,19,187,375,19,

154,156,19,185,373,19,

153,155,19,185,371,19,

152,153,19,184,368,19,

151,153,19,183,366,19,

151,152,20,182,364,20,

149,151,20,180,363,19,

149,150,19,180,359,20,

148,149,19,179,358,19,

147,149,20,178,355,20,

146,148,20,177,353,20,

145,147,19,177,352,20,

144,146,19,176,350,21,

143,145,19,175,347,20,

143,143,19,174,345,20,

143,143,20,173,344,21,

141,143,19,172,342,20,

141,141,20,172,339,20,

140,141,19,171,337,19,

139,141,20,169,335,19,

138,140,19,169,334,20,

137,139,19,167,332,19,

137,137,19,167,330,19,

135,137,19,167,327,20,

135,136,19,165,326,20,

135,135,19,165,325,19,

134,135,19,164,323,19,

133,135,19,163,321,19,

132,134,19,162,319,19,

132,133,19,161,317,19,

130,132,19,161,316,19,

130,131,19,159,313,19,

129,131,19,159,312,19,

129,130,19,158,311,19,

128,130,19,158,309,19,

127,129,19,157,307,19,

127,127,19,156,306,19,

126,127,18,156,304,19,

126,173,19,155,302,18,

125,221,18,153,301,19,

124,219,19,153,299,18,

123,217,18,152,297,18,

123,216,18,152,295,18,

123,215,19,152,294,18,

121,213,18,150,293,18,

121,211,18,150,291,19,

209,210,18,148,289,18,

206,209,17,147,287,18,

204,207,17,147,286,18,

202,207,17,147,284,18,

201,205,17,145,283,17,

199,204,17,145,281,17,

199,203,17,144,280,17,

198,201,17,143,280,17,

196,201,17,143,278,17,

195,199,17,142,276,16,

194,199,17,141,275,17,

193,197,16,141,273,17,

192,196,17,140,271,17,

190,195,16,139,270,17,

190,193,16,139,269,17,

189,193,16,138,268,17,

187,192,16,137,267,17,

186,191,16,137,265,17,

185,190,15,135,263,15,

184,189,16,135,262,16,

184,188,16,135,260,17,

182,187,16,135,259,16,

181,185,16,134,258,15,

179,185,16,133,257,16,

179,184,15,132,255,15,

178,183,15,131,254,16,

177,182,16,132,254,16,

177,181,17,131,253,16,

176,180,15,131,251,16,

175,179,15,130,250,16,

175,179,16,139,253,16,

174,178,16,166,277,17,

172,176,16,164,275,15,

171,176,16,163,273,15,

171,175,15,162,271,16,

169,174,15,161,270,16,

167,172,15,160,268,15,

167,172,16,159,267,16,

167,172,16,159,265,16,

166,170,16,158,263,16,

165,169,15,157,262,15,

164,167,16,156,260,15,

163,167,15,155,259,15,

162,167,15,155,257,16,

162,166,15,154,255,15,

161,165,15,153,254,15,

159,164,15,152,252,15,

159,163,15,152,252,16,

158,163,16,150,250,15,

157,161,15,150,248,15,

157,161,16,149,248,15,

156,159,15,148,246,16,

156,159,15,147,244,15,

155,158,16,147,243,15,

154,157,15,145,242,16,

153,156,15,145,240,15,

152,155,15,143,239,15,

150,155,15,143,238,16,

150,154,15,141,237,15,

149,153,15,141,236,15,

147,152,15,141,235,15,

147,151,15,140,233,15,

146,150,15,139,231,15,

146,150,15,139,231,15,

145,149,15,137,230,15,

145,148,15,137,271,14,

143,147,15,135,268,15,

143,146,15,135,267,15,

143,146,14,135,265,15,

142,145,15,134,263,14,

141,143,15,134,262,14,

140,143,14,133,260,14,

139,143,14,132,258,15,

139,142,14,131,256,15,

138,141,14,131,255,14,

137,141,14,131,254,14,

135,140,14,130,253,14,

182,139,13,129,251,14,

180,139,14,128,249,14,

179,139,14,127,248,14,

178,137,14,127,246,14,

177,137,14,126,245,14,

176,135,14,126,243,14,

175,135,14,125,242,14,

174,135,14,124,241,14,

173,134,14,125,239,13,

172,133,13,123,237,14,

171,131,13,123,237,13,

169,131,13,122,235,13,

167,131,13,121,234,14,

167,131,13,121,231,13,

167,130,13,120,231,12,

166,129,13,120,229,13,

164,127,13,120,228,13,

163,127,13,119,227,13,

163,127,13,118,226,13,

162,126,13,117,225,13,

161,126,12,117,224,12,

160,125,13,116,223,13,

159,124,13,116,222,13,

158,124,13,115,221,13,

157,124,13,115,220,12,

157,123,13,115,219,13,

156,122,13,113,217,13,

155,121,12,114,216,12,

154,120,12,113,216,12,

153,120,12,112,215,12,

152,120,12,112,214,12,

152,119,12,111,213,13,

152,119,12,110,227,13,

151,127,12,110,225,12,

149,146,13,110,223,12,

148,145,12,109,222,12,

147,143,12,109,220,12,

147,143,12,108,219,12,

146,142,12,108,218,12,

145,141,12,107,217,12,

145,140,12,107,216,12,

143,140,12,107,215,12,

143,139,12,105,213,12,

142,138,12,105,211,12,

142,137,12,105,211,11,

141,135,12,103,210,12,

140,135,12,103,209,12,

139,135,12,103,207,11,

139,135,12,103,207,12,

138,133,11,103,206,12,

137,132,11,102,205,12,

135,132,12,102,204,12,

136,131,11,101,203,12,

135,130,12,101,202,12,

135,130,12,100,199,12,

134,129,11,99,199,12,

133,128,12,99,199,11,

133,127,11,99,198,11,

132,127,11,99,197,11,

131,126,12,98,197,11,

130,126,11,98,195,11,

130,125,12,97,195,12,

129,124,11,97,194,12,

129,124,12,96,193,11,

127,123,11,96,192,12,

127,122,11,96,191,12,

127,122,12,96,190,11,

126,121,11,95,190,11,

125,120,11,95,189,11,

125,120,10,94,188,11,

124,120,11,94,187,11,

124,119,11,93,186,11,

123,118,11,93,185,11,

123,117,11,92,185,12,

123,117,11,92,184,11,

121,116,11,92,183,11,

121,115,11,92,182,11,

120,115,11,91,182,10,

120,115,11,90,181,11,

120,114,11,90,179,11,

119,113,11,89,179,11,

118,113,11,89,178,11,

118,113,10,89,177,11,

117,112,11,89,176,11,

117,111,11,88,176,11,

116,111,11,88,175,10,

115,111,11,88,174,11,

115,110,11,87,173,11,

114,109,11,87,173,10,

114,109,11,86,172,11,

113,108,10,86,171,10,

113,108,11,85,170,11,

112,108,11,85,169,11,

112,107,11,85,169,11,

111,106,10,84,167,11,

110,106,10,83,167,11,

110,105,11,83,167,11,

109,105,10,83,166,10,

109,103,11,83,166,11,

109,103,11,83,165,10,

108,103,10,82,164,11,

108,103,10,82,163,10,

107,103,11,81,163,11,

107,102,11,81,162,10,

106,102,10,81,161,11,

105,101,11,80,160,11,

105,100,11,79,159,10,

104,100,10,80,159,11,

103,99,11,79,158,10,

103,99,10,79,158,11,

103,99,11,78,157,10,

103,98,10,86,156,10,

102,98,10,85,156,10,

102,97,10,85,156,10,

102,98,10,84,155,10,

101,115,10,83,154,9,

101,114,10,83,153,10,

100,113,10,83,152,10,

99,113,10,83,152,10,

99,112,10,82,152,11,

99,112,10,81,152,10,

98,111,9,81,150,10,

98,110,10,81,150,10,

98,110,10,80,149,10,

97,110,10,79,148,10,

97,108,9,79,148,10,

96,108,10,79,147,10,

96,108,10,79,146,10,

96,107,10,79,182,11,

95,107,11,78,287,10,

94,105,9,77,284,9,

94,105,10,77,282,9,

93,103,9,77,281,9,

93,103,9,76,280,9,

92,103,10,76,277,9,

92,102,9,76,275,9,

92,102,9,76,274,10,

91,102,9,75,272,9,

91,101,9,75,271,9,

91,100,9,75,270,9,

90,100,9,75,268,9,

90,100,10,74,268,9,

89,99,9,73,265,9,

