
20,23,4,38,7,4,

20,22,4,39,7,3,

19,23,3,38,7,4,

19,23,3,38,7,3,

19,22,3,38,6,4,

20,22,4,38,7,3,

19,22,3,37,7,3,

19,23,4,38,7,3,

19,22,4,38,7,3,

19,22,3,38,7,3,

25,25,3,37,7,3,

25,24,3,37,7,3,

25,24,3,36,6,3,

25,24,3,37,6,4,

25,24,3,37,7,4,

25,24,3,36,7,4,

24,24,3,35,6,3,

24,24,3,35,7,3,

24,24,3,35,6,3,

24,24,3,35,7,3,

24,23,3,35,7,3,

24,23,3,35,6,4,

24,23,3,35,7,3,

24,23,3,35,7,3,

24,22,3,35,7,3,

24,22,4,34,7,3,

24,23,4,35,6,3,

24,23,3,34,7,4,

24,22,4,34,7,3,

23,22,3,34,7,3,

24,22,3,33,6,3,

24,22,3,33,6,3,

23,22,4,33,7,4,

23,21,3,33,6,3,

23,21,3,33,7,3,

23,22,4,33,7,3,

23,21,3,33,7,3,

22,21,3,32,6,4,

23,21,3,33,6,3,

23,21,3,32,7,4,

22,21,3,32,6,3,

23,22,3,32,7,3,

22,21,4,31,6,3,

22,20,3,31,6,3,

22,20,3,31,6,4,

22,21,3,31,6,4,

21,21,4,31,6,3,

22,21,3,31,6,3,

22,19,3,31,7,3,

21,20,3,31,6,3,

22,20,3,31,7,3,

22,19,3,31,6,3,

22,19,4,31,6,3,

22,19,3,30,6,4,

22,19,4,31,6,3,

21,19,3,30,5,3,

22,19,4,30,6,3,

22,19,3,29,6,3,

21,19,4,30,6,3,

22,19,3,31,6,4,

20,19,4,29,6,3,

20,19,3,30,5,4,

21,19,4,29,6,3,

20,19,3,29,6,3,

21,19,3,29,5,4,

20,18,3,29,6,3,

21,18,4,29,6,3,

21,18,4,29,5,4,

21,19,3,28,6,4,

21,19,3,28,6,3,

20,18,3,29,7,3,

21,18,3,28,6,3,

20,17,3,28,7,3,

21,17,3,28,6,3,

20,17,3,28,5,3,

19,18,3,28,6,3,

21,17,3,28,6,3,

20,17,3,27,6,3,

19,17,3,27,6,3,

19,17,3,27,6,4,

19,17,3,27,6,4,

20,18,3,26,7,4,

19,17,3,27,6,3,

19,17,4,27,6,3,

19,18,3,27,5,3,

19,17,4,27,6,3,

19,17,3,26,5,3,

19,16,4,26,5,4,

19,16,3,25,6,3,

19,17,3,26,7,3,

19,17,3,26,7,3,

19,16,4,25,7,4,

18,16,3,30,7,3,

19,16,3,35,7,3,

18,16,4,35,7,3,

18,16,3,34,7,3,

18,16,3,34,7,4,

18,17,4,34,7,4,

18,16,3,34,7,3,

18,15,4,34,7,3,

17,15,3,33,7,3,

18,15,4,33,7,4,

18,15,3,33,7,3,

18,15,3,33,7,3,

17,15,3,33,7,4,

17,15,4,33,7,4,

17,15,3,33,7,3,

18,15,3,34,7,3,

17,15,3,41,7,3,

17,14,3,40,7,4,

18,15,3,39,7,3,

17,15,4,39,7,4,

17,15,3,39,7,3,

17,14,3,39,7,4,

16,14,4,39,7,3,

17,15,4,39,7,3,

16,14,3,39,7,3,

17,14,3,39,7,3,

16,15,3,38,7,3,

17,14,3,39,7,3,

17,14,3,39,7,3,

20,14,3,38,7,3,

20,14,3,38,7,4,

19,14,3,38,7,3,

20,14,3,38,7,3,

19,14,3,37,7,4,

19,14,3,37,7,4,

19,14,3,38,7,3,

19,14,3,37,6,3,

19,13,3,37,6,3,

19,13,4,37,6,3,

19,14,3,36,6,4,

19,14,3,36,6,3,

19,13,3,37,6,3,

20,13,4,35,7,3,

21,14,4,35,6,4,

21,13,3,35,6,4,

21,13,3,35,6,3,

20,14,3,35,7,3,

20,14,3,35,6,3,

19,13,3,35,6,4,

19,14,4,35,6,3,

20,14,3,35,6,3,

19,13,4,35,6,3,

19,13,3,34,6,3,

20,13,3,34,7,3,

19,13,3,34,7,3,

19,13,3,34,7,4,

30,45,4,34,7,3,

40,49,4,33,7,3,

39,50,4,34,7,4,

39,48,3,34,7,3,

39,49,4,33,7,3,

39,48,4,33,6,4,

39,48,3,33,6,3,

39,48,4,33,6,3,

39,47,3,33,7,3,

39,47,3,32,6,3,

38,47,3,32,7,3,

38,47,3,31,7,3,

39,47,4,33,6,3,

38,46,3,31,7,3,

38,46,4,31,11,4,

37,46,3,31,15,3,

38,45,4,31,14,3,

38,46,3,31,14,3,

37,46,3,31,14,4,

37,45,4,31,14,3,

36,45,4,31,14,3,

36,44,3,30,14,3,

36,45,3,30,14,3,

37,44,3,31,13,3,

35,44,3,30,14,4,

35,44,4,30,13,3,

36,43,4,30,13,3,

35,43,3,30,13,4,

35,43,3,30,14,3,

35,43,3,30,13,4,

35,43,3,30,14,4,

35,42,3,29,13,4,

35,42,3,29,13,4,

35,43,3,29,13,3,

34,43,3,29,13,4,

34,41,3,28,13,3,

33,42,4,28,13,4,

34,41,3,28,13,3,

33,41,3,28,12,3,

33,41,3,28,12,3,

33,41,4,39,13,4,

34,41,3,39,12,4,

33,40,4,39,12,3,

33,39,3,39,12,3,

33,39,3,39,12,3,

33,39,4,39,13,3,

33,39,3,39,12,3,

32,39,4,39,12,3,

32,39,3,39,12,3,

31,39,3,38,12,3,

31,38,3,38,17,4,

32,39,3,38,17,3,

31,39,4,38,17,4,

38,39,4,38,17,4,

41,48,4,38,17,4,

39,48,5,38,16,3,

39,50,3,38,16,3,

39,51,3,37,17,4,

39,51,5,37,16,4,

39,51,3,37,16,3,

39,51,5,36,16,3,

39,50,4,36,16,4,

38,50,5,36,16,4,

38,50,3,36,16,3,

38,49,3,36,16,4,

38,50,4,36,16,3,

38,49,4,35,15,4,

38,49,3,36,15,4,

37,48,4,35,15,4,

38,48,4,35,15,4,

38,49,4,35,15,5,

37,48,4,35,16,4,

37,48,4,35,15,3,

36,47,3,35,16,4,

37,48,4,34,15,4,

36,47,3,34,15,5,

36,48,4,35,16,4,

37,46,4,46,15,4,

36,46,4,48,15,5,

35,46,4,48,14,3,

35,49,4,48,14,4,

35,48,3,48,15,4,

36,48,4,48,15,4,

35,47,4,47,15,4,

35,47,3,47,15,3,

34,47,3,47,17,4,

34,48,4,46,21,4,

34,47,4,46,21,4,

35,46,4,46,21,4,

34,46,3,46,20,3,

34,46,4,45,21,5,

33,46,4,46,21,4,

34,45,4,50,21,3,

33,46,5,49,21,4,

33,46,5,49,19,4,

33,45,4,49,19,4,

33,45,5,48,20,4,

32,44,4,48,19,4,

31,44,5,48,19,4,

32,45,4,48,19,5,

33,44,4,48,20,4,

32,44,4,47,20,4,

32,44,4,47,20,4,

31,43,4,47,19,4,

31,43,4,46,20,4,

32,43,5,47,19,4,

51,43,4,54,19,4,

53,43,4,55,19,4,

51,42,4,54,19,4,

51,42,5,54,19,4,

51,41,4,55,19,3,

50,41,4,53,19,4,

50,42,3,53,19,4,

51,41,4,53,19,4,

51,41,4,53,19,4,

50,41,4,53,19,4,

50,41,5,53,19,4,

50,39,4,52,19,4,

49,79,3,52,19,4,

49,87,4,51,18,4,

50,86,5,51,18,3,

50,85,5,51,18,4,

49,85,4,51,17,4,

50,84,4,50,18,5,

49,85,4,51,17,3,

49,84,3,50,17,4,

49,83,4,50,18,5,

48,83,5,50,17,4,

48,82,4,49,18,5,

48,82,4,49,17,4,

48,81,5,49,17,5,

47,81,4,49,17,4,

47,81,4,48,25,4,

47,80,4,48,28,5,

47,80,4,49,27,5,

46,80,4,50,28,4,

47,79,5,49,27,4,

46,79,4,49,27,4,

47,79,4,48,27,5,

45,79,5,48,26,4,

45,78,4,48,27,4,

45,78,4,48,27,4,

45,78,4,48,27,5,

45,77,4,47,27,4,

44,77,4,48,27,5,

45,77,4,48,26,4,

44,76,4,47,26,4,

44,76,5,47,26,4,

44,75,3,46,26,4,

43,75,4,46,26,4,

44,74,5,46,25,4,

44,74,4,46,26,4,

44,73,4,46,25,5,

43,73,4,45,25,4,

43,73,4,46,25,5,

43,73,5,45,25,4,

43,73,5,45,25,4,

41,71,5,44,25,4,

42,71,5,45,24,4,

42,71,4,44,24,4,

42,71,4,44,25,4,

42,71,4,44,25,4,

41,71,5,44,24,4,

41,70,4,44,24,4,

39,70,4,43,24,4,

39,69,4,43,24,4,

39,70,4,43,24,4,

39,69,4,43,24,5,

39,69,4,43,24,4,

39,68,5,43,24,4,

39,68,4,42,23,4,

43,68,5,41,24,5,

54,67,4,42,24,5,

53,67,5,42,23,5,

53,67,5,41,24,5,

53,67,4,41,23,5,

52,67,5,42,23,5,

52,67,4,42,23,4,

51,66,5,42,24,5,

51,66,5,41,24,4,

51,66,5,40,24,4,

51,65,4,41,24,4,

50,65,4,41,24,4,

50,64,4,39,24,5,

51,64,4,39,23,4,

51,64,4,39,24,4,

51,63,5,39,23,5,

50,63,4,39,23,5,

51,63,4,39,22,4,

50,63,4,39,24,5,

50,63,4,39,23,5,

49,63,5,38,26,4,

51,62,4,39,61,5,

49,62,4,67,61,4,

49,62,4,67,60,5,

49,62,5,67,60,4,

86,61,5,66,60,5,

86,60,5,66,60,4,

85,61,5,65,59,4,

84,61,5,65,59,4,

83,60,5,65,59,4,

83,60,5,64,58,4,

82,59,5,64,58,4,

82,60,4,64,58,5,

82,59,4,63,57,4,

81,58,4,63,57,4,

81,58,5,63,56,5,

81,58,4,63,56,5,

81,58,4,63,56,5,

81,58,5,66,56,4,

80,57,4,65,56,5,

79,57,5,65,56,4,

79,57,5,64,55,5,

78,57,4,64,55,5,

78,56,5,64,55,5,

79,56,4,63,55,5,

78,56,4,63,56,4,

77,56,4,63,56,5,

76,56,5,63,55,5,

76,56,5,63,56,3,

77,55,4,62,54,5,

76,54,5,62,54,4,

76,55,5,62,54,5,

75,56,5,62,54,5,

75,56,5,61,54,4,

75,56,5,61,54,5,

75,55,4,61,53,5,

73,56,5,60,54,4,

73,56,4,60,53,4,

73,56,5,84,63,5,

73,56,5,90,63,4,

73,55,4,89,62,4,

72,54,4,89,61,3,

71,54,4,89,62,4,

71,54,5,88,61,4,

71,77,5,88,60,5,

71,76,4,87,61,5,

71,76,5,87,60,4,

71,76,4,86,60,4,

70,75,4,86,60,4,

69,75,5,85,59,4,

70,74,5,85,59,3,

69,74,4,85,59,5,

69,73,4,84,59,5,

69,73,4,83,57,4,

69,73,5,83,59,5,

67,73,4,83,57,5,

68,73,4,83,57,5,

67,71,4,83,57,5,

124,71,5,82,57,4,

123,71,5,82,57,4,

123,71,5,81,56,5,

122,96,5,81,56,4,

122,135,4,81,56,4,

122,134,4,79,56,4,

121,133,4,80,56,4,

120,132,4,79,55,5,

120,131,4,79,55,3,

119,131,4,78,54,4,

118,130,4,79,93,4,

118,129,4,78,92,4,

117,129,4,78,92,5,

117,127,5,77,92,5,

116,127,4,76,91,4,

115,126,4,77,91,5,

115,126,4,77,89,5,

114,125,4,76,89,4,

114,125,4,75,89,5,

113,124,4,76,88,4,

113,123,4,75,88,4,

112,123,4,75,88,4,

112,123,4,74,87,5,

111,121,5,75,88,5,

159,121,4,74,87,4,

198,120,5,73,86,4,

195,120,4,73,85,4,

195,119,4,73,84,5,

194,119,5,71,85,4,

192,118,4,71,84,4,

192,117,5,71,101,4,

190,117,4,71,102,4,

190,116,5,71,102,4,

189,115,4,70,101,4,

188,115,5,71,101,4,

187,115,4,70,99,5,

185,113,5,70,99,5,

205,114,4,69,99,4,

203,113,4,69,99,4,

202,112,5,69,98,4,

201,112,4,67,97,5,

199,111,4,68,97,5,

199,111,5,105,96,5,

198,110,4,104,96,4,

196,110,4,103,96,5,

195,109,5,103,95,4,

195,108,5,102,94,5,

194,109,4,102,94,4,

192,108,4,102,94,4,

192,107,5,101,93,5,

191,107,5,101,93,4,

189,105,5,100,92,3,

189,115,4,99,92,4,

188,174,4,99,91,5,

186,172,4,99,91,4,

185,171,4,98,90,5,

185,170,4,97,90,3,

184,169,4,97,90,5,

184,169,4,96,89,4,

182,167,4,96,89,5,

182,166,5,95,88,4,

180,166,4,95,88,4,

179,165,4,94,88,4,

179,163,4,94,87,5,

178,163,4,94,87,4,

176,162,5,93,86,4,

176,161,5,93,86,3,

175,161,5,93,86,4,

175,159,4,92,84,5,

174,159,4,92,85,4,

173,158,5,91,84,5,

172,158,4,91,83,5,

172,156,4,91,83,5,

170,156,4,89,83,4,

169,155,5,89,82,5,

169,155,5,89,82,4,

167,153,4,88,81,5,

167,153,4,88,82,4,

167,152,4,88,110,4,

165,152,3,88,109,5,

165,151,4,91,108,5,

164,150,5,91,108,5,

163,150,4,90,108,5,

162,148,5,89,107,5,

162,148,5,89,106,5,

162,147,4,88,106,4,

160,146,4,88,105,5,

159,145,4,88,103,5,

158,145,5,88,103,5,

158,145,4,87,103,5,

157,143,5,88,103,4,

157,142,4,86,103,3,

156,142,5,86,102,4,

155,141,5,86,101,4,

155,140,5,86,101,5,

154,140,5,84,100,5,

153,139,4,84,99,5,

153,139,4,84,99,4,

152,139,4,83,99,5,

152,137,5,83,98,5,

151,137,5,83,98,6,

150,135,4,82,98,5,

149,135,5,83,97,5,

148,135,5,82,96,5,

148,135,5,81,96,5,

147,134,5,81,96,5,

146,133,5,80,96,5,

146,132,5,81,95,5,

145,132,5,79,95,5,

145,131,5,79,93,5,

143,131,5,79,93,5,

143,130,5,79,92,4,

142,130,5,78,92,5,

142,129,6,78,92,4,

142,127,5,78,92,5,

141,127,5,83,91,5,

140,127,5,83,90,4,

140,126,5,82,90,5,

138,126,5,82,89,5,

138,125,4,82,89,5,

138,125,4,81,89,5,

137,124,4,80,88,5,

135,124,5,80,88,5,

135,123,5,79,87,5,

135,122,4,79,88,4,

135,121,5,79,87,5,

135,121,4,78,86,5,

134,121,5,78,86,5,

133,120,4,78,86,5,

132,120,5,78,85,4,

131,121,5,77,85,5,

131,120,4,77,84,5,

131,120,4,77,83,5,

130,120,5,77,83,5,

129,119,5,76,83,5,

129,119,5,76,82,5,

129,118,5,75,82,4,

127,117,5,75,81,4,

127,116,4,75,82,5,

126,115,4,75,81,4,

127,116,4,74,81,5,

125,115,4,74,79,4,

125,114,4,74,79,4,

124,114,5,73,79,4,

124,113,4,71,79,5,

123,113,5,71,79,5,

123,112,5,73,78,4,

122,112,5,71,78,5,

121,112,5,71,78,4,

121,111,5,71,77,5,

121,110,4,71,77,5,

120,110,4,71,76,5,

120,109,4,71,76,4,

120,109,5,71,76,4,

118,108,4,71,76,4,

118,108,4,70,76,4,

117,107,4,70,75,4,

117,107,5,70,75,4,

117,107,4,69,75,4,

116,105,5,69,74,5,

115,106,5,69,74,5,

115,105,4,68,73,4,

114,105,5,68,73,5,

114,103,4,67,73,4,

114,103,4,67,71,4,

113,103,5,67,71,4,

113,103,4,67,71,4,

112,103,4,67,71,5,

112,102,4,65,71,4,

111,101,4,65,71,4,

112,101,4,65,71,5,

110,101,4,65,70,3,

109,100,4,65,70,4,

109,100,5,65,69,4,

109,99,5,65,69,4,

108,99,4,63,69,5,

108,98,4,63,68,5,

108,98,4,63,69,4,

107,98,4,63,67,4,

107,97,5,63,67,4,

106,97,4,63,67,4,

107,97,5,62,67,5,

105,97,4,62,67,4,

105,96,4,61,66,5,

104,95,5,62,66,4,

103,95,3,61,66,4,

103,94,4,62,65,5,

103,94,4,61,65,5,

103,94,4,61,65,5,

103,93,4,60,65,4,

102,93,5,60,65,4,

102,93,3,60,63,3,

101,92,4,60,64,4,

101,92,3,59,63,5,

101,92,4,59,63,5,

100,91,4,59,63,4,

99,91,4,59,63,4,

99,91,4,58,62,4,

99,90,5,58,62,3,

98,90,4,57,62,4,

98,89,4,58,62,4,

98,88,4,60,62,4,

97,89,5,61,61,4,

97,88,4,60,61,4,

97,88,5,60,61,3,

96,88,4,60,60,4,

96,87,3,59,60,4,

96,87,4,60,60,5,

95,86,4,59,60,4,

95,86,5,59,60,4,

94,85,4,59,60,4,

94,85,5,59,60,3,

94,85,4,58,59,4,

94,84,4,57,59,4,

93,84,4,58,58,4,

93,84,4,57,59,3,

92,84,5,58,57,4,

92,83,4,57,58,4,

92,83,4,58,58,3,

92,82,4,57,57,4,

91,83,3,57,57,4,

91,82,5,57,57,3,

90,82,4,56,56,3,

89,81,4,56,56,4,

89,82,4,56,56,4,

90,81,4,56,56,4,

89,80,3,56,56,4,

89,79,4,56,56,3,

88,79,4,55,55,3,

88,79,4,55,56,4,

88,79,5,55,55,4,

88,79,4,54,54,4,

87,79,4,54,55,5,

87,78,3,54,54,4,

87,78,4,54,54,3,

86,78,4,54,54,5,

86,78,4,56,53,4,

86,78,4,56,53,5,

86,77,4,56,53,3,

85,77,4,55,53,5,

84,76,5,55,53,3,

83,76,4,55,52,3,

83,76,4,54,51,3,

83,76,3,54,52,4,

83,76,4,54,51,3,

83,75,3,54,51,3,

83,74,4,53,51,4,

82,74,4,53,51,4,

82,73,4,53,51,3,

81,73,4,53,50,3,

81,74,3,52,51,4,

81,73,4,53,51,3,

81,71,4,52,50,4,

80,72,4,53,50,5,

80,71,4,51,50,3,

79,73,5,51,50,3,

79,71,4,51,49,4,

79,71,4,51,49,4,

79,71,4,51,49,3,

79,71,4,51,49,3,

78,71,5,51,48,4,

78,71,3,50,48,3,

78,70,4,54,48,4,

77,70,3,54,48,4,

77,70,4,54,48,3,

76,69,4,54,48,3,

77,69,4,53,48,4,

76,68,4,53,47,4,

76,68,4,52,47,4,

76,68,3,53,47,4,

75,67,3,53,46,5,

75,67,4,52,47,4,

75,67,3,51,47,4,

74,67,4,52,46,3,

75,67,4,51,46,4,

75,67,4,51,45,3,

74,66,3,51,46,4,

73,67,3,51,45,4,

73,66,4,50,45,4,

73,65,4,50,45,5,

72,65,4,50,45,3,

71,65,4,49,45,4,

71,65,3,49,44,3,

71,64,3,49,45,4,

71,63,4,49,45,3,

71,63,3,49,44,4,

71,63,4,49,44,4,

71,63,3,49,44,4,

70,63,4,49,43,4,

70,63,5,48,44,4,

70,62,4,48,43,4,

70,63,4,48,43,3,

70,62,4,47,43,4,

68,62,4,48,43,4,

69,62,4,47,42,4,

69,62,4,47,42,4,

68,62,4,46,42,3,

67,61,3,47,41,4,

68,61,4,47,41,4,

67,60,4,46,41,4,

67,61,3,46,41,4,

67,60,4,46,45,4,

66,60,3,45,44,4,

66,60,4,46,44,4,

66,59,3,45,43,4,

65,59,3,45,44,4,

65,62,4,45,43,3,

65,62,3,45,43,3,

65,61,4,45,43,3,

65,61,4,45,43,3,

64,60,5,45,42,3,

65,61,3,44,42,3,

65,60,4,44,45,4,

65,60,4,44,44,4,

63,59,4,44,44,5,

63,59,4,44,44,4,

63,59,4,43,44,4,

63,59,4,43,44,3,

63,59,4,44,44,4,

62,58,4,43,44,3,

63,58,4,57,43,4,

62,58,4,56,43,3,

62,58,4,57,43,4,

62,58,4,56,42,4,

62,57,3,56,42,4,

61,57,4,55,42,3,

61,56,3,55,42,3,

61,56,4,54,41,3,

61,56,3,54,41,3,

60,56,4,54,41,4,

60,56,4,53,41,4,

60,56,4,53,41,4,

60,55,3,53,41,3,

60,55,3,53,39,3,

59,55,4,53,41,4,

59,55,4,52,40,4,

59,55,3,53,39,3,

59,55,4,52,39,4,

58,54,4,52,39,4,

58,54,3,51,39,4,

58,54,3,51,39,4,

57,53,4,51,39,4,

57,53,4,51,39,3,

57,53,4,50,39,4,

57,54,4,50,39,4,

56,52,4,50,39,4,

56,52,3,50,39,4,

56,52,5,50,39,4,

56,52,4,49,39,4,

56,51,4,49,38,3,

56,51,4,49,38,5,

56,51,4,48,37,3,

55,51,4,48,37,4,

55,51,3,49,38,4,

55,50,4,48,38,4,

54,51,3,48,36,5,

54,51,4,48,37,4,

54,50,3,47,37,4,

54,49,4,48,36,4,

54,49,4,47,36,3,

54,49,4,47,35,4,

53,49,4,46,37,5,

53,49,3,46,35,3,

52,49,4,46,36,3,

53,48,3,46,35,3,

52,49,3,45,35,4,

53,48,5,46,36,4,

51,49,4,45,37,4,

51,48,4,45,35,4,

51,48,3,45,36,4,

51,48,4,45,35,4,

51,48,3,45,35,4,

51,48,3,44,35,3,

51,48,4,44,35,4,

50,47,4,44,35,3,

50,47,3,44,35,4,

50,46,4,44,34,4,

50,46,4,44,34,3,

50,46,3,43,34,3,

50,46,3,44,34,3,

50,46,3,43,34,3,

49,46,4,43,34,4,

50,46,4,43,34,3,

49,45,3,43,33,4,

48,45,4,42,33,4,

49,45,4,41,33,4,

48,45,3,42,33,3,

48,44,3,42,34,4,

49,45,3,41,33,3,

48,44,3,42,33,4,

48,44,3,41,33,3,

47,44,4,41,32,3,

48,44,3,41,33,4,

47,43,4,41,31,3,

47,43,4,39,32,5,

47,43,3,39,31,3,

47,43,3,39,31,3,

46,43,4,39,31,3,

46,43,3,39,31,4,

45,42,4,39,31,3,

45,42,3,39,31,3,

46,42,4,39,31,3,

46,41,4,39,31,4,

45,41,4,39,31,4,

46,42,4,39,30,3,

45,41,4,38,31,4,

45,41,4,38,30,3,

44,41,3,38,30,3,

44,41,5,38,30,3,

44,41,3,38,31,3,

44,40,4,37,30,3,

45,39,3,38,31,5,

44,40,4,38,29,3,

44,39,3,37,30,4,

44,39,4,37,29,4,

43,39,3,37,29,3,

43,39,4,37,29,4,

43,39,3,37,30,4,

43,39,4,36,29,3,

42,39,4,36,28,3,

43,39,4,36,30,3,

43,39,4,36,29,4,

42,39,3,36,28,4,

41,39,3,36,28,4,

41,39,4,47,57,4,

41,39,4,75,81,3,

42,38,4,74,80,3,

41,38,3,73,80,3,

41,38,3,74,79,4,

41,38,3,73,79,3,

40,38,4,71,78,4,

41,38,4,73,78,4,

39,37,4,71,78,4,

39,37,4,71,77,3,

41,38,4,71,77,4,

39,37,5,71,77,4,

39,37,3,70,76,4,

39,37,4,71,76,4,

39,37,4,70,76,3,

39,37,3,69,75,4,

39,37,3,70,75,4,

39,35,4,68,75,4,

39,35,4,68,74,3,

39,35,4,68,73,3,

39,35,4,68,74,4,

38,36,5,68,73,3,

38,35,3,67,73,3,

39,35,4,67,73,4,

38,35,3,67,71,4,

37,35,3,67,71,4,

38,35,4,66,71,3,

37,35,3,66,71,4,

38,35,3,65,71,4,

37,35,4,65,70,3,

37,34,4,66,70,4,

38,34,4,65,70,4,

37,34,3,64,69,4,

37,34,3,63,69,3,

36,33,4,64,69,3,

36,33,4,63,69,4,

36,34,3,63,68,3,

37,33,3,63,68,4,

35,33,4,63,68,3,

36,33,4,62,67,4,

35,32,3,63,67,4,

36,33,4,62,66,3,

35,32,4,62,67,4,

35,32,5,62,67,3,

35,31,3,61,66,4,

35,32,4,61,66,3,

35,32,4,61,65,3,

35,31,4,61,65,4,

35,31,3,60,65,4,

35,31,4,60,65,4,

34,32,4,60,64,4,

34,31,4,59,63,3,

35,31,3,60,63,3,

34,31,3,59,63,4,

34,31,4,59,63,4,

34,31,3,59,63,3,

33,31,4,58,63,4,

34,30,3,57,63,4,

34,30,4,57,63,3,

33,30,3,57,62,3,

33,30,4,57,62,4,

33,30,3,57,62,3,

33,30,4,56,61,4,

33,29,3,56,61,3,

32,30,4,56,61,3,

32,30,3,100,60,4,

31,29,3,99,60,4,

32,29,3,99,61,4,

31,29,4,98,60,3,

31,29,3,98,59,4,

31,29,4,98,59,3,

31,29,3,97,59,4,

31,28,3,97,59,3,

31,29,3,97,58,4,

31,28,4,96,57,3,

31,28,4,95,58,3,

31,29,4,94,58,4,

31,29,4,94,57,3,

30,28,4,94,57,4,

31,28,4,94,57,4,

30,28,5,93,56,4,

31,28,4,93,57,3,

30,28,4,93,56,4,

30,28,4,92,56,4,

30,28,3,91,56,3,

30,27,3,91,55,4,

29,27,5,91,56,4,

30,27,4,90,55,3,

30,26,3,90,54,3,

29,27,3,90,54,4,

30,26,5,89,55,4,

66,59,3,89,54,4,

70,59,4,88,54,3,

70,58,3,88,53,3,

68,58,4,88,53,4,

68,57,4,87,53,4,

68,57,4,87,53,4,

67,57,5,87,53,3,

67,56,4,87,53,4,

67,57,3,85,52,3,

67,56,4,86,51,4,

67,56,4,85,51,3,

65,56,3,85,51,4,

66,56,4,85,51,4,

65,55,3,84,51,3,

65,55,3,84,51,4,

64,55,3,83,50,3,

64,54,3,83,51,4,

64,54,4,82,50,4,

63,53,4,82,50,5,

63,54,3,82,50,4,

63,53,4,82,49,4,

63,53,4,82,49,4,

63,53,3,81,49,4,

62,53,4,81,49,4,

62,53,4,80,48,3,

61,52,3,81,49,3,

62,51,4,79,48,4,

61,51,4,79,48,5,

61,51,4,79,48,4,

61,51,3,78,48,4,

60,50,3,78,47,5,

60,50,4,78,47,4,

60,50,3,78,47,4,

60,50,4,77,47,3,

59,49,4,77,46,4,

59,50,4,77,46,4,

59,50,3,76,46,3,

59,49,3,76,46,4,

58,49,4,76,46,4,

63,49,4,76,46,4,

62,49,4,75,45,3,

62,49,4,74,46,4,

62,48,4,75,45,4,

61,48,3,74,45,3,

61,47,3,74,45,4,

61,48,3,74,45,3,

61,48,4,73,44,3,

61,48,4,73,44,3,

60,46,3,73,44,3,

60,47,4,71,44,3,

60,46,3,71,44,4,

59,46,3,71,44,3,

60,46,4,71,43,3,

59,45,3,71,43,3,

59,46,4,71,43,3,

59,45,3,71,43,4,

58,45,4,70,43,4,

58,45,3,70,43,4,

57,45,4,70,41,3,

57,45,4,69,42,3,

57,44,3,70,42,3,

57,44,4,69,41,5,

56,44,4,69,42,3,

57,43,3,69,41,4,

56,43,3,68,41,4,

56,43,4,68,40,4,

56,43,3,67,41,4,

56,42,3,68,41,3,

56,42,4,67,39,4,

55,42,4,67,39,3,

55,42,4,67,39,4,

54,41,4,66,39,3,

54,41,4,66,39,3,

54,42,4,66,39,4,

54,41,4,66,39,3,

54,41,4,65,39,3,

53,41,3,65,39,4,

53,41,4,65,39,5,

66,58,3,65,39,5,

66,59,4,65,39,3,

65,57,4,64,38,3,

65,58,4,63,38,4,

65,57,3,63,38,3,

65,57,4,63,38,3,

64,57,4,63,37,3,

64,56,3,63,37,3,

63,56,4,62,38,4,

63,56,3,62,37,4,

63,56,3,62,38,3,

63,56,4,62,38,3,

62,56,3,62,37,4,

62,55,4,62,37,3,

62,55,3,61,36,3,

61,55,3,61,37,3,

62,55,4,60,37,3,

61,54,4,61,36,3,

61,54,4,60,37,4,

61,54,4,60,36,3,

60,53,3,59,36,4,

60,53,3,59,35,4,

60,52,3,59,35,4,

60,52,3,59,35,4,

59,51,4,58,35,4,

59,52,3,59,35,3,

59,52,3,58,35,4,

58,51,4,57,35,3,

58,51,4,57,34,4,

57,51,4,57,34,4,

57,50,4,57,34,3,

57,50,4,57,34,4,

57,50,3,56,34,3,

56,49,3,57,35,3,

56,49,4,56,34,4,

56,50,3,56,35,4,

56,49,4,56,35,3,

56,48,4,56,34,3,

56,49,3,56,34,3,

56,48,4,56,35,4,

56,48,3,55,34,3,

56,49,5,55,34,4,

56,48,3,54,34,4,

55,48,4,55,33,3,

54,47,5,54,33,3,

55,48,3,54,33,3,

54,48,3,54,33,3,

54,47,4,54,33,4,

53,46,4,53,33,4,

53,46,4,54,33,3,

53,46,4,53,32,3,

53,46,3,53,31,4,

53,45,3,52,33,4,

52,46,3,52,32,3,

52,45,3,51,31,5,

52,46,4,51,31,3,

52,45,3,51,31,3,

51,45,4,51,31,4,

51,45,3,51,31,4,

51,44,3,51,31,4,

51,44,4,51,31,3,

50,44,3,50,31,4,

50,43,3,50,31,4,

50,43,3,51,30,3,

50,43,3,50,31,3,

50,42,4,50,30,4,

50,43,4,49,30,4,

49,42,4,50,30,3,

49,42,3,49,30,3,

48,42,4,49,31,4,

49,43,4,49,29,3,

49,42,3,49,30,3,

48,41,4,48,30,3,

48,41,4,48,29,3,

48,41,3,49,30,4,

47,41,4,48,29,3,

48,41,4,47,29,4,

47,41,3,48,29,3,

47,40,4,47,29,4,

46,39,3,47,29,3,

47,39,4,47,65,4,

46,39,4,47,65,4,

47,39,4,47,63,3,

46,39,3,47,63,4,

46,39,3,46,62,4,

46,39,4,46,62,3,

45,39,4,46,62,4,

45,39,3,45,62,3,

45,39,4,45,62,4,

45,38,3,45,61,3,

44,39,4,45,61,4,

44,39,3,45,61,4,

45,39,3,45,60,4,

44,42,4,44,60,4,

44,41,3,44,60,3,

43,41,3,44,60,3,

44,41,3,44,59,3,

43,40,4,44,59,3,

43,41,3,44,59,4,

43,41,3,44,59,4,

42,41,4,43,58,4,

43,39,3,43,57,4,

42,39,3,44,58,4,

41,39,3,42,57,3,

42,39,4,43,57,4,

41,39,3,42,57,4,

42,39,3,42,57,5,

41,39,4,42,56,3,

41,39,3,42,56,4,

41,39,4,41,56,3,

41,39,4,42,56,3,

41,38,3,41,56,4,

40,38,4,41,56,4,

41,39,3,41,55,3,

39,38,4,41,55,4,

39,38,4,41,54,3,

39,38,4,41,54,4,

39,37,4,39,54,4,

39,37,3,40,53,4,

39,37,5,41,54,3,

39,37,4,39,53,3,

39,36,3,39,52,4,

39,37,5,39,52,3,

39,36,3,39,53,3,

39,37,3,39,52,3,

38,35,3,39,52,4,

38,35,3,39,51,3,

38,35,4,39,51,4,

38,35,3,38,51,3,

37,35,4,38,51,3,

38,35,4,39,51,3,

38,35,3,38,51,4,

37,35,3,38,50,4,

38,35,3,38,51,4,

37,34,3,38,50,3,

37,35,3,38,50,4,

37,34,3,37,49,3,

36,34,3,37,49,3,

36,34,3,37,49,3,

36,33,3,38,49,3,

37,33,3,37,48,3,

36,33,3,37,48,4,

36,33,3,36,48,4,

35,32,4,36,48,3,

35,33,3,36,48,4,

35,33,4,36,47,3,

35,32,3,36,47,3,

35,32,4,36,47,4,

35,32,3,35,46,4,

35,31,4,36,46,3,

34,32,3,35,47,4,

34,32,4,35,46,4,

35,31,3,35,46,4,

34,31,4,35,52,3,

34,31,4,35,52,3,

34,31,3,35,52,4,

34,31,3,35,51,4,

34,31,4,34,51,4,

34,31,4,34,51,4,

33,30,4,34,51,3,

33,31,3,34,50,3,

34,31,3,34,51,3,

32,30,3,34,50,4,

32,30,3,33,51,4,

33,30,3,34,50,3,

33,29,3,34,50,4,

32,30,3,33,50,5,

31,30,3,33,49,4,

31,30,4,33,48,5,

31,30,3,32,49,3,

31,30,4,32,48,4,

31,29,3,33,48,3,

31,29,4,31,48,3,

31,29,3,31,48,3,

31,29,3,33,48,3,

31,29,3,31,47,4,

31,28,4,31,47,3,

31,28,3,31,48,3,

30,28,3,31,46,3,

31,28,4,31,46,3,

30,28,3,31,46,3,

31,28,3,31,46,3,

30,29,5,31,46,4,

30,28,4,30,46,4,

30,27,3,30,46,3,

30,27,4,30,46,3,

29,28,3,30,45,4,

29,27,3,30,45,3,

30,27,3,30,45,4,

29,27,4,30,45,4,

29,27,3,30,45,3,

30,27,3,30,44,3,

30,27,3,30,44,4,

29,27,3,30,43,3,

28,26,4,30,44,4,

28,26,4,29,43,4,

29,26,3,30,43,4,

29,26,4,29,43,4,

29,26,3,28,43,4,

28,25,3,29,42,3,

28,26,3,29,42,3,

28,26,4,28,42,4,

27,26,3,29,42,3,

27,25,3,28,41,4,

28,25,4,29,46,4,

27,25,3,28,46,4,

28,26,4,29,45,4,

27,25,3,28,45,3,

27,25,3,28,45,4,

27,25,3,28,44,3,

27,24,4,27,44,5,

27,24,3,28,44,4,

27,24,3,28,44,3,

26,24,3,27,43,4,

27,24,4,27,43,3,

27,25,3,27,43,4,

26,24,5,27,53,4,

27,24,4,27,53,3,

27,24,4,26,53,4,

26,24,3,26,51,4,

27,24,4,26,52,3,

26,24,3,26,51,3,

25,24,4,26,52,4,

65,24,3,25,51,4,

65,25,4,25,51,3,

64,25,3,25,51,4,

64,25,3,25,51,4,

63,25,3,25,51,4,

63,26,4,25,50,3,

63,25,3,25,50,4,

63,25,4,25,50,3,

62,25,4,25,49,3,

62,25,4,25,50,3,

62,25,4,25,49,4,

61,24,4,29,49,4,

61,25,4,28,48,3,

60,24,4,28,48,4,

60,24,4,28,48,3,

60,24,3,28,48,3,

60,25,3,28,48,3,

60,24,4,28,48,3,

60,24,4,27,47,4,

59,24,4,27,47,4,

59,24,3,27,47,3,

58,24,4,27,46,3,

58,24,3,27,46,3,

57,24,4,27,46,4,

58,24,4,26,46,3,

57,23,3,26,46,3,

57,23,4,26,45,3,

57,22,3,27,45,4,

57,23,4,26,45,4,

56,23,4,25,45,4,

57,22,4,26,44,3,

56,23,4,25,45,3,

56,22,3,25,44,4,

55,23,3,25,44,4,

55,23,3,25,44,3,

55,22,3,25,43,4,

55,22,3,25,44,3,

55,22,3,25,43,4,

54,22,3,24,43,3,

53,21,3,25,43,4,

54,22,3,25,43,3,

53,22,3,24,42,4,

53,22,4,25,43,4,

52,21,4,24,43,3,

52,22,3,24,42,3,

52,21,3,24,41,3,

52,21,3,24,42,3,

52,21,3,24,41,4,

52,21,3,24,41,4,

51,21,3,23,40,5,

51,21,3,24,41,4,

51,21,4,24,39,3,

50,21,4,24,39,3,

51,21,4,24,39,4,

50,20,4,23,39,3,

50,20,3,22,39,3,

50,20,4,22,39,3,

50,21,3,24,39,4,

50,20,4,22,39,3,

49,19,4,23,39,3,

49,20,3,23,38,3,

48,19,3,22,38,4,

49,19,4,23,38,3,

48,19,3,22,39,4,

49,19,3,22,39,4,

48,19,3,22,38,3,

48,19,4,22,38,3,

48,19,3,22,38,3,

47,19,4,21,37,4,

47,19,3,22,37,3,

47,19,4,22,38,3,

47,19,4,21,37,4,

46,19,3,21,37,4,

47,19,3,22,36,4,

46,19,3,21,37,4,

46,19,3,21,36,4,

46,19,3,21,35,3,

46,19,3,21,36,4,

45,18,3,20,36,4,

45,19,4,21,36,3,

45,19,3,21,35,4,

45,18,4,19,35,4,

45,19,4,20,35,5,

44,21,3,21,35,4,

44,21,4,19,35,4,

44,21,4,20,34,4,

43,20,3,20,35,5,

44,19,3,19,83,4,

43,20,3,19,83,3,

43,19,4,19,82,3,

42,20,4,19,82,3,

43,19,4,19,81,3,

43,19,3,24,81,4,

42,19,4,28,80,3,

42,20,4,29,80,3,

41,19,3,28,80,4,

41,19,3,28,79,3,

41,19,3,28,79,3,

41,19,4,28,79,4,

41,19,4,27,79,3,

41,19,3,28,77,3,

41,19,5,28,78,3,

39,19,3,27,76,4,

41,19,3,27,76,3,

74,31,4,27,77,3,

77,58,4,27,76,3,

76,57,4,26,76,3,

76,56,4,27,76,3,

76,56,4,27,76,4,

76,57,4,26,75,4,

75,56,4,26,74,3,

75,55,3,26,74,3,

74,55,4,25,75,4,

74,54,4,26,74,4,

74,54,4,25,73,4,

71,54,4,25,73,4,

71,54,4,25,71,4,

71,53,4,25,71,3,

71,53,3,25,71,3,

71,53,3,25,71,3,

71,53,3,25,71,4,

71,52,4,25,71,3,

71,51,3,25,70,3,

70,51,3,25,70,3,

70,51,4,24,70,4,

70,52,3,24,69,4,

69,51,3,24,70,4,

70,51,4,24,69,4,

68,51,3,24,69,3,

68,50,3,24,68,3,

68,50,3,24,69,5,

68,50,3,24,68,3,

68,49,4,24,68,4,

67,49,4,24,67,4,

67,52,4,24,67,4,

67,52,4,24,67,4,

66,51,3,24,66,5,

66,51,3,24,67,3,

66,51,4,24,67,3,

66,51,3,23,65,4,

65,51,4,23,65,3,

65,50,4,23,66,4,

65,50,3,23,65,3,

63,51,4,22,64,4,

64,49,4,23,63,4,

63,50,4,27,63,4,

63,50,3,27,63,3,

63,49,4,27,63,4,

63,49,3,27,63,3,

62,49,3,27,63,3,

62,49,3,27,62,4,

62,48,3,26,62,4,

62,48,3,25,62,4,

62,48,3,25,61,3,

61,48,4,25,62,3,

61,47,4,25,61,4,

61,48,3,26,61,3,

60,47,4,26,61,4,

60,47,3,26,61,4,

61,46,4,25,60,3,

60,47,3,26,60,4,

59,46,4,26,60,3,

60,46,3,25,59,3,

59,45,4,25,60,4,

59,45,3,25,59,4,

59,45,4,25,58,3,

59,45,4,25,59,3,

58,45,4,25,59,3,

57,45,3,25,58,3,

57,45,4,25,58,3,

57,63,4,24,57,4,

56,62,3,24,57,5,

57,62,3,24,56,4,

57,62,4,25,57,4,

56,61,5,24,56,3,

56,61,4,24,56,3,

56,60,4,24,56,3,

56,61,3,24,56,4,

56,60,3,24,56,3,

55,60,3,24,56,4,

55,60,3,23,55,4,

55,59,4,23,55,4,

54,59,4,24,55,3,

54,59,4,38,55,4,

54,58,3,38,54,3,

54,58,3,38,54,4,

53,58,4,37,54,3,

53,57,4,37,53,3,

53,57,3,37,53,3,

53,57,3,37,53,4,

52,56,3,36,52,4,

52,57,3,36,52,4,

53,56,4,36,58,4,

52,57,4,48,93,4,

52,55,4,48,92,4,

51,56,4,48,91,5,

51,56,4,47,91,4,

51,55,4,47,90,4,

50,55,4,47,89,4,

51,55,4,47,89,3,

50,55,3,46,89,3,

51,54,3,46,89,3,

49,54,4,46,89,3,

50,54,3,46,88,3,

49,53,4,46,88,3,

49,53,4,45,87,4,

49,52,3,45,87,3,

48,53,5,45,86,3,

48,52,4,44,87,3,

48,52,5,44,85,3,

48,51,4,44,85,4,

48,51,4,44,85,4,

48,51,3,44,84,4,

47,51,4,43,83,3,

47,50,4,44,83,3,

46,51,4,43,83,4,

46,50,3,43,82,3,

46,50,3,42,82,3,

46,50,3,42,82,3,

46,50,4,42,82,4,

46,50,3,43,82,3,

46,49,4,42,81,4,

46,49,4,41,81,3,

46,48,3,42,81,4,

45,49,3,41,80,3,

45,48,4,41,79,3,

45,49,4,41,79,3,

45,48,4,41,79,4,

44,47,4,40,78,3,

45,47,4,41,78,4,

44,47,4,39,77,4,

44,48,4,39,77,3,

43,47,3,39,78,4,

44,47,3,39,77,3,

43,46,3,39,76,4,

43,46,3,39,76,3,

43,46,3,39,76,4,

43,45,3,39,76,4,

42,46,4,39,75,4,

42,45,4,39,75,4,

42,45,3,38,75,4,

42,45,4,38,74,3,

41,45,4,38,74,3,

41,44,3,38,73,3,

41,45,4,38,75,4,

41,45,5,38,74,3,

41,44,3,38,74,3,

40,43,4,37,74,3,

40,43,4,37,73,4,

40,43,4,36,73,5,

39,43,4,36,73,3,

39,43,4,36,71,4,

39,43,3,37,71,3,

39,43,3,35,71,4,

39,42,3,35,71,3,

39,42,4,35,71,3,

39,41,3,35,71,4,

39,41,5,56,71,3,

39,42,4,56,70,3,

38,41,4,56,70,3,

39,41,4,56,69,3,

39,41,4,56,70,5,

38,41,4,55,69,4,

39,41,4,55,69,4,

39,39,4,54,68,4,

38,39,4,54,68,3,

38,39,3,54,68,4,

38,39,4,54,67,4,

38,39,4,53,67,4,

38,39,4,53,67,3,

38,39,3,52,67,5,

37,39,4,53,67,3,

37,39,4,52,66,4,

37,39,3,52,66,4,

37,39,3,51,65,3,

36,38,4,51,65,3,

36,38,4,51,65,4,

36,38,4,51,65,3,

36,37,4,51,63,3,

36,38,3,50,64,4,

36,38,3,51,64,4,

35,37,3,49,63,4,

35,37,3,50,63,3,

35,38,5,50,63,3,

35,37,4,49,63,3,

35,37,3,49,63,4,

35,36,4,49,62,4,

35,39,3,48,62,4,

35,42,3,49,62,3,

35,41,4,49,61,4,

34,41,4,48,61,4,

35,41,3,48,61,3,

35,39,4,48,60,3,

34,39,4,47,60,4,

34,39,3,47,61,5,

34,39,3,47,60,3,

34,39,4,47,60,3,

33,39,3,46,60,3,

33,39,3,46,59,3,

33,39,4,46,59,3,

34,39,3,46,59,4,

33,39,4,45,59,4,

33,38,3,45,59,4,

32,38,4,45,57,3,

32,39,5,45,57,3,

33,39,3,45,57,4,

31,38,3,44,57,3,

32,38,3,44,57,3,

31,37,4,45,57,4,

32,37,4,45,56,3,

31,37,3,44,56,4,

31,36,4,44,56,4,

31,37,4,43,56,3,

31,37,4,44,56,4,

32,36,4,43,56,3,

35,36,3,43,55,3,

35,36,3,43,55,3,

35,36,4,43,55,3,

35,35,4,42,55,3,

34,35,3,43,54,4,

35,35,4,43,55,3,

35,35,3,41,53,3,

34,35,4,42,53,4,

34,35,4,41,53,4,

33,34,4,41,53,3,

33,34,4,41,53,4,

33,34,4,40,53,3,

33,34,4,41,53,4,

33,34,3,41,52,4,

34,33,3,40,52,4,

32,34,4,41,51,4,

33,33,4,39,51,3,

32,33,3,39,51,3,

32,33,4,39,51,3,

32,33,4,39,51,3,

32,33,3,39,50,3,

32,33,3,39,51,4,

32,33,3,39,51,5,

31,33,4,38,50,4,

31,50,4,38,50,4,

31,49,3,38,50,3,

31,49,3,38,49,3,

31,49,5,39,49,3,

31,48,4,38,48,4,

31,48,4,38,49,4,

30,48,4,38,48,4,

30,48,3,37,48,4,

31,48,3,38,48,3,

30,47,4,37,48,3,

31,46,3,38,48,3,

30,47,4,37,47,4,

30,46,4,36,47,4,

30,46,3,36,47,3,

35,46,4,36,46,3,

36,46,4,35,47,3,

36,46,3,36,46,3,

36,46,3,35,46,3,

36,45,3,35,46,3,

36,45,3,35,46,4,

35,45,4,35,46,4,

35,44,3,35,45,3,

35,44,4,34,46,3,

35,44,3,35,45,3,

35,44,3,34,46,4,

34,43,4,34,44,4,

34,44,3,36,45,4,

35,44,4,38,44,3,

34,43,4,38,44,4,

34,43,3,38,44,4,

34,49,4,38,44,3,

34,48,3,38,44,5,

34,48,3,38,44,3,

34,48,3,37,44,4,

34,48,3,37,43,4,

33,48,3,37,43,3,

33,48,4,36,43,3,

33,47,4,37,43,4,

33,47,3,36,43,3,

33,46,4,37,43,4,

32,46,4,36,43,3,

31,46,3,36,41,3,

32,46,3,35,41,4,

32,46,3,35,42,4,

31,45,4,35,41,3,

32,45,4,35,41,3,

32,45,4,35,41,4,

31,45,3,35,41,4,

31,44,3,34,41,4,

31,45,3,34,41,3,

31,45,3,34,41,4,

31,44,4,34,39,4,

31,44,4,34,39,4,

33,44,4,33,40,5,

33,43,4,33,39,4,

32,44,4,34,39,4,

31,43,3,33,39,3,

32,42,4,33,39,3,

32,43,4,33,39,3,

31,43,4,32,39,3,

31,42,3,32,39,3,

31,42,4,33,39,3,

31,42,4,32,38,3,

31,41,3,31,38,4,

31,41,3,32,38,3,

30,41,3,31,38,3,

30,41,3,32,38,3,

30,40,4,31,37,3,

31,39,3,31,37,3,

30,39,3,31,37,3,

30,39,3,31,37,3,

30,39,4,31,37,4,

29,39,3,31,37,4,

29,39,3,31,37,3,

29,39,4,30,36,4,

29,39,3,30,36,3,

29,39,4,30,36,3,

29,39,4,30,36,3,

29,39,4,30,36,4,

29,39,4,30,36,4,

29,38,3,30,35,3,

28,39,3,30,35,4,

28,39,4,30,35,3,

29,39,3,29,35,3,

29,38,3,29,35,4,

28,38,4,29,35,4,

28,38,4,29,35,4,

28,37,4,29,34,4,

27,37,4,28,34,3,

28,36,4,28,34,4,

27,37,4,28,34,3,

27,37,3,28,33,3,

28,37,3,28,35,4,

28,36,4,28,34,4,

28,35,3,28,34,3,

29,35,3,28,34,3,

29,35,3,28,33,3,

29,35,4,28,32,4,

28,35,3,28,33,4,

28,35,4,27,33,3,

28,35,3,28,32,3,

28,34,5,27,33,3,

27,34,4,27,32,3,

27,35,3,27,32,4,

27,34,4,26,33,4,

27,34,4,27,31,4,

27,34,3,26,31,3,

27,37,5,27,31,4,

27,38,4,26,31,3,

26,37,4,26,31,3,

26,37,3,25,31,3,

26,37,4,26,31,4,

26,37,3,25,31,3,

26,36,3,26,31,4,

27,36,3,25,31,3,

26,36,4,25,30,3,

26,35,3,25,30,3,

25,35,4,26,31,3,

25,36,3,25,30,4,

25,35,4,24,30,4,

25,35,3,26,30,4,

25,35,3,25,30,4,

25,35,3,25,30,4,

25,34,3,24,30,4,

25,35,4,25,29,4,

25,34,3,25,29,3,

25,35,3,24,30,4,

24,34,3,24,29,3,

25,34,4,24,29,3,

25,33,3,24,29,3,

25,33,4,24,28,4,

24,33,3,24,28,4,

24,33,4,24,29,4,

24,33,4,24,29,4,

24,33,4,24,29,3,

24,33,4,24,28,4,

24,33,3,24,28,4,

24,32,4,24,28,3,

24,32,4,23,27,4,

24,32,4,24,28,5,

24,31,4,23,28,3,

24,31,3,23,28,5,

24,31,3,23,28,3,

24,31,3,22,28,3,

23,31,4,22,27,4,

23,31,3,22,28,4,

24,77,4,22,27,4,

23,76,3,22,27,4,

24,75,3,22,27,3,

23,75,3,22,39,3,

24,74,4,22,39,4,

24,74,3,22,39,3,

23,74,4,22,39,3,

23,73,3,22,39,3,

22,73,4,21,38,3,

22,73,3,22,38,3,

22,71,3,21,38,3,

22,71,5,22,38,4,

22,71,3,27,37,4,

22,71,4,27,38,4,

22,70,3,25,37,3,

22,70,3,25,36,4,

22,71,3,26,37,3,

22,69,3,26,37,3,

22,70,4,25,36,3,

22,69,4,25,36,4,

21,69,3,25,36,4,

21,68,3,25,38,3,

21,69,4,24,38,4,

21,68,3,25,38,3,

22,67,3,24,37,3,

21,67,3,25,37,4,

23,67,4,24,37,4,

29,66,4,25,37,3,

29,66,3,24,37,4,

29,66,4,24,37,3,

28,66,3,24,36,4,

28,65,3,24,36,3,

28,65,3,24,36,4,

28,65,3,24,36,4,

28,65,3,24,35,3,

28,65,3,24,35,3,

28,63,4,24,35,3,

27,63,4,23,35,4,

28,63,3,24,35,4,

28,63,3,23,35,4,

28,63,3,24,35,4,

27,63,3,27,34,4,

27,63,3,27,34,3,

27,62,4,27,34,4,

27,62,3,27,34,4,

27,61,3,26,34,4,

27,61,4,26,34,4,

27,61,3,25,34,3,

27,61,3,26,33,4,

26,61,3,26,33,4,

29,60,4,25,33,3,

29,60,3,25,33,3,

29,59,3,25,33,4,

29,59,4,25,32,3,

29,58,4,25,33,3,

28,59,4,25,33,4,

28,59,4,25,31,3,

28,58,3,25,31,4,

28,58,3,25,31,3,

28,58,3,24,31,3,

28,57,3,25,31,4,

28,57,3,24,31,4,

27,57,4,24,31,4,

27,57,4,25,31,3,

27,56,3,24,31,3,

28,56,4,24,31,4,

27,56,3,24,30,4,

27,56,3,24,30,3,

26,55,3,23,31,3,

26,55,3,23,30,4,

26,56,3,24,30,3,

26,55,4,23,29,4,

26,55,4,23,30,3,

25,54,3,23,31,3,

26,54,4,22,32,3,

26,54,3,23,31,4,

26,53,3,42,32,4,

28,53,3,41,31,4,

27,53,4,41,34,3,

27,53,3,41,33,4,

27,52,4,41,33,3,

27,52,4,41,34,3,

26,53,3,41,32,3,

26,51,4,40,32,4,

26,51,3,39,32,4,

27,51,3,39,31,3,

25,51,4,39,31,4,

26,51,4,39,31,4,

26,50,3,39,31,3,

25,50,3,39,31,4,

25,51,4,39,31,4,

25,50,3,39,31,4,

25,50,3,39,31,4,

26,50,4,39,31,4,

25,49,3,39,30,3,

26,50,3,39,31,4,

25,49,4,38,31,4,

25,48,3,38,30,3,

25,48,3,37,30,4,

25,49,3,38,30,4,

25,48,3,37,30,4,

24,48,3,37,30,3,

25,48,4,37,30,3,

26,47,3,37,30,3,

26,48,3,36,29,3,

26,47,4,37,29,3,

25,47,3,36,30,3,

25,46,3,35,29,4,

24,46,3,36,29,4,

25,46,4,35,28,3,

25,45,4,35,29,3,

24,45,4,42,29,3,

24,45,3,41,29,3,

24,45,5,41,29,3,

24,45,3,41,28,3,

24,45,4,41,29,4,

34,45,4,41,28,4,

34,44,4,39,28,3,

34,44,3,39,28,4,

34,44,3,39,28,3,

33,44,3,39,28,4,

33,44,5,39,28,4,

33,44,4,39,28,4,

32,43,3,39,28,4,

32,44,4,39,27,4,

32,43,3,38,40,3,

32,43,4,38,39,3,

31,43,3,38,39,4,

31,42,3,38,39,4,

31,42,3,38,39,3,

32,41,3,38,39,4,

31,41,4,38,38,3,

31,41,3,38,39,4,

31,41,3,37,39,4,

31,42,4,37,38,4,

31,40,4,37,38,4,

31,41,3,37,38,4,

31,39,3,36,38,4,

30,39,3,36,37,4,

31,39,4,36,37,3,

30,39,4,35,37,4,

31,39,3,36,37,3,

31,39,4,35,36,4,

31,39,3,35,37,4,

31,39,4,35,36,3,

31,39,4,35,36,4,

31,39,3,35,37,4,

31,39,4,35,35,3,

31,39,3,35,36,3,

31,39,3,34,35,4,

31,39,3,35,35,4,

31,39,3,35,35,4,

30,38,4,34,35,3,

30,38,3,34,34,4,

30,38,4,33,34,4,

36,38,3,34,35,4,

39,37,3,33,34,4,

39,37,3,33,35,3,

38,37,3,33,34,3,

38,37,4,33,34,4,

38,37,4,33,33,4,

38,37,3,33,33,4,

38,37,4,33,33,3,

38,36,4,32,34,3,

37,36,4,31,33,3,

37,35,3,31,33,3,

37,35,3,31,32,3,

37,35,4,31,33,3,

36,35,4,31,32,3,

36,35,4,31,33,3,

36,35,4,31,32,4,

36,35,4,31,31,4,

35,35,4,31,31,3,

35,34,3,31,31,4,

35,34,4,31,31,4,

35,34,4,31,31,3,

35,34,4,30,31,3,

35,33,4,30,31,4,

34,34,3,31,31,3,

35,34,3,30,31,3,

35,33,4,30,31,4,

34,33,4,30,30,3,

34,34,3,30,31,4,

33,33,3,30,30,4,

34,33,3,30,30,4,

33,33,4,29,30,3,

33,33,4,30,29,3,

34,33,3,29,29,4,

34,33,4,28,29,4,

33,31,4,29,29,3,

32,31,3,29,30,4,

33,31,3,29,29,3,

32,31,3,29,29,4,

31,31,3,28,29,4,

32,31,3,28,29,4,

32,32,3,28,28,5,

31,31,4,28,28,3,

31,31,3,30,29,3,

31,31,4,45,29,3,

31,31,3,44,28,3,

31,30,4,44,28,4,

31,31,4,44,28,3,

30,30,4,45,28,3,

31,30,3,44,27,3,

31,30,3,44,27,3,

30,30,5,43,28,4,

31,30,3,43,27,4,

30,35,4,43,27,3,

35,44,3,43,27,4,

35,57,3,43,26,3,

35,58,4,42,27,4,

35,57,4,42,27,3,

35,57,4,42,26,3,

35,57,4,41,26,3,

34,56,4,42,26,3,

35,56,3,41,27,3,

34,56,3,41,25,3,

34,56,3,41,25,3,

34,56,3,41,26,3,

34,55,4,39,26,3,

34,54,4,39,25,4,

33,54,4,39,26,4,

34,54,3,39,25,4,

32,53,4,39,25,4,

32,54,3,39,25,3,

33,53,4,39,25,3,

33,52,3,39,25,3,

33,53,4,39,24,3,

32,53,3,39,38,4,

32,53,3,39,39,3,

32,51,3,39,38,3,

33,51,4,39,37,3,

31,51,4,38,38,4,

31,51,4,38,37,3,

31,51,3,38,37,4,

31,51,3,38,36,4,

31,51,4,38,36,5,

32,50,4,37,35,3,

31,49,4,38,37,4,

31,50,4,38,36,4,

30,49,4,37,35,4,

31,49,3,36,36,4,

31,49,3,37,35,4,

31,49,4,36,35,4,

30,48,3,36,35,3,

31,48,4,38,35,4,

30,49,3,37,35,3,

30,48,3,37,35,4,

29,48,4,36,35,4,

