
9,17,3,21,16,3,

9,17,3,21,17,3,

9,16,3,21,15,3,

9,16,3,21,16,3,

9,17,3,21,15,3,

8,17,3,21,15,3,

9,16,3,21,15,3,

9,16,4,21,15,3,

9,15,4,21,16,3,

8,17,3,20,16,3,

9,15,4,20,15,3,

9,15,3,20,15,3,

7,16,3,21,15,3,

9,15,3,19,15,3,

8,15,4,20,15,4,

8,15,4,20,15,3,

9,15,3,20,15,3,

7,15,4,20,16,4,

8,15,4,19,15,4,

7,15,3,19,14,3,

9,15,3,19,15,4,

7,15,4,19,15,3,

8,15,3,19,17,3,

7,15,3,19,26,4,

8,15,4,19,26,3,

8,15,4,19,27,3,

8,15,3,19,26,4,

8,15,3,19,25,3,

7,15,4,19,26,3,

9,14,4,19,25,3,

7,14,3,19,26,3,

7,14,4,19,25,3,

7,14,3,19,25,3,

7,14,3,18,25,4,

7,14,3,18,25,4,

9,14,3,18,25,3,

7,15,3,18,25,3,

7,14,3,19,25,3,

9,14,3,18,25,4,

9,14,3,17,24,4,

7,13,4,18,24,3,

9,14,3,18,24,3,

9,14,3,18,24,3,

8,13,4,18,24,3,

8,14,3,18,24,3,

8,14,3,17,24,3,

8,13,3,18,24,3,

9,14,3,18,24,3,

9,14,3,17,24,3,

7,13,3,17,24,4,

8,13,3,17,24,4,

9,14,3,17,23,3,

9,13,4,17,23,3,

9,13,4,17,22,3,

9,13,3,17,23,3,

9,13,3,16,22,4,

9,13,4,17,22,3,

9,12,3,16,23,3,

8,12,3,17,22,4,

9,13,3,16,23,3,

8,13,3,17,22,3,

8,12,3,17,22,3,

8,13,3,16,22,3,

7,12,3,16,22,3,

7,13,5,15,22,3,

7,12,3,16,27,3,

7,13,4,16,35,3,

8,12,4,15,35,3,

7,12,3,15,35,3,

7,12,3,16,35,4,

7,12,4,15,35,3,

7,12,4,15,35,3,

7,12,3,16,34,3,

7,12,4,15,34,3,

7,11,3,15,34,3,

7,12,4,15,34,3,

7,12,3,15,34,3,

7,12,3,16,34,3,

7,11,3,15,33,3,

13,11,3,15,33,3,

13,11,3,14,32,3,

13,11,3,14,33,3,

13,11,3,15,32,4,

13,11,3,15,31,3,

13,11,3,15,32,4,

12,12,3,15,32,3,

13,12,3,14,31,4,

13,11,3,15,31,3,

12,11,3,14,31,3,

13,11,3,14,31,3,

12,11,3,14,31,3,

12,11,3,14,31,3,

13,11,4,14,30,3,

14,14,3,14,31,3,

14,15,3,14,31,3,

14,15,4,14,30,3,

13,14,3,14,30,3,

13,14,3,14,31,3,

13,14,3,14,30,3,

13,14,4,14,30,3,

13,14,3,14,29,3,

12,15,3,14,29,3,

12,14,3,14,30,3,

13,13,3,13,29,3,

13,14,4,14,29,3,

13,13,4,22,29,3,

12,14,3,24,29,3,

12,14,4,24,29,3,

12,13,4,24,28,3,

12,13,3,24,29,3,

12,14,3,24,29,3,

12,13,3,24,28,4,

12,14,3,24,28,3,

12,13,4,24,28,3,

12,13,3,23,27,3,

12,13,3,23,28,3,

12,13,3,23,28,3,

12,13,4,23,28,3,

12,13,4,23,28,3,

12,13,3,22,27,3,

12,12,3,23,27,3,

12,12,3,22,27,3,

12,12,4,22,26,3,

11,13,3,22,27,4,

12,12,3,23,27,3,

11,12,4,22,26,3,

12,13,4,21,27,4,

11,12,3,21,26,3,

11,13,4,22,26,3,

11,12,4,21,25,4,

11,13,3,21,25,4,

12,12,3,22,27,3,

12,12,3,21,26,4,

11,12,4,22,26,3,

12,12,3,21,25,4,

12,12,4,21,25,3,

11,12,4,21,25,3,

11,12,4,20,25,4,

11,12,4,21,25,3,

11,11,3,20,25,4,

12,11,3,21,24,3,

11,12,3,20,24,3,

11,11,4,21,28,4,

11,11,4,32,33,4,

15,31,3,34,34,3,

15,32,4,33,33,3,

15,31,4,32,32,4,

15,31,3,32,33,4,

14,31,4,32,33,3,

14,31,3,32,33,3,

15,31,4,31,31,3,

15,31,3,32,32,4,

15,30,4,31,32,4,

14,31,3,31,31,3,

14,30,4,31,31,3,

14,30,3,31,31,4,

24,30,4,31,31,3,

24,30,4,31,31,3,

24,29,4,31,31,4,

24,30,3,31,31,4,

24,29,3,31,30,3,

23,30,4,31,30,4,

23,29,4,30,31,3,

23,28,4,31,30,3,

23,29,5,30,30,3,

22,29,4,30,30,3,

22,28,3,29,29,4,

22,29,4,30,30,4,

22,28,3,29,29,4,

22,28,5,29,29,3,

22,28,4,29,29,5,

22,28,4,39,29,4,

21,27,3,38,28,4,

22,28,4,38,29,4,

22,27,4,37,29,3,

21,27,4,37,29,3,

21,27,4,37,29,4,

21,27,4,38,28,4,

21,27,4,36,28,4,

20,26,4,37,28,4,

20,27,5,37,28,3,

20,27,3,36,28,3,

20,27,4,44,28,4,

21,26,3,45,27,4,

20,26,4,49,28,4,

20,26,4,49,27,4,

20,26,4,48,27,3,

20,25,4,48,27,3,

19,25,3,48,27,4,

20,25,3,47,27,4,

20,42,4,48,26,3,

19,47,4,47,27,4,

19,48,4,46,26,4,

19,49,5,46,26,4,

19,48,3,46,25,4,

19,48,5,46,26,4,

19,47,4,46,27,5,

19,47,4,46,25,4,

19,47,4,46,25,3,

19,46,4,45,25,5,

19,46,3,45,25,4,

19,46,4,44,25,4,

19,45,4,44,25,5,

18,46,4,44,25,5,

18,46,4,44,24,3,

19,45,4,44,24,5,

18,45,5,44,25,5,

17,44,4,44,24,3,

18,45,3,43,25,4,

45,45,5,43,24,4,

51,44,4,43,24,4,

51,45,4,43,24,4,

50,44,4,42,24,4,

50,44,4,42,24,5,

50,44,4,43,24,4,

49,44,4,41,24,4,

49,44,4,41,24,4,

49,44,4,41,24,4,

49,44,4,41,23,5,

48,43,4,41,24,4,

48,43,4,40,23,4,

48,43,3,40,23,4,

47,42,3,39,23,4,

48,43,3,39,23,4,

47,42,4,39,23,4,

47,41,4,39,23,4,

46,41,4,39,23,3,

46,41,4,39,23,4,

46,41,4,39,23,3,

46,41,4,39,22,4,

46,41,4,39,22,4,

45,41,5,39,22,5,

45,39,4,39,22,4,

46,40,4,39,22,3,

45,39,4,39,22,5,

45,39,4,38,22,3,

44,39,3,38,22,4,

44,39,4,37,22,4,

44,39,5,38,22,5,

45,39,4,38,21,4,

45,39,4,38,31,5,

46,39,4,37,31,4,

45,39,4,37,30,4,

45,39,4,37,30,5,

45,38,4,36,30,4,

44,39,4,37,30,5,

44,38,4,36,30,4,

44,38,5,39,51,5,

44,38,4,67,99,4,

48,62,4,65,98,4,

49,61,5,65,97,5,

49,61,4,65,96,4,

49,61,5,64,96,4,

49,60,4,63,95,4,

49,60,4,63,95,4,

48,60,4,63,95,4,

48,59,5,63,93,5,

48,59,3,63,93,4,

48,59,5,63,93,5,

47,58,3,62,92,4,

47,58,4,61,92,4,

47,59,4,62,92,4,

47,58,4,62,91,4,

51,60,4,61,91,3,

52,58,5,61,91,5,

51,58,4,60,90,4,

51,58,4,60,89,4,

51,60,4,60,89,4,

51,60,5,60,89,4,

50,60,4,60,88,4,

51,60,4,59,88,5,

50,59,3,59,88,4,

49,59,5,58,88,5,

49,59,5,58,86,4,

49,59,4,58,87,4,

50,58,4,58,86,3,

51,57,4,60,88,5,

51,57,4,59,88,5,

50,57,4,58,87,5,

50,56,4,58,86,5,

50,56,5,58,86,5,

49,56,4,58,85,4,

50,56,4,57,85,4,

49,55,4,57,84,4,

48,56,5,57,84,5,

48,56,4,57,84,4,

48,54,4,57,83,4,

48,55,4,56,83,4,

48,55,5,56,82,5,

48,55,4,56,83,4,

47,55,4,56,82,5,

47,55,5,56,81,4,

47,53,4,55,81,3,

47,54,4,54,81,5,

47,53,5,54,81,4,

46,54,4,55,79,5,

46,52,5,54,79,4,

46,53,5,54,79,4,

45,53,5,53,79,4,

45,52,5,54,78,5,

46,54,5,54,78,5,

59,65,4,53,78,4,

59,65,4,52,78,5,

58,65,4,52,77,4,

58,66,4,52,77,4,

57,67,4,51,77,4,

57,65,4,52,76,4,

58,65,4,51,77,4,

56,64,4,51,77,4,

56,64,4,50,77,4,

56,64,4,50,76,5,

56,63,5,50,76,5,

56,63,4,50,75,4,

56,63,5,92,75,5,

55,62,5,91,74,4,

55,62,3,90,74,4,

55,63,4,90,74,5,

54,62,5,89,74,4,

54,62,4,89,73,3,

54,61,4,88,73,4,

53,61,4,88,73,5,

53,60,5,88,71,3,

53,60,4,87,71,5,

52,60,5,87,71,4,

52,60,4,86,71,4,

53,59,5,86,71,4,

52,60,5,96,115,4,

52,59,4,103,114,5,

52,59,4,103,113,4,

51,59,4,103,112,5,

51,58,5,102,111,5,

51,58,5,103,110,4,

51,58,4,102,110,4,

50,57,4,101,110,4,

51,57,4,100,109,4,

50,57,3,101,109,4,

50,57,4,100,108,4,

50,56,4,99,108,5,

82,120,4,99,107,5,

115,134,4,98,107,4,

113,133,4,97,106,4,

112,131,5,97,105,5,

112,131,5,96,104,4,

111,129,4,96,103,4,

110,130,5,96,103,5,

110,128,4,96,103,4,

109,127,4,94,103,5,

109,127,4,95,102,4,

108,127,4,93,101,5,

108,126,4,93,102,5,

107,125,5,93,101,4,

107,124,3,92,100,4,

142,123,5,92,99,4,

140,123,4,92,99,4,

139,123,4,91,99,4,

138,122,4,91,98,5,

137,121,4,90,98,4,

137,120,4,90,99,4,

137,120,5,89,99,5,

135,119,4,89,98,4,

135,119,4,88,98,4,

134,119,5,88,97,4,

133,118,4,88,97,5,

134,117,4,87,96,4,

133,117,5,87,96,4,

132,116,4,86,95,5,

131,115,3,86,95,4,

130,115,4,86,94,4,

130,114,4,85,94,4,

129,114,4,85,93,4,

129,113,4,85,93,3,

127,113,4,84,92,5,

127,113,4,83,92,4,

127,111,4,83,92,4,

126,111,5,83,91,4,

126,110,4,83,91,4,

125,111,5,83,91,4,

124,109,5,81,90,4,

124,109,5,81,89,4,

123,108,5,81,89,4,

122,108,4,80,88,4,

123,107,4,80,88,5,

121,107,5,85,88,5,

120,107,5,84,88,5,

120,106,4,83,87,5,

120,105,4,83,87,5,

119,105,5,83,86,4,

157,105,4,83,86,4,

156,103,4,82,85,4,

156,103,4,81,85,4,

154,103,5,81,85,4,

153,103,4,81,83,4,

153,102,4,81,83,4,

152,102,4,80,83,4,

152,101,5,79,83,4,

150,101,4,80,83,5,

150,100,4,79,82,4,

149,99,4,78,83,3,

148,99,4,79,81,3,

147,99,4,78,81,5,

147,98,4,78,80,4,

146,98,4,77,80,4,

145,99,4,78,80,4,

145,99,5,77,79,4,

144,98,3,77,87,4,

143,98,4,76,86,4,

142,97,4,76,86,4,

142,97,4,76,85,3,

142,97,4,75,85,4,

141,96,3,75,85,4,

142,96,4,75,84,4,

141,96,5,74,83,4,

140,95,4,74,84,4,

139,94,4,73,83,4,

139,93,3,73,82,5,

138,94,4,73,82,4,

137,93,4,72,82,5,

137,92,5,71,82,4,

135,92,5,71,81,4,

135,92,4,71,80,4,

135,91,4,71,80,5,

134,91,5,71,79,5,

135,89,4,71,79,5,

133,90,4,70,79,4,

132,89,4,71,79,4,

131,89,4,70,79,4,

132,89,4,69,79,4,

131,88,4,69,78,4,

131,88,4,70,78,5,

129,88,4,69,77,4,

129,88,4,69,77,3,

128,88,4,69,77,5,

128,86,5,68,76,4,

127,87,4,67,76,4,

126,86,4,67,76,4,

127,86,5,67,76,4,

126,85,4,67,75,4,

125,85,4,67,75,5,

125,84,5,67,75,4,

124,83,4,66,75,4,

124,84,4,66,74,4,

124,83,4,65,73,4,

122,83,4,65,73,4,

121,82,4,65,73,4,

121,82,4,65,73,4,

121,81,5,65,71,4,

120,82,4,64,71,5,

120,82,4,63,71,5,

120,80,4,63,71,4,

119,80,4,63,71,4,

119,80,5,63,71,4,

118,80,4,63,70,3,

117,79,4,63,70,4,

117,79,5,62,70,4,

117,79,4,62,69,4,

115,79,4,62,70,3,

115,78,4,61,69,4,

115,78,4,61,69,4,

114,77,4,61,68,4,

114,78,4,61,68,4,

114,76,3,60,67,4,

113,77,3,60,67,4,

112,76,4,61,67,4,

113,75,4,60,67,4,

112,75,3,59,67,5,

111,75,4,59,66,5,

111,75,4,59,65,4,

110,74,4,59,66,3,

110,74,3,58,65,4,

109,73,4,58,65,5,

109,74,3,57,65,4,

110,97,5,58,64,4,

152,145,4,57,65,4,

150,143,3,57,64,5,

150,143,4,57,64,4,

149,141,4,56,63,3,

148,142,4,56,63,3,

147,140,4,56,63,4,

147,139,5,56,63,5,

146,139,4,56,83,4,

145,139,4,56,83,4,

145,137,3,56,82,3,

143,137,4,55,82,4,

143,135,4,55,81,4,

142,135,5,55,80,5,

142,134,3,55,80,4,

141,134,4,54,79,3,

141,133,3,54,79,3,

140,132,4,54,79,3,

139,131,4,54,78,4,

138,131,4,53,78,4,

137,131,4,53,77,3,

137,130,3,70,77,3,

135,130,4,71,77,4,

135,129,4,71,77,3,

135,127,4,71,76,4,

134,127,4,71,76,4,

134,127,4,70,76,4,

133,126,5,70,75,4,

133,126,4,70,74,3,

132,125,3,70,74,5,

131,124,5,70,73,4,

131,124,4,68,73,4,

130,124,4,68,73,3,

130,122,4,68,73,3,

129,122,4,67,71,4,

128,121,4,67,71,4,

127,121,4,67,71,3,

127,121,4,67,71,4,

126,120,4,66,71,3,

126,120,4,67,70,5,

125,119,4,67,71,4,

125,118,3,67,70,4,

124,118,3,66,70,4,

124,117,4,66,69,5,

123,116,4,65,69,4,

122,116,4,66,69,4,

121,115,3,65,68,4,

121,115,3,65,68,4,

120,114,4,64,67,3,

121,113,5,65,67,4,

120,114,4,63,67,4,

119,112,3,63,66,4,

119,112,4,63,76,4,

118,112,3,63,75,3,

118,111,4,63,75,3,

117,111,5,62,75,5,

117,110,4,62,75,3,

115,109,5,61,73,3,

115,110,4,61,73,4,

115,109,4,61,72,4,

114,108,4,61,73,3,

113,107,4,61,71,5,

113,107,4,61,71,3,

113,106,5,60,71,4,

112,106,4,59,71,4,

112,106,4,59,70,3,

112,105,4,59,71,3,

111,105,3,59,71,5,

110,103,4,58,69,4,

109,103,4,58,70,4,

109,103,4,58,69,4,

109,103,4,57,69,4,

109,102,3,57,68,4,

108,102,4,58,69,4,

108,102,4,57,67,3,

107,101,4,56,67,4,

107,101,4,56,67,4,

105,101,3,56,66,3,

105,99,5,56,67,3,

105,99,4,56,66,5,

103,99,3,55,65,4,

105,99,5,55,66,4,

103,98,4,55,65,3,

103,98,4,55,65,3,

103,97,3,54,64,3,

103,97,3,54,65,4,

102,96,4,54,63,4,

101,96,3,54,63,4,

102,96,4,54,63,4,

101,95,3,53,63,4,

100,94,4,53,63,3,

100,94,4,52,62,4,

99,94,3,52,62,4,

99,93,4,53,63,4,

98,93,3,53,62,3,

98,93,4,51,61,5,

97,93,4,51,61,3,

98,92,3,51,61,4,

97,92,4,51,61,5,

97,92,4,51,61,4,

96,91,4,51,61,4,

96,91,3,50,60,5,

96,91,4,51,60,4,

95,91,4,50,60,4,

94,89,4,49,60,4,

94,89,4,49,59,4,

94,89,3,49,59,4,

93,89,4,49,59,4,

94,88,4,50,58,4,

92,88,3,48,58,4,

93,87,4,48,57,3,

92,87,3,48,57,4,

92,87,4,49,57,3,

91,86,3,49,57,4,

91,86,4,48,57,3,

90,86,4,47,57,4,

90,86,4,48,57,4,

90,86,4,47,56,4,

90,85,3,47,57,3,

89,84,4,48,56,3,

89,84,5,46,56,3,

88,83,4,46,56,3,

88,83,3,46,56,3,

88,83,4,46,55,3,

88,82,5,46,55,4,

88,82,3,46,54,5,

87,82,4,46,54,3,

87,81,3,46,54,3,

86,81,4,45,54,3,

86,81,3,45,54,4,

85,80,4,45,53,4,

86,79,5,45,53,3,

85,79,4,44,53,3,

85,80,4,44,53,4,

84,79,4,44,52,5,

83,79,4,44,52,3,

83,79,4,44,53,4,

83,78,4,43,52,3,

83,78,4,43,51,4,

83,78,4,44,51,3,

82,77,4,43,51,4,

82,77,3,43,51,3,

81,77,4,51,75,4,

82,77,4,137,153,4,

80,77,4,135,151,3,

80,76,4,134,150,3,

80,75,4,133,149,3,

79,75,4,132,148,3,

79,75,3,131,147,4,

158,75,4,131,146,4,

266,75,4,131,145,3,

291,73,3,130,144,4,

287,73,4,129,143,4,

286,73,5,128,143,4,

284,73,4,128,142,4,

282,71,4,127,142,4,

280,71,3,126,140,3,

279,71,3,125,140,4,

277,71,4,125,139,4,

276,71,3,124,139,3,

275,71,4,124,138,4,

272,71,4,123,137,3,

271,70,4,123,136,4,

270,70,3,122,135,5,

268,70,4,121,135,3,

266,69,4,121,135,3,

265,69,4,120,134,4,

263,69,4,120,133,3,

263,68,4,119,132,4,

261,67,4,119,131,4,

259,67,4,118,131,3,

258,67,4,117,131,4,

255,67,3,117,130,3,

255,67,4,116,129,5,

254,66,3,115,128,3,

253,66,4,115,127,4,

251,65,4,114,127,3,

250,65,4,114,126,4,

248,65,4,113,126,3,

247,64,3,112,125,4,

246,65,4,112,125,4,

245,64,3,112,124,4,

243,64,4,111,123,3,

243,63,4,110,123,3,

241,63,4,110,123,3,

240,63,3,109,121,4,

239,62,4,110,121,3,

238,63,4,109,121,4,

236,63,4,109,120,4,

235,61,4,108,120,4,

235,61,4,107,119,3,

233,61,3,107,118,3,

231,61,4,107,118,3,

231,61,4,105,117,3,

230,61,4,105,117,3,

228,60,3,104,117,4,

227,60,4,103,115,4,

226,59,3,103,115,4,

225,59,4,103,115,3,

224,59,4,103,114,4,

224,59,4,103,113,4,

222,58,4,103,113,3,

221,58,4,102,112,3,

220,57,4,101,112,4,

219,58,4,101,111,5,

218,58,4,101,110,5,

217,58,4,99,110,4,

216,57,4,99,110,3,

215,57,4,99,109,4,

214,57,4,99,108,5,

213,56,4,97,108,4,

211,56,4,97,108,4,

211,56,4,98,110,3,

210,56,4,97,110,5,

209,55,4,96,109,5,

207,55,5,96,108,4,

207,56,4,96,108,4,

206,55,4,95,108,4,

205,54,4,95,107,4,

204,53,4,94,107,4,

204,53,5,94,105,4,

202,54,4,94,105,4,

202,53,5,93,105,4,

201,53,4,93,105,4,

199,53,5,92,103,3,

199,52,4,92,103,4,

198,52,5,92,103,4,

197,52,4,91,103,4,

196,51,5,91,103,4,

195,51,4,90,102,3,

194,51,3,90,101,4,

193,51,5,89,101,5,

193,51,4,89,100,5,

192,51,4,89,101,5,

191,50,4,89,99,4,

190,50,5,88,99,4,

190,50,4,88,99,4,

189,49,4,88,98,5,

188,49,3,87,98,4,

187,50,4,86,98,5,

187,49,5,97,97,5,

186,49,4,96,96,5,

185,48,4,95,97,4,

184,49,5,94,96,3,

183,49,4,94,95,4,

183,48,5,94,95,4,

182,48,4,93,95,4,

182,48,4,93,95,4,

180,48,5,92,94,4,

179,47,4,92,93,5,

179,47,4,91,94,5,

178,47,5,91,93,4,

178,47,4,91,92,5,

177,47,4,90,92,5,

176,47,5,90,92,4,

175,47,5,90,91,4,

175,46,4,89,91,4,

174,46,4,89,90,4,

173,46,5,88,89,4,

172,45,4,88,91,4,

172,46,5,88,90,5,

171,45,5,88,89,4,

171,45,4,87,89,4,

170,45,5,86,88,4,

169,45,5,86,88,5,

167,44,5,86,88,4,

167,44,4,85,88,5,

167,45,5,85,87,5,

166,44,5,85,86,4,

166,44,5,85,87,4,

165,44,4,83,86,5,

164,43,4,83,86,4,

163,43,5,83,85,5,

163,43,4,83,84,4,

162,43,4,83,84,5,

162,43,5,83,84,4,

161,43,4,82,83,4,

159,59,4,82,83,5,

159,58,4,81,83,4,

159,57,4,80,82,4,

158,58,5,81,82,4,

157,57,4,81,82,4,

157,57,4,79,82,4,

157,57,4,80,81,4,

156,56,4,79,81,5,

155,56,5,79,80,4,

155,56,4,78,79,4,

153,55,4,79,79,5,

153,54,4,78,79,5,

152,55,4,78,79,5,

152,54,5,77,79,5,

152,54,4,77,78,4,

151,54,4,77,78,4,

150,53,4,76,78,4,

150,54,4,76,77,4,

149,53,4,76,77,4,

148,53,5,76,77,4,

147,52,5,75,76,4,

147,52,4,75,76,4,

147,52,4,74,76,4,

146,51,3,74,76,4,

146,51,4,74,75,4,

145,51,4,73,75,3,

143,51,4,73,75,5,

143,51,4,73,74,4,

143,50,4,73,74,5,

143,50,4,71,74,3,

142,49,4,71,73,4,

141,49,4,71,73,5,

141,49,5,71,73,4,

140,50,4,71,71,4,

140,49,5,70,73,4,

139,49,4,70,71,3,

139,49,3,70,71,4,

139,49,5,70,71,5,

138,71,4,70,71,5,

137,70,4,69,71,4,

137,70,5,69,70,5,

135,69,5,69,70,4,

135,68,4,68,69,4,

135,67,4,68,69,4,

135,68,4,69,69,5,

134,67,5,68,69,5,

134,67,4,67,69,4,

132,67,5,67,69,4,

133,66,3,67,68,4,

132,66,4,67,67,4,

131,66,4,66,67,4,

130,65,3,66,67,4,

131,64,4,66,67,5,

130,64,4,66,67,5,

129,65,4,65,66,4,

129,64,5,65,66,4,

128,63,3,65,66,3,

127,63,4,65,66,4,

127,63,4,65,65,5,

127,63,4,63,65,5,

126,63,4,63,66,5,

126,62,3,63,65,4,

126,62,3,63,63,3,

125,62,3,63,64,4,

124,61,4,63,64,4,

124,61,4,63,63,5,

123,60,3,62,63,4,

123,60,3,62,63,4,

123,60,5,62,62,4,

123,60,4,62,63,4,

122,60,4,61,62,4,

121,59,4,61,63,4,

121,59,4,61,62,3,

121,59,4,63,61,4,

120,59,5,62,61,5,

119,58,4,62,61,4,

119,57,4,62,61,4,

119,57,4,62,61,5,

118,57,3,61,60,4,

117,57,4,61,60,4,

117,57,4,60,60,5,

116,56,3,60,60,5,

116,56,4,61,60,3,

115,57,4,60,59,3,

115,56,4,60,59,4,

115,56,3,59,58,4,

114,55,5,59,58,4,

114,55,5,67,59,4,

113,55,4,68,58,4,

113,54,4,67,59,4,

112,55,3,67,58,4,

112,54,3,67,58,4,

112,53,4,66,57,4,

112,53,3,65,56,4,

111,60,4,66,57,3,

111,118,4,65,57,5,

110,117,4,65,56,4,

110,116,3,65,56,3,

109,115,3,64,56,4,

108,114,5,63,56,4,

108,115,3,63,56,4,

108,114,4,63,55,4,

108,113,3,63,55,3,

107,112,4,63,54,3,

107,111,4,63,55,4,

105,111,3,63,54,4,

105,110,4,62,54,3,

105,110,4,62,54,4,

103,109,4,61,53,4,

105,109,4,61,53,4,

103,108,4,61,54,4,

103,108,3,60,53,3,

103,108,4,60,52,4,

103,107,4,60,52,4,

102,106,4,60,53,4,

102,105,3,59,51,5,

101,105,4,59,51,4,

101,103,5,59,51,5,

100,103,4,59,51,4,

100,103,4,58,51,3,

99,103,3,58,51,4,

99,103,3,58,50,3,

99,103,4,58,50,3,

99,102,3,57,50,3,

99,101,5,61,50,3,

98,100,4,60,49,4,

97,99,4,60,49,4,

97,100,5,60,49,4,

97,99,3,60,49,4,

96,99,3,59,49,3,

96,98,3,59,49,4,

96,98,3,59,48,4,

95,98,4,59,48,3,

95,98,4,58,48,4,

95,97,3,58,48,4,

94,97,4,57,47,4,

94,96,4,58,47,3,

93,96,4,57,48,4,

93,95,3,57,47,3,

93,96,4,57,47,4,

93,94,4,57,47,3,

92,94,3,56,47,4,

92,93,3,56,46,3,

92,94,3,56,46,4,

91,92,4,56,46,4,

91,92,3,56,46,3,

90,92,4,55,45,4,

90,92,3,55,46,4,

90,92,4,55,45,4,

90,91,3,55,45,4,

89,90,4,54,45,4,

88,89,3,54,45,4,

88,89,4,54,44,3,

88,89,4,53,44,3,

88,89,4,54,45,4,

88,88,3,54,44,3,

87,88,4,53,44,4,

87,88,5,53,44,3,

86,88,4,53,44,4,

86,87,4,52,43,4,

87,87,4,52,43,3,

86,86,5,53,43,4,

85,86,4,53,43,3,

85,85,3,51,43,3,

85,85,4,51,43,3,

85,85,4,51,43,4,

84,85,4,51,42,3,

83,84,3,51,42,3,

83,84,4,51,42,4,

83,84,4,50,41,4,

83,83,3,50,41,3,

82,83,5,50,42,3,

82,83,4,49,42,4,

81,83,4,50,42,3,

82,83,3,49,41,3,

81,82,3,49,41,4,

81,82,3,49,41,4,

81,81,4,49,39,3,

81,82,4,49,39,3,

80,81,4,48,39,3,

79,81,3,48,39,3,

79,80,4,48,39,3,

79,81,3,48,39,4,

79,79,5,48,39,4,

79,79,4,47,39,3,

79,79,4,48,39,3,

78,79,4,47,48,4,

78,79,4,46,47,4,

78,78,4,46,46,3,

77,78,3,47,46,4,

77,78,3,47,46,4,

78,77,3,47,46,3,

77,77,5,46,45,3,

76,77,3,46,46,3,

76,76,3,45,45,4,

75,76,3,46,45,5,

76,76,4,45,44,3,

75,75,4,45,44,4,

75,75,4,45,44,3,

75,75,5,46,44,3,

75,75,4,44,44,3,

75,73,3,45,44,4,

74,73,4,44,44,5,

73,73,4,44,43,3,

73,73,3,45,44,4,

73,73,3,44,43,3,

73,71,3,44,42,3,

71,73,3,44,43,3,

71,71,3,43,42,3,

71,71,3,43,42,4,

71,71,3,44,42,3,

71,71,4,43,41,4,

71,71,4,43,41,4,

71,71,3,71,41,5,

71,70,3,71,41,4,

70,70,4,71,40,4,

70,69,3,70,41,3,

70,70,4,70,39,4,

70,69,4,69,39,3,

70,69,4,69,39,3,

69,68,4,69,39,4,

69,68,3,68,39,4,

68,68,4,68,39,4,

68,67,4,67,39,3,

68,67,5,67,39,4,

67,67,3,67,39,3,

67,67,4,67,39,4,

67,67,3,67,39,4,

67,67,3,66,39,4,

67,65,3,67,39,4,

66,66,4,66,38,3,

66,66,3,65,38,3,

66,66,3,65,38,4,

66,66,3,64,39,4,

65,64,4,64,38,4,

65,64,3,64,37,4,

65,64,5,63,37,3,

65,63,4,63,38,3,

64,63,3,63,37,5,

65,63,4,63,37,3,

64,63,4,63,37,3,

65,63,3,63,37,4,

63,62,4,109,38,4,

63,62,3,108,38,3,

63,62,4,107,38,4,

63,62,4,106,38,4,

63,61,3,106,37,4,

63,62,4,105,37,4,

62,61,3,105,37,4,

62,60,4,103,36,3,

62,60,4,103,37,3,

61,60,4,103,37,3,

61,60,4,103,36,4,

61,60,4,102,36,3,

60,59,3,102,36,5,

60,59,3,101,36,4,

60,59,3,101,35,4,

61,59,4,100,35,4,

59,58,4,99,35,4,

60,57,3,100,35,4,

60,58,4,99,34,3,

59,57,3,98,35,4,

59,57,4,98,34,3,

59,57,4,97,34,3,

59,57,4,97,34,3,

59,56,4,97,34,4,

58,56,4,96,34,3,

58,56,3,96,34,3,

58,56,4,96,34,3,

57,56,3,96,33,3,

57,56,3,95,33,3,

57,55,3,95,33,3,

57,56,4,94,33,4,

56,55,4,94,33,3,

56,54,4,94,34,4,

56,55,5,93,33,3,

57,54,4,93,33,4,

56,54,4,93,32,3,

56,54,4,92,33,4,

56,54,3,91,33,3,

56,53,4,92,32,4,

56,53,4,91,31,4,

55,53,5,90,31,3,

54,53,4,90,31,3,

54,53,5,90,31,4,

55,52,3,89,31,3,

54,51,5,89,31,5,

53,51,4,88,31,3,

54,51,4,88,31,3,

53,51,4,88,31,3,

53,51,3,88,31,5,

53,51,3,88,31,4,

53,51,4,87,31,3,

52,50,4,86,30,3,

53,50,3,86,30,4,

52,50,4,85,30,3,

51,50,4,85,30,3,

51,50,4,85,30,3,

52,49,4,84,29,3,

51,50,3,83,30,4,

51,49,3,83,29,3,

51,48,3,83,30,4,

51,49,3,83,29,4,

51,48,4,83,29,4,

50,48,4,82,30,3,

50,48,3,82,30,4,

50,47,3,81,29,4,

49,48,4,81,29,3,

50,47,4,81,29,3,

50,48,4,81,28,3,

50,46,3,80,28,3,

49,47,4,80,28,4,

49,46,4,79,28,3,

49,47,4,79,28,4,

49,46,4,79,28,3,

49,46,4,78,28,3,

48,46,3,79,28,3,

48,46,3,78,28,5,

48,45,3,78,27,3,

48,45,4,77,27,4,

47,45,3,77,27,3,

47,45,4,77,28,4,

48,44,3,76,27,4,

48,45,4,76,27,3,

46,45,4,77,38,5,

47,44,3,76,37,4,

46,44,3,75,36,3,

47,44,4,75,36,3,

46,43,4,75,37,3,

46,44,3,74,36,4,

46,44,3,75,35,4,

45,43,3,73,35,4,

45,43,3,74,35,3,

46,43,4,73,35,4,

45,43,4,73,35,3,

45,42,3,73,35,3,

45,41,3,73,34,3,

44,42,4,71,34,3,

45,42,5,71,35,3,

44,41,3,71,34,3,

44,41,3,71,34,4,

45,42,3,71,34,4,

44,41,3,70,34,4,

44,41,3,70,34,4,

44,41,3,70,34,4,

44,41,4,69,34,4,

43,39,4,69,33,3,

43,39,4,70,33,3,

43,39,4,69,33,4,

42,39,4,71,33,3,

42,39,4,71,33,3,

43,39,4,70,31,3,

43,39,3,70,32,3,

42,39,4,70,31,4,

41,39,3,70,33,4,

41,39,3,69,31,4,

41,39,4,69,32,4,

42,39,4,68,31,3,

40,38,3,68,31,3,

41,39,4,68,32,3,

41,38,3,68,31,4,

41,38,4,67,30,3,

39,38,4,67,30,4,

39,37,3,67,30,4,

39,37,3,67,30,3,

41,38,5,66,30,4,

39,37,4,66,30,4,

39,37,3,66,30,4,

39,37,4,66,30,4,

39,37,4,65,30,4,

39,36,5,65,30,4,

39,36,4,65,29,3,

39,36,4,65,29,4,

39,37,3,65,30,3,

39,36,4,64,29,4,

39,36,3,63,29,3,

38,35,3,63,29,4,

38,36,4,63,29,4,

38,35,3,63,28,3,

38,35,3,63,28,3,

39,35,3,62,28,3,

38,35,4,63,28,5,

38,35,4,62,28,3,

37,34,3,62,28,3,

37,35,3,61,27,3,

37,37,4,61,28,4,

37,36,4,61,27,4,

37,36,4,61,27,4,

37,36,4,61,28,4,

36,36,3,60,27,3,

37,36,4,60,27,3,

35,36,4,60,27,4,

36,35,3,60,27,4,

35,35,4,60,26,4,

36,35,4,60,26,4,

35,37,4,59,26,3,

36,36,4,58,27,5,

35,36,4,59,26,4,

35,36,3,57,26,4,

35,35,3,58,26,3,

35,35,4,57,26,3,

35,35,4,57,25,4,

35,35,4,57,25,3,

35,35,3,57,26,3,

35,35,5,57,52,4,

34,35,3,57,51,5,

34,35,4,56,51,4,

34,34,3,56,51,4,

34,35,4,56,51,4,

34,35,4,56,50,3,

34,35,3,55,51,3,

34,34,4,55,50,3,

33,34,3,55,50,3,

33,34,4,55,50,3,

34,34,4,55,50,3,

34,34,3,58,49,3,

33,34,5,57,49,3,

33,33,3,57,49,3,

33,33,3,56,48,3,

33,33,3,57,48,5,

33,33,4,56,48,3,

32,32,3,56,48,3,

32,31,3,57,48,3,

31,32,4,56,47,3,

32,32,3,55,48,4,

31,32,4,55,47,3,

32,32,3,55,47,3,

31,31,3,55,46,4,

32,31,3,54,46,4,

31,31,4,54,46,3,

31,31,3,54,46,4,

31,31,3,54,46,4,

31,31,3,54,45,3,

31,31,3,53,46,4,

30,31,4,53,45,4,

30,30,4,63,45,3,

31,31,3,63,45,4,

30,30,4,62,44,4,

30,30,4,61,44,4,

30,31,4,61,44,4,

30,63,3,60,44,4,

30,63,3,60,43,4,

30,63,3,60,44,4,

30,62,4,60,43,4,

30,62,4,60,43,3,

29,62,4,60,43,3,

29,61,3,59,43,4,

29,61,4,59,42,3,

29,60,4,58,42,4,

29,60,3,58,42,4,

30,60,3,58,41,3,

29,60,3,57,42,4,

28,59,4,57,41,3,

28,59,4,57,42,3,

28,58,3,57,41,3,

28,59,4,57,41,3,

29,58,3,56,41,4,

29,58,4,56,39,4,

28,57,3,56,41,4,

28,58,4,56,39,3,

28,57,4,56,41,4,

27,57,3,56,39,4,

28,56,4,55,39,4,

28,56,3,55,39,4,

28,56,4,55,39,3,

28,56,4,54,39,3,

27,56,4,54,39,4,

27,56,4,54,39,4,

27,55,4,53,39,4,

27,54,4,53,38,4,

27,55,3,53,39,3,

27,54,3,53,38,4,

27,54,3,53,38,4,

26,53,4,52,39,4,

27,53,3,52,38,4,

26,53,3,51,38,3,

27,53,4,52,38,4,

25,52,4,52,37,3,

25,52,3,51,37,4,

26,51,4,51,37,4,

25,52,5,51,36,4,

26,52,4,50,37,4,

26,51,3,50,36,3,

25,51,3,51,36,5,

25,51,3,50,35,3,

26,50,4,49,35,3,

25,51,3,50,36,4,

25,50,3,50,35,3,

25,50,4,49,35,3,

25,50,4,50,35,4,

25,49,3,49,35,4,

24,49,4,48,35,3,

24,49,3,49,35,4,

25,49,3,48,34,4,

24,49,3,48,34,4,

24,48,3,48,35,3,

24,48,3,48,35,4,

25,48,3,47,34,3,

24,48,3,55,33,4,

24,48,3,88,34,3,

24,47,4,87,33,3,

24,63,4,86,33,4,

24,63,3,86,33,4,

24,62,4,85,33,3,

23,61,3,85,33,4,

24,61,3,84,32,3,

24,61,4,84,33,4,

23,62,4,83,31,3,

23,61,3,83,32,4,

23,60,3,83,31,3,

24,60,4,83,31,3,

23,59,3,82,32,3,

23,60,3,82,31,3,

23,60,4,81,31,4,

23,58,3,81,31,3,

22,58,3,80,31,4,

22,58,3,80,31,4,

22,58,4,79,31,4,

22,57,4,79,31,3,

22,58,4,79,31,4,

21,57,3,79,31,5,

22,57,3,79,30,4,

22,57,4,78,30,4,

21,57,3,78,30,3,

21,56,3,77,30,4,

21,56,4,77,29,3,

21,56,4,77,30,4,

21,56,3,77,29,3,

22,55,3,76,29,3,

22,55,4,76,29,4,

21,54,4,75,29,3,

20,54,3,76,30,3,

20,54,4,75,29,3,

20,53,3,75,28,4,

21,53,4,74,29,3,

21,53,3,73,28,4,

21,53,4,73,29,4,

20,53,4,73,29,4,

19,53,4,73,28,3,

19,52,4,73,28,4,

20,52,3,73,28,4,

19,52,3,71,28,4,

19,51,3,71,28,3,

19,51,4,71,27,3,

20,51,4,71,27,3,

19,51,4,71,27,4,

19,50,3,71,27,3,

19,50,3,71,27,4,

19,50,3,70,26,3,

19,49,3,70,27,4,

19,49,3,69,27,3,

19,49,4,69,27,3,

19,50,4,68,26,4,

19,49,3,69,26,4,

21,49,3,68,25,3,

21,48,4,68,26,4,

20,49,4,68,26,4,

21,49,4,67,26,3,

20,48,4,67,26,3,

19,48,4,67,25,4,

20,48,3,67,26,4,

19,47,3,66,26,3,

20,47,3,66,25,4,

20,47,4,66,25,3,

20,46,4,65,24,4,

20,46,3,66,25,4,

38,46,3,65,25,4,

38,46,3,64,25,3,

38,46,3,64,25,4,

37,46,3,63,25,3,

37,46,4,65,25,4,

37,45,4,63,24,3,

37,45,4,63,24,3,

36,45,3,63,24,3,

36,45,3,63,24,4,

36,44,4,63,24,4,

36,44,4,62,24,4,

35,44,3,62,24,4,

35,44,3,61,24,4,

35,44,3,62,24,3,

35,43,4,62,24,3,

35,43,4,62,23,4,

35,44,3,61,23,3,

35,43,3,60,23,3,

35,43,4,60,23,3,

35,43,4,60,23,3,

34,43,4,60,22,3,

34,42,4,59,22,3,

34,42,3,59,23,3,

34,42,4,59,23,4,

34,41,4,59,22,3,

34,41,3,58,23,4,

33,41,4,58,22,4,

52,44,3,58,22,4,

51,44,4,57,22,3,

51,45,3,58,22,4,

51,44,3,57,21,3,

50,44,4,57,23,3,

50,44,4,57,22,3,

51,43,3,56,21,3,

50,43,4,56,22,3,

49,43,4,56,22,3,

49,43,4,56,22,3,

49,43,4,56,21,4,

48,43,4,56,21,4,

48,43,3,55,21,3,

48,42,3,55,22,4,

48,42,4,56,21,4,

48,41,4,54,21,4,

47,41,4,54,21,4,

48,42,3,55,20,4,

48,42,4,53,21,4,

47,41,3,53,20,4,

47,41,4,54,21,3,

47,40,4,53,20,3,

47,39,3,53,20,4,

46,41,4,53,20,4,

45,39,3,52,19,3,

46,39,4,52,20,4,

46,39,3,51,20,3,

45,39,3,51,19,4,

45,39,4,51,19,4,

45,39,4,51,21,3,

45,57,4,51,19,4,

44,57,3,51,19,4,

45,56,4,51,19,4,

44,56,3,50,19,4,

44,55,4,50,19,3,

44,55,3,50,19,4,

44,55,3,50,19,4,

44,54,4,50,19,4,

43,55,3,49,19,3,

42,55,3,50,19,3,

42,54,3,49,18,4,

43,53,4,49,18,3,

42,53,4,49,18,4,

42,53,3,49,19,3,

42,52,4,48,19,3,

42,52,4,48,18,3,

41,52,4,48,18,4,

41,51,4,48,18,4,

40,51,3,48,18,4,

41,51,4,48,18,4,

41,51,3,47,18,3,

39,51,3,47,18,4,

39,51,4,46,18,3,

39,51,3,46,17,4,

39,51,3,47,17,4,

39,50,3,46,17,4,

39,50,4,46,17,3,

39,49,3,46,18,3,

39,50,4,46,17,3,

39,49,4,45,17,4,

39,49,3,46,18,4,

39,48,4,46,19,5,

38,48,3,45,18,3,

39,48,4,45,19,4,

38,48,4,45,18,4,

38,48,3,45,18,4,

38,48,3,45,18,3,

37,47,4,44,18,4,

37,47,3,44,17,3,

37,47,3,44,18,4,

37,46,3,43,18,4,

37,47,3,43,17,3,

37,46,3,43,17,4,

36,46,3,43,17,3,

36,46,3,42,17,4,

36,45,4,43,17,3,

36,45,3,43,17,4,

35,45,3,42,17,3,

35,45,3,42,17,4,

35,45,3,41,17,4,

35,48,5,41,17,3,

35,47,4,42,17,4,

35,47,3,41,16,3,

34,47,3,41,15,3,

34,46,4,41,17,4,

34,47,3,41,16,4,

34,46,4,41,15,4,

34,47,3,40,15,3,

34,45,3,39,15,3,

34,46,4,41,15,4,

34,45,4,39,16,4,

33,46,4,41,15,3,

34,45,3,44,16,3,

34,45,3,45,16,4,

33,45,3,44,16,3,

33,44,4,44,16,3,

33,44,3,44,15,4,

32,44,4,43,31,4,

33,44,3,44,31,3,

32,44,3,44,32,3,

31,43,5,43,31,3,

32,43,4,43,31,4,

31,43,3,42,31,3,

32,43,3,42,30,4,

31,42,3,42,31,3,

32,42,4,42,30,3,

31,43,4,41,30,3,

31,43,3,41,31,4,

31,42,4,41,30,4,

31,42,3,41,29,3,

31,41,4,40,30,4,

31,41,3,41,29,4,

30,41,3,39,29,4,

30,41,3,39,29,3,

30,41,3,39,29,4,

30,39,3,39,29,5,

31,39,3,39,29,3,

30,39,4,39,28,4,

30,54,3,39,28,3,

30,53,3,39,28,3,

29,53,4,39,28,3,

30,52,3,39,29,4,

29,53,3,39,28,4,

29,52,4,39,28,4,

29,53,4,38,28,4,

29,51,3,38,27,4,

28,51,3,38,27,3,

29,51,3,37,27,4,

28,51,4,38,27,3,

28,51,3,38,27,3,

28,51,3,38,27,3,

28,50,3,37,26,3,

28,50,3,38,27,3,

28,50,3,37,27,3,

28,50,4,37,26,3,

28,50,4,37,26,3,

27,49,3,36,26,3,

28,49,3,37,25,4,

27,49,4,36,26,3,

27,48,4,37,26,4,

28,48,3,36,25,3,

27,49,4,36,26,4,

27,48,3,35,26,3,

26,48,4,36,25,4,

26,48,3,35,25,3,

27,48,3,35,24,3,

26,48,3,35,24,3,

25,47,3,35,25,4,

26,47,4,35,25,3,

26,46,4,34,24,3,

25,46,4,35,24,3,

25,46,4,34,25,4,

25,46,3,35,24,3,

25,46,4,34,24,4,

26,46,3,34,24,4,

25,45,3,34,24,3,

25,45,4,34,24,3,

25,45,4,34,24,3,

25,44,4,33,24,3,

25,45,4,33,23,4,

25,44,3,33,23,4,

24,44,3,33,23,3,

25,44,3,33,23,3,

24,43,4,33,23,4,

25,43,4,32,24,4,

25,43,4,32,22,4,

24,43,3,32,23,3,

24,43,3,31,23,4,

24,42,3,31,23,3,

24,41,3,32,23,4,

24,42,3,31,23,3,

24,42,4,31,22,4,

24,41,3,31,22,3,

24,41,4,31,22,4,

24,41,4,31,22,3,

24,41,3,31,22,3,

23,41,5,31,22,3,

24,41,3,31,21,4,

23,41,4,31,21,3,

22,41,4,30,22,5,

23,41,4,30,22,3,

23,39,3,30,22,4,

23,44,3,30,22,3,

23,44,3,30,22,3,

22,44,3,30,22,3,

23,44,4,30,22,3,

22,43,4,30,22,4,

22,44,4,30,22,3,

22,43,4,29,22,3,

22,43,3,29,22,4,

21,42,3,30,21,3,

21,42,4,29,21,4,

22,42,3,30,21,3,

22,41,3,29,21,5,

22,42,3,29,21,3,

22,41,3,29,21,4,

21,41,4,29,21,3,

22,41,3,29,21,4,

21,41,3,28,20,3,

21,41,3,29,21,3,

20,39,4,29,20,4,

20,39,3,28,20,4,

21,39,3,28,19,4,

21,39,4,28,20,4,

20,39,3,28,20,3,

19,39,3,28,19,3,

19,39,3,27,19,3,

19,39,3,27,19,3,

20,38,3,27,21,3,

19,39,4,28,19,4,

19,39,4,27,19,4,

19,39,4,27,19,3,

19,38,3,27,19,4,

19,38,3,27,19,4,

19,38,3,26,19,4,

19,38,3,27,19,4,

19,38,4,26,19,3,

19,38,4,26,19,4,

19,37,3,27,19,4,

19,37,3,26,19,4,

19,37,4,26,19,4,

19,37,4,26,18,3,

18,37,4,26,18,4,

19,36,4,25,18,3,

18,36,3,25,18,3,

19,36,4,25,19,3,

18,35,4,25,18,3,

19,35,4,25,18,4,

18,35,4,25,18,3,

18,35,3,30,17,3,

18,35,5,30,18,4,

18,35,3,30,18,3,

18,34,4,29,18,3,

18,35,3,30,18,3,

17,35,3,29,17,4,

18,34,4,29,17,4,

18,35,3,28,18,4,

18,34,3,29,18,3,

18,34,3,28,17,4,

18,34,3,28,17,3,

16,33,3,28,17,3,

17,33,4,28,17,3,

17,34,3,28,17,3,

17,33,3,28,17,3,

17,32,4,28,17,3,

17,33,3,28,16,4,

16,33,4,28,17,3,

17,32,3,28,16,4,

16,32,4,28,17,3,

16,32,4,28,16,3,

16,31,4,28,16,3,

17,31,4,28,15,3,

16,31,3,29,16,4,

17,31,3,28,16,3,

16,31,4,28,16,5,

17,31,3,28,15,3,

16,31,3,28,15,4,

16,55,4,29,15,4,

15,62,3,27,16,3,

15,61,3,28,15,4,

16,60,3,27,15,4,

16,60,4,27,15,4,

15,60,3,28,15,3,

15,59,3,27,15,3,

15,59,3,27,15,4,

16,60,5,27,15,3,

15,59,3,27,15,3,

15,59,3,26,15,3,

15,58,3,27,15,3,

15,58,4,26,14,3,

15,58,4,26,15,4,

15,57,3,26,15,4,

15,58,3,26,15,4,

14,57,4,26,15,4,

15,56,4,25,15,4,

14,56,3,25,14,4,

14,56,4,25,14,3,

15,56,3,26,15,3,

14,56,4,26,15,3,

14,56,3,25,14,5,

14,55,3,26,15,3,

15,54,4,25,14,3,

15,54,3,25,14,4,

15,54,3,25,15,3,

15,54,4,25,14,3,

15,54,4,25,15,4,

15,54,3,25,15,3,

15,54,3,25,15,3,

15,53,4,24,15,4,

15,53,4,25,14,3,

14,53,4,24,14,3,

14,52,3,24,14,3,

14,53,4,24,14,3,

15,52,3,25,15,4,

14,51,4,24,14,4,

14,51,3,24,14,4,

14,51,4,24,14,4,

14,51,4,24,14,3,

15,51,4,24,14,4,

14,50,3,24,14,4,

15,50,3,24,14,5,

14,49,4,24,13,4,

14,50,4,24,14,4,

14,50,4,23,14,3,

15,49,4,23,13,3,

14,49,3,23,13,4,

14,49,3,23,14,3,

13,48,4,22,14,4,

14,48,3,23,17,3,

13,48,4,22,17,4,

13,47,3,22,16,3,

14,48,3,22,16,3,

14,47,3,23,16,3,

13,48,3,22,17,4,

13,47,3,22,16,3,

13,47,3,22,16,3,

14,46,3,22,16,4,

13,46,3,22,17,4,

14,47,3,22,15,5,

13,46,3,21,16,3,

13,45,4,21,16,3,

13,45,3,22,17,4,

13,45,4,21,16,3,

13,45,3,21,15,3,

13,45,4,21,16,3,

12,45,4,21,16,4,

17,83,4,21,15,4,

16,82,3,20,15,3,

17,82,4,20,16,4,

16,81,3,21,15,4,

17,81,3,21,15,4,

17,80,3,21,15,3,

16,80,4,20,15,3,

16,79,5,21,19,3,

16,79,3,21,19,4,

16,78,3,20,19,4,

16,78,3,20,19,3,

15,78,4,20,19,3,

16,77,3,20,19,3,

15,77,3,20,18,3,

16,76,3,20,19,3,

16,77,4,19,18,3,

15,77,4,19,18,3,

15,76,3,19,19,3,

15,76,4,19,18,4,

15,75,3,19,18,3,

15,75,3,19,18,3,

15,75,3,19,18,4,

15,74,4,19,18,3,

15,73,3,18,18,4,

15,73,3,19,17,3,

15,73,4,19,18,4,

14,71,3,19,18,3,

15,73,3,19,18,4,

15,71,3,19,18,4,

15,71,3,19,17,3,

15,71,4,18,18,4,

15,71,4,18,17,4,

15,71,3,18,17,4,

15,71,4,19,17,3,

14,70,5,17,17,3,

14,70,3,17,17,4,

14,70,4,17,17,5,

14,69,4,17,17,4,

14,69,3,18,17,4,

14,69,4,18,16,3,

14,68,3,18,16,3,

14,68,4,18,16,4,

15,68,4,17,16,3,

14,67,4,17,16,3,

14,66,3,18,15,3,

14,67,4,17,15,4,

14,67,3,17,46,3,

14,66,3,17,45,4,

14,66,4,16,45,4,

14,65,3,17,45,3,

14,65,3,16,45,3,

18,65,3,16,44,4,

19,64,3,17,44,5,

19,64,3,32,44,3,

18,64,3,32,44,3,

18,63,4,31,44,3,

18,63,3,31,44,5,

17,63,4,31,43,4,

17,63,3,30,43,3,

17,63,4,30,43,3,

17,63,3,31,43,3,

17,62,3,30,42,3,

17,62,4,30,42,3,

17,61,4,30,42,4,

17,62,4,30,41,3,

17,61,4,30,41,4,

17,61,4,29,41,3,

17,61,4,30,41,3,

16,61,4,29,41,4,

17,60,5,29,40,3,

17,60,3,29,41,4,

17,60,3,28,39,4,

17,59,4,28,39,3,

17,59,5,29,39,3,

16,59,3,29,39,4,

16,58,3,28,39,3,

16,59,4,28,39,4,

16,58,3,28,39,3,

16,57,3,28,39,3,

16,58,3,28,39,4,

16,57,4,28,38,4,

17,57,3,28,39,4,

15,57,3,28,38,3,

16,56,4,27,38,4,

15,56,3,27,38,4,

16,56,3,27,38,5,

15,56,3,27,38,3,

15,56,4,27,38,4,

15,56,4,27,37,4,

16,55,4,26,37,4,

16,55,3,26,37,3,

16,54,4,25,37,3,

15,55,4,27,37,4,

15,55,4,26,36,3,

15,54,4,25,35,3,

15,53,4,26,36,4,

15,53,3,25,36,3,

15,53,3,26,36,4,

15,54,5,25,36,4,

15,53,4,25,35,4,

15,52,4,25,35,4,

15,53,4,25,35,3,

15,52,3,25,35,3,

15,52,3,25,34,3,

15,51,4,25,35,3,

15,51,4,30,34,3,

15,51,4,29,34,4,

15,50,3,29,34,3,

14,51,4,29,33,3,

15,51,3,29,34,4,

15,50,3,29,33,3,

15,50,4,29,34,4,

14,50,4,28,33,4,

14,50,3,28,33,3,

14,49,3,28,33,4,

14,49,3,28,33,3,

14,49,4,27,32,3,

14,49,5,28,31,4,

14,48,3,28,32,5,

14,48,3,27,31,3,

15,48,3,29,31,4,

14,48,3,28,31,3,

14,47,4,28,31,3,

13,48,4,28,31,3,

13,47,4,28,31,3,

13,47,4,27,31,4,

13,47,3,27,31,4,

14,46,3,27,31,3,

13,46,3,27,31,3,

13,73,5,27,31,5,

13,73,3,27,35,4,

13,72,4,26,34,4,

13,71,3,27,34,3,

13,71,4,26,33,3,

13,71,4,26,34,3,

13,71,4,26,34,3,

13,70,4,26,33,4,

12,70,3,25,34,3,

13,70,4,25,33,3,

13,70,3,25,33,3,

13,69,3,25,33,4,

12,69,3,25,32,3,

12,68,4,25,32,4,

13,69,4,25,32,3,

12,68,3,25,33,4,

13,68,4,25,32,5,

13,67,3,25,32,3,

12,67,3,24,31,3,

12,67,4,24,31,3,

12,66,3,25,31,4,

12,66,3,25,31,4,

12,66,4,24,31,4,

12,66,4,24,32,3,

12,65,4,24,32,3,

12,66,4,24,32,4,

12,65,3,23,31,4,

12,63,3,24,31,3,

12,63,4,24,32,3,

12,64,4,24,31,4,

12,63,4,24,31,3,

12,63,3,24,31,4,

12,63,5,24,31,4,

12,62,3,24,31,4,

12,62,3,23,30,4,

12,62,3,24,31,3,

12,62,3,22,30,4,

11,62,3,22,30,3,

11,61,4,23,30,4,

11,61,3,23,30,3,

11,61,4,22,30,3,

11,61,4,23,29,3,

11,60,3,22,30,3,

11,60,3,22,29,3,

11,60,3,23,30,4,

11,60,3,23,29,4,

11,59,4,22,29,4,

10,59,3,22,29,3,

11,58,4,22,28,3,

11,58,3,21,28,3,

10,59,3,21,28,3,

10,58,3,21,28,3,

11,58,4,22,28,3,

11,57,3,22,28,3,

11,57,3,38,28,3,

19,57,3,39,28,4,

53,56,3,38,27,4,

53,56,4,38,28,4,

52,56,3,37,27,3,

51,56,4,37,27,4,

51,56,3,38,27,3,

51,55,4,38,27,4,

51,55,3,37,27,3,

51,55,3,37,26,3,

51,55,3,37,26,3,

50,54,3,36,26,3,

49,55,4,36,26,3,

49,54,4,36,26,3,

49,54,4,36,26,3,

49,54,4,35,26,4,

49,53,3,35,25,3,

48,52,4,35,25,4,

48,53,3,35,25,4,

48,53,5,34,26,3,

48,52,4,34,25,3,

48,52,4,73,26,3,

48,51,4,76,26,4,

48,51,4,76,26,3,

47,51,3,75,26,4,

47,51,4,75,26,3,

46,50,3,74,25,4,

46,51,4,73,25,3,

46,50,4,73,26,3,

46,50,4,73,25,3,

45,50,3,71,25,3,

45,50,3,71,25,3,

45,50,4,71,25,3,

45,50,3,71,25,3,

45,49,4,71,24,3,

45,49,4,71,57,4,

44,49,3,70,56,3,

44,48,3,71,56,3,

44,49,4,70,55,3,

44,48,4,70,56,4,

44,48,4,69,55,4,

44,48,4,69,54,3,

43,47,4,69,54,3,

44,47,3,69,54,4,

43,47,4,68,53,3,

43,46,4,68,53,3,

43,46,3,67,53,4,

43,46,4,67,53,3,

42,46,4,67,53,3,

42,46,4,67,58,4,

42,46,4,66,59,4,

61,57,4,66,58,3,

60,56,3,65,58,4,

60,56,4,65,58,4,

60,56,3,66,57,4,

59,56,3,64,56,3,

59,56,3,64,57,4,

59,56,3,64,56,4,

59,55,5,65,56,3,

59,54,4,63,56,3,

58,55,3,63,55,4,

57,54,4,63,55,3,

57,54,3,62,56,3,

57,54,3,62,54,3,

57,53,3,63,54,4,

56,53,4,62,54,3,

56,53,3,62,54,4,

56,53,5,61,54,4,

