
34,27,0,46,28,0,

34,27,0,45,27,0,

34,27,0,45,28,0,

34,27,0,45,27,0,

34,27,0,45,27,0,

33,26,0,44,27,1,

33,26,0,44,26,0,

33,26,0,44,27,0,

33,25,0,44,26,0,

33,25,1,44,26,0,

32,25,0,44,26,0,

32,25,0,44,26,0,

31,25,0,44,25,0,

32,25,0,43,25,0,

32,25,0,43,25,0,

31,25,0,47,25,0,

31,24,0,47,25,1,

31,24,0,48,32,1,

31,24,0,50,31,0,

31,24,0,50,31,0,

31,24,0,50,31,0,

31,24,0,49,31,0,

31,24,0,50,31,0,

31,24,0,49,31,0,

30,24,0,49,30,0,

30,23,1,48,31,0,

30,24,0,48,30,0,

30,24,0,48,30,0,

30,23,1,48,30,0,

30,23,0,48,30,0,

30,23,0,47,30,0,

29,22,0,48,29,0,

29,23,0,47,29,0,

29,22,0,47,29,0,

29,26,0,46,29,0,

28,26,0,46,29,0,

29,25,0,46,28,0,

29,25,0,46,29,0,

28,25,0,46,28,0,

28,25,0,46,29,0,

28,25,0,45,28,0,

28,25,0,45,28,0,

28,24,0,45,29,1,

28,25,0,45,29,0,

28,24,0,45,28,0,

28,24,0,44,28,0,

27,24,0,44,28,0,

27,24,0,44,28,0,

27,24,0,44,28,0,

27,24,0,44,28,0,

27,24,0,43,28,0,

26,24,0,43,28,0,

26,24,0,43,28,0,

26,24,0,43,28,0,

26,23,0,42,27,0,

43,24,0,42,27,0,

50,23,0,42,27,0,

50,23,0,42,27,0,

49,23,0,42,27,0,

49,24,0,41,27,0,

48,23,0,41,26,0,

48,23,0,41,26,0,

48,23,0,41,26,0,

48,23,0,41,26,0,

48,22,0,39,25,0,

47,22,0,39,25,0,

47,22,0,39,25,0,

47,22,0,39,25,0,

51,22,0,39,25,0,

52,22,0,39,25,0,

51,22,0,39,25,0,

51,22,0,39,25,0,

51,22,0,39,25,0,

51,21,0,39,25,0,

50,21,0,39,25,0,

50,21,0,39,24,0,

50,20,1,39,24,0,

49,21,0,39,24,0,

49,21,0,38,24,0,

49,20,0,38,24,0,

49,20,0,38,24,0,

49,20,0,38,25,0,

49,20,0,38,25,0,

48,20,0,37,25,0,

48,19,0,37,25,0,

48,20,0,37,24,1,

48,19,0,37,24,0,

48,19,0,37,24,0,

48,19,0,37,24,1,

47,19,0,36,24,0,

46,19,0,36,24,0,

46,19,0,36,24,0,

46,19,0,36,24,0,

46,19,0,36,24,0,

46,18,0,35,25,0,

46,19,0,35,25,0,

45,18,0,35,26,0,

45,19,0,35,25,0,

45,18,0,35,25,1,

45,18,0,35,25,0,

45,18,0,35,25,0,

45,18,0,34,25,0,

44,18,0,35,24,0,

44,18,0,34,25,0,

44,18,0,34,25,0,

43,18,0,34,24,0,

43,17,0,34,24,0,

43,17,0,34,24,0,

43,18,0,34,24,0,

42,17,0,33,24,0,

42,17,0,33,24,0,

43,17,0,33,24,0,

42,17,0,33,23,0,

42,17,0,33,24,0,

41,16,0,33,23,0,

41,17,0,32,23,0,

41,17,0,31,23,0,

41,16,1,41,23,0,

41,16,0,41,23,0,

41,17,0,41,22,0,

40,16,0,41,22,0,

40,15,1,41,22,0,

39,15,0,41,22,0,

39,16,0,40,22,0,

39,15,0,39,22,0,

39,15,0,39,22,0,

39,15,0,39,21,0,

39,15,0,39,21,0,

39,15,0,39,21,1,

39,15,0,39,21,0,

38,15,0,39,21,0,

39,15,0,39,21,0,

38,15,0,45,29,0,

38,15,0,45,29,0,

38,15,0,45,29,0,

38,14,0,45,29,0,

38,15,0,45,28,0,

37,14,0,45,28,0,

37,15,1,44,28,0,

37,14,0,44,28,0,

36,15,0,44,28,0,

37,15,0,44,28,0,

36,14,0,44,28,0,

36,14,0,43,28,0,

36,14,0,43,27,0,

36,14,0,42,28,0,

35,14,0,43,29,0,

35,14,0,43,30,0,

35,14,0,42,30,0,

35,14,0,42,30,0,

35,14,1,42,29,0,

35,13,0,41,29,0,

35,14,0,41,29,0,

34,14,0,41,29,0,

34,13,0,41,29,0,

34,13,0,41,28,0,

34,13,0,41,29,1,

34,13,0,39,28,0,

33,13,0,39,28,0,

33,13,0,39,28,0,

33,13,0,39,28,1,

33,13,0,39,28,0,

33,13,1,39,28,0,

33,13,0,39,27,0,

33,13,0,39,28,0,

33,13,0,39,27,0,

32,12,0,39,27,0,

32,13,0,39,27,0,

32,12,0,39,27,0,

31,12,0,39,26,0,

32,12,0,38,26,0,

31,12,0,38,26,1,

31,13,0,38,26,1,

31,12,0,37,26,0,

31,12,0,37,30,0,

31,12,0,37,30,0,

31,12,0,37,29,0,

31,11,0,37,29,1,

31,13,0,37,29,0,

31,13,0,36,29,0,

31,13,0,36,29,0,

31,13,0,36,28,0,

31,12,0,35,28,0,

30,12,0,35,28,0,

30,13,0,35,28,0,

30,12,0,35,28,0,

30,12,0,35,28,0,

30,12,0,35,27,0,

30,12,0,35,27,0,

29,12,0,35,28,0,

29,12,0,35,27,0,

29,14,0,34,27,0,

29,13,0,34,27,0,

29,14,0,34,27,0,

29,14,0,34,27,0,

29,13,0,34,26,0,

29,13,0,34,26,0,

28,13,0,34,27,0,

28,13,0,34,26,0,

29,13,0,34,26,0,

29,13,0,33,25,0,

29,13,0,33,25,0,

29,12,0,33,25,0,

29,13,0,33,25,1,

28,14,0,33,25,0,

28,16,0,32,25,0,

29,16,0,32,25,0,

28,16,0,32,25,0,

28,15,0,31,24,0,

27,16,0,32,24,0,

28,15,0,31,24,0,

27,15,0,31,24,0,

28,15,0,31,24,0,

27,15,0,31,24,0,

27,15,0,31,24,0,

27,15,0,31,24,1,

27,15,0,31,24,0,

26,15,0,31,24,0,

26,15,0,30,24,0,

26,15,0,30,24,0,

26,17,0,30,23,0,

26,17,0,30,22,0,

26,17,0,30,23,0,

26,17,0,30,23,0,

26,17,0,29,23,0,

26,16,0,29,23,0,

26,16,0,30,23,0,

25,16,0,29,22,0,

25,16,0,29,22,0,

25,16,0,29,22,0,

25,51,0,29,22,0,

25,51,0,29,22,0,

24,51,0,29,21,0,

24,50,0,29,21,0,

24,50,0,28,21,0,

24,50,0,28,21,0,

24,49,1,28,22,0,

24,49,0,28,31,0,

24,49,0,28,39,0,

24,49,0,28,39,0,

24,48,0,28,39,0,

24,48,0,28,39,0,

24,48,0,28,39,0,

24,47,0,28,38,0,

24,47,0,28,38,0,

24,47,0,27,38,0,

24,47,0,27,38,0,

24,47,0,27,38,0,

23,46,0,27,38,0,

23,46,0,26,37,0,

23,46,0,26,37,0,

24,46,0,26,37,0,

24,46,0,27,37,0,

24,45,0,26,36,0,

24,45,0,26,36,0,

23,45,0,26,36,1,

24,45,0,26,35,0,

22,44,0,26,35,0,

23,44,0,25,35,0,

22,44,0,26,35,0,

22,44,0,26,35,0,

22,44,0,25,35,0,

22,43,0,25,34,0,

22,43,0,25,35,0,

27,42,0,25,34,0,

27,43,0,25,34,0,

26,42,0,25,34,0,

26,42,0,25,34,0,

26,42,0,24,34,0,

26,42,0,25,33,0,

25,42,0,24,33,0,

25,42,0,24,33,0,

25,41,0,24,33,0,

25,41,0,24,33,0,

25,41,0,24,33,0,

25,41,1,24,32,0,

25,39,0,24,32,0,

25,41,0,24,32,0,

26,39,0,24,32,0,

31,39,0,24,31,0,

31,39,0,23,31,0,

31,39,1,24,31,0,

31,39,0,23,31,0,

31,39,0,23,31,0,

30,39,0,23,31,1,

31,39,0,22,31,0,

30,39,0,23,31,0,

30,39,1,23,31,0,

30,38,0,22,30,1,

30,38,0,22,30,0,

30,38,0,23,30,0,

29,38,0,27,30,0,

29,38,0,27,30,0,

29,38,0,27,30,0,

29,37,0,26,30,1,

29,37,0,26,29,0,

29,37,0,26,29,0,

29,37,0,26,29,0,

29,36,0,25,29,0,

28,36,0,25,29,0,

28,36,0,25,28,0,

28,36,0,25,29,0,

28,35,0,25,28,0,

28,35,1,25,28,0,

49,35,0,25,28,0,

48,35,0,25,28,0,

48,35,0,24,28,0,

47,35,0,24,27,0,

47,38,0,24,28,0,

47,42,0,24,27,0,

46,42,0,24,27,0,

46,41,1,24,27,0,

46,41,0,24,27,0,

46,41,0,24,27,0,

46,41,0,24,26,0,

45,40,0,24,26,1,

45,39,0,24,26,0,

46,39,0,23,26,1,

45,39,0,23,26,0,

45,39,0,23,25,0,

45,44,0,23,26,0,

44,44,0,23,25,0,

44,43,0,23,26,0,

44,44,0,22,25,0,

44,44,0,23,25,0,

44,43,0,22,25,0,

44,43,0,22,25,0,

43,42,0,22,25,0,

43,42,0,22,25,0,

43,42,0,22,24,0,

43,42,0,21,25,0,

42,42,1,39,24,0,

42,41,0,39,24,0,

42,41,0,39,25,0,

41,41,0,39,24,0,

42,41,0,39,24,0,

41,41,0,39,24,0,

41,39,0,38,24,0,

41,39,0,38,24,0,

41,39,0,41,24,0,

39,39,1,40,23,1,

39,39,0,39,23,0,

39,39,0,39,23,0,

61,39,0,39,23,0,

67,45,0,39,24,0,

66,45,0,39,24,0,

66,45,0,39,23,0,

65,45,0,39,22,0,

65,45,0,39,22,0,

65,44,0,39,22,0,

65,44,0,39,22,0,

64,44,0,38,22,0,

64,44,0,38,22,0,

63,44,0,60,22,0,

63,43,0,62,22,0,

63,43,0,61,34,0,

63,43,1,60,33,0,

62,43,0,61,33,0,

62,42,0,60,34,0,

62,42,0,60,33,1,

61,42,0,60,33,0,

61,41,0,59,33,0,

61,41,0,58,33,0,

61,41,0,59,33,0,

61,41,0,58,32,0,

60,41,0,58,32,0,

60,41,0,58,32,0,

60,41,0,57,31,0,

60,40,0,57,62,1,

59,39,0,57,65,0,

59,39,0,57,63,1,

59,39,0,56,63,0,

59,39,0,56,63,0,

58,39,1,56,63,0,

57,39,0,56,63,0,

57,39,0,56,62,0,

57,39,0,55,62,0,

57,39,0,55,61,0,

56,39,1,54,61,0,

56,38,0,54,61,0,

56,38,0,54,61,0,

56,38,0,54,60,0,

56,38,0,54,60,1,

56,38,0,53,60,0,

56,37,0,52,59,0,

55,37,0,53,59,0,

55,37,0,52,59,0,

55,37,0,52,59,0,

54,36,0,52,58,0,

54,36,0,52,58,0,

54,36,0,51,58,0,

53,36,0,51,57,0,

53,36,0,51,58,1,

53,36,1,51,58,0,

53,36,0,51,57,0,

52,35,0,50,57,0,

52,35,0,50,57,0,

52,35,0,50,57,0,

52,35,0,50,56,0,

51,35,0,49,56,0,

51,34,1,49,56,0,

51,34,0,49,56,0,

51,34,0,49,56,0,

51,34,0,48,56,0,

51,34,0,48,55,0,

50,34,0,48,55,0,

50,33,0,48,54,0,

50,33,0,48,54,0,

49,33,0,88,69,0,

49,33,0,101,69,0,

49,33,0,100,67,0,

49,32,0,99,68,0,

48,32,0,99,67,0,

48,32,0,99,67,0,

48,32,0,98,67,1,

48,32,0,97,66,0,

48,32,0,97,66,0,

47,31,0,97,65,0,

47,31,0,96,66,0,

47,31,0,96,65,0,

47,31,0,96,65,0,

48,31,0,95,64,1,

48,31,0,94,64,0,

48,31,0,94,63,0,

48,31,0,93,63,0,

47,39,0,93,63,0,

47,41,0,93,63,0,

47,41,0,93,63,0,

47,41,0,92,62,0,

47,40,0,91,62,0,

47,41,0,92,61,0,

46,39,0,91,62,0,

46,39,0,90,61,0,

46,39,0,90,61,0,

57,39,0,89,61,0,

57,39,0,89,60,0,

56,39,0,89,60,1,

56,39,0,89,60,0,

56,39,0,88,60,1,

56,39,0,88,60,0,

56,39,0,88,59,0,

56,38,0,88,59,0,

55,38,0,87,58,0,

54,38,0,86,58,0,

54,38,0,86,58,0,

54,37,0,85,57,1,

53,37,0,85,57,1,

53,37,0,84,57,0,

53,37,0,84,57,0,

53,37,0,83,56,0,

52,36,0,83,56,0,

52,36,0,83,56,1,

52,37,0,83,56,0,

51,37,0,83,56,0,

51,37,0,82,55,0,

51,37,1,82,56,0,

51,37,0,82,55,0,

51,36,0,81,55,0,

51,37,0,81,55,0,

50,35,0,80,54,0,

51,35,0,80,54,0,

51,35,0,79,54,1,

51,35,0,79,53,0,

51,35,0,79,53,0,

51,35,0,79,53,0,

50,35,0,79,53,0,

50,35,0,78,52,0,

50,35,0,78,52,0,

50,35,0,77,52,0,

49,34,0,77,51,0,

49,34,0,77,51,1,

49,34,0,76,51,0,

49,34,0,78,51,0,

48,34,0,112,51,0,

51,34,0,111,51,0,

51,33,0,111,50,0,

51,33,0,110,50,0,

50,36,0,109,50,0,

50,35,0,108,50,0,

50,35,0,108,49,0,

49,35,0,108,49,0,

49,35,0,107,49,0,

49,35,1,106,48,0,

49,35,1,106,48,0,

48,35,0,105,48,0,

52,34,0,105,48,0,

52,34,0,103,48,0,

51,34,0,103,47,0,

51,34,0,103,47,0,

51,42,0,103,47,0,

51,42,0,103,47,0,

51,42,0,102,46,0,

50,41,0,102,46,0,

51,41,0,101,46,0,

50,40,0,101,46,0,

50,41,0,100,45,0,

50,39,1,100,46,0,

51,39,0,99,45,0,

84,39,1,99,53,0,

83,39,0,98,60,0,

83,39,0,98,59,0,

82,39,0,98,59,1,

82,39,0,97,59,0,

81,39,0,97,58,0,

81,39,0,96,57,0,

80,39,0,96,57,0,

80,38,0,96,57,0,

79,38,0,95,57,0,

79,38,1,95,57,1,

79,38,0,94,56,0,

79,38,0,97,56,0,

78,37,0,139,56,0,

78,37,0,137,56,0,

78,37,0,137,55,0,

77,37,0,135,55,0,

77,37,0,135,55,0,

76,37,0,134,55,0,

76,36,0,134,54,0,

76,76,0,133,54,0,

75,88,0,132,54,0,

75,86,0,132,54,0,

75,86,0,131,54,0,

74,85,0,131,53,0,

74,85,0,130,53,1,

73,84,0,130,53,0,

73,83,0,129,52,0,

73,83,0,128,52,0,

71,83,0,127,51,0,

71,83,0,127,51,0,

71,84,0,126,51,0,

71,83,0,126,51,0,

71,83,0,125,51,0,

71,83,0,125,50,0,

71,82,0,124,50,0,

70,82,0,124,50,1,

71,82,0,123,50,0,

71,81,0,123,51,0,

71,81,0,122,50,0,

70,80,1,121,50,0,

70,80,0,121,50,1,

70,80,0,120,50,0,

69,79,0,120,49,0,

69,78,0,120,49,0,

68,78,0,119,49,0,

68,78,0,118,49,0,

67,78,1,118,48,0,

67,78,0,117,48,0,

67,77,0,117,48,0,

67,76,0,116,48,0,

67,76,0,115,48,0,

66,76,1,115,47,0,

66,76,0,115,47,0,

65,76,0,114,47,1,

65,75,0,114,47,0,

65,75,0,113,46,0,

65,74,0,112,46,0,

65,74,0,112,46,0,

64,73,0,112,46,0,

63,73,0,111,46,0,

63,73,1,111,45,0,

84,71,0,110,45,1,

89,71,1,110,45,0,

88,71,0,110,45,0,

88,71,0,109,45,0,

88,71,0,109,44,1,

87,71,0,108,44,0,

87,70,0,108,44,1,

86,70,0,107,43,0,

86,70,0,107,44,0,

85,69,0,106,43,0,

85,70,0,106,43,0,

85,69,0,105,43,0,

84,68,1,105,57,0,

83,67,0,103,75,0,

83,67,0,103,74,0,

83,67,0,103,74,1,

83,67,0,103,73,0,

82,67,0,103,73,1,

82,66,0,102,72,0,

82,66,0,102,71,0,

81,66,0,102,71,0,

80,66,0,101,71,1,

79,65,0,101,71,0,

79,65,0,100,71,0,

79,65,0,100,70,0,

79,64,0,99,70,0,

79,64,0,99,70,0,

78,63,0,99,69,0,

78,63,0,98,69,0,

78,63,0,98,69,0,

77,62,0,98,68,0,

77,63,0,97,68,0,

77,62,0,97,67,0,

76,62,0,96,67,1,

76,62,0,96,67,0,

76,62,0,95,67,0,

75,61,0,95,67,0,

75,61,0,95,66,0,

75,61,0,94,66,0,

75,60,0,94,66,0,

74,60,0,93,65,0,

74,60,0,93,65,0,

74,59,0,93,65,0,

73,59,0,93,64,0,

73,59,0,92,64,0,

71,59,0,92,63,0,

71,59,0,91,63,0,

71,58,0,91,63,0,

71,58,0,91,63,0,

71,58,0,90,62,0,

71,57,0,90,62,0,

71,57,0,89,62,0,

71,57,1,89,62,0,

70,57,0,89,61,0,

69,57,0,89,61,0,

69,56,0,88,61,0,

69,56,0,88,61,0,

69,56,0,88,60,0,

68,56,0,88,60,0,

67,56,0,87,60,0,

68,55,0,86,59,0,

67,55,0,86,59,0,

67,55,0,86,59,0,

67,54,0,85,59,0,

84,55,0,85,59,0,

83,54,0,85,58,0,

83,54,0,84,58,0,

83,53,0,84,58,0,

82,53,0,83,57,0,

82,53,0,83,57,0,

82,53,0,83,57,0,

81,52,0,83,56,0,

81,52,0,82,56,0,

79,52,0,82,56,0,

79,51,0,82,56,0,

79,51,1,81,56,0,

79,51,0,139,101,0,

79,51,0,150,100,0,

78,51,0,149,99,0,

78,51,0,148,99,0,

78,50,0,147,98,0,

77,50,0,147,98,0,

77,50,0,146,97,0,

77,50,0,145,96,0,

76,49,0,144,96,0,

76,49,0,143,96,0,

76,49,0,143,95,1,

76,49,0,142,95,0,

75,49,0,142,94,0,

74,48,0,141,93,0,

74,48,0,140,93,0,

74,48,0,140,93,0,

73,47,0,139,92,0,

73,47,0,139,92,0,

71,47,0,138,91,0,

72,47,0,137,91,0,

71,47,0,136,90,0,

71,47,0,135,90,0,

71,46,0,135,89,0,

71,46,0,135,89,0,

71,46,0,134,89,0,

70,46,0,134,88,0,

70,45,0,133,88,0,

70,45,0,133,88,0,

69,45,0,131,88,0,

69,44,0,131,87,1,

69,44,0,131,86,0,

68,44,0,130,86,0,

68,44,0,130,86,0,

67,44,0,129,85,0,

67,44,0,127,85,0,

67,44,0,127,84,0,

67,44,0,127,83,0,

67,43,0,127,83,0,

66,43,1,126,84,0,

78,43,0,126,92,0,

77,42,0,125,92,1,

77,43,0,125,92,0,

76,42,0,124,91,0,

76,42,0,123,91,0,

75,42,0,123,90,0,

75,42,0,123,89,0,

75,41,0,122,89,0,

74,41,0,121,89,0,

73,41,0,121,88,0,

73,41,0,120,88,0,

73,39,0,120,88,0,

73,41,0,119,88,0,

71,39,0,119,87,0,

71,39,0,119,86,0,

71,39,0,118,86,0,

71,39,0,117,85,0,

71,39,0,117,85,0,

71,39,0,116,84,0,

70,39,0,116,84,0,

70,39,0,115,84,0,

70,39,0,115,83,0,

69,38,0,115,83,0,

69,38,0,113,83,0,

69,38,1,113,82,0,

68,38,0,113,82,0,

68,38,0,112,81,0,

67,38,0,112,81,0,

67,37,0,111,81,0,

67,37,0,111,80,0,

67,37,0,110,79,0,

66,37,1,110,79,0,

66,36,0,110,79,0,

66,37,0,109,79,0,

65,41,0,109,78,0,

65,41,0,108,78,0,

65,41,1,108,78,0,

65,39,0,108,77,0,

64,40,0,135,77,0,

71,45,1,184,77,0,

71,45,0,182,76,0,

71,45,0,180,76,0,

70,45,1,179,76,0,

70,44,0,179,76,0,

69,44,0,177,75,0,

69,44,0,177,75,0,

69,44,0,176,75,0,

68,48,0,175,74,0,

68,47,0,174,74,0,

67,47,0,173,74,0,

67,47,0,172,73,0,

67,47,0,172,73,0,

67,46,0,171,73,0,

67,46,0,170,71,0,

66,62,0,169,71,0,

66,65,0,167,71,0,

65,64,0,167,71,0,

65,63,0,167,71,0,

65,63,0,166,76,0,

65,63,0,165,75,0,

64,63,0,165,75,0,

64,62,0,164,75,0,

63,62,0,163,74,0,

63,62,0,163,73,0,

63,61,0,162,74,1,

63,61,1,161,73,0,

62,61,0,160,71,0,

62,61,0,159,71,0,

62,60,0,159,71,0,

61,60,0,158,71,0,

61,60,0,158,71,1,

61,60,0,157,71,0,

61,59,0,156,71,0,

61,59,0,156,71,1,

60,59,0,155,70,0,

86,58,0,154,70,0,

85,58,0,154,70,0,

85,58,0,153,70,0,

84,57,0,152,69,0,

84,57,0,152,69,0,

83,57,0,151,68,1,

83,56,0,150,67,0,

83,56,0,150,67,0,

82,56,0,149,67,0,

82,56,0,149,67,0,

81,55,0,147,66,0,

81,55,0,147,66,0,

80,55,0,147,66,0,

80,55,0,146,66,0,

79,54,0,145,65,0,

79,54,0,145,65,0,

79,54,0,144,65,1,

79,54,1,143,64,0,

78,54,0,143,64,0,

78,53,0,142,64,0,

78,53,0,142,63,0,

77,53,0,141,63,0,

77,52,0,140,63,0,

76,53,0,140,63,0,

76,51,0,140,62,0,

76,51,0,139,62,0,

75,52,0,138,62,0,

75,51,0,137,62,0,

75,51,0,137,61,0,

74,51,0,137,61,0,

74,51,0,135,61,0,

73,50,0,135,61,0,

73,50,1,135,60,0,

73,50,0,134,60,0,

73,50,0,134,60,0,

71,49,0,133,60,0,

96,49,0,133,59,0,

127,48,0,132,59,1,

127,49,0,131,59,0,

126,48,0,131,58,0,

125,48,0,130,58,0,

125,49,0,130,58,1,

124,63,0,129,57,0,

123,63,0,128,57,0,

123,62,0,127,57,0,

122,62,0,127,57,0,

121,62,0,127,57,0,

120,62,0,126,57,0,

120,61,1,126,71,0,

120,61,0,125,97,0,

119,61,0,125,96,0,

118,60,0,124,95,0,

118,60,0,124,95,0,

117,60,0,123,94,0,

116,59,0,123,93,0,

116,59,0,122,93,0,

115,59,0,122,92,0,

115,59,0,121,92,1,

115,58,0,121,91,0,

113,57,0,120,91,0,

113,57,0,120,91,0,

112,57,0,119,90,0,

112,57,0,119,89,0,

112,57,0,118,89,0,

111,56,0,118,89,0,

110,56,0,117,88,0,

110,56,0,117,88,0,

109,56,0,116,87,0,

109,56,0,115,87,0,

108,55,0,115,87,0,

108,55,0,115,86,0,

107,54,0,114,86,0,

107,54,0,114,86,0,

107,54,0,113,85,0,

106,53,0,112,85,0,

105,53,0,112,84,0,

105,53,0,112,84,0,

103,53,0,111,83,0,

103,52,0,111,83,0,

103,52,0,111,83,0,

103,52,1,110,83,0,

103,51,0,109,82,0,

102,51,0,109,81,0,

101,51,0,109,81,0,

101,51,0,108,81,0,

101,51,0,108,80,0,

99,54,0,107,79,0,

100,54,0,107,79,0,

99,56,0,107,79,0,

99,67,0,106,79,0,

98,67,0,105,78,0,

98,66,0,105,78,1,

98,66,0,103,78,0,

97,66,1,103,77,0,

97,66,1,103,77,0,

97,65,0,103,77,0,

96,65,0,103,76,0,

96,65,1,103,81,1,

96,64,1,181,81,0,

95,63,0,182,80,0,

94,63,0,181,79,0,

94,63,0,179,79,0,

94,63,0,179,79,0,

93,62,0,178,79,0,

93,62,0,177,78,0,

92,62,1,176,78,0,

92,62,0,175,78,0,

92,61,0,175,77,0,

91,61,0,174,77,0,

91,61,0,173,77,0,

90,60,0,172,76,0,

90,60,0,171,76,0,

89,60,0,171,76,0,

89,62,0,169,75,0,

89,61,0,169,75,0,

88,61,0,167,74,0,

88,61,0,167,74,0,

88,60,0,167,74,0,

87,60,0,166,74,0,

87,60,0,165,76,1,

86,60,1,165,76,0,

86,59,0,163,75,0,

86,59,0,163,76,0,

85,58,1,162,75,0,

85,58,0,162,75,0,

85,58,0,160,74,0,

85,58,0,159,74,0,

84,57,0,159,73,0,

83,57,0,159,73,0,

83,57,0,158,73,0,

83,56,0,157,73,0,

83,56,0,157,71,1,

82,56,0,156,126,0,

82,56,0,155,214,0,

95,56,0,155,226,0,

95,55,0,154,224,0,

94,57,0,153,223,0,

94,57,0,152,221,0,

93,57,0,152,220,0,

92,57,0,151,219,0,

92,56,0,150,217,0,

92,56,0,150,216,0,

91,56,0,149,216,0,

91,56,0,148,214,0,

115,56,1,148,213,0,

147,85,0,147,211,0,

147,85,0,147,211,0,

146,84,0,146,209,0,

145,83,0,145,208,0,

144,83,0,144,207,0,

143,83,0,143,206,0,

143,93,0,143,205,0,

142,135,0,142,204,0,

141,134,0,142,203,0,

140,133,1,141,202,1,

140,132,0,140,199,0,

139,131,0,140,199,0,

137,130,0,139,199,0,

137,130,0,138,198,0,

135,129,0,137,196,0,

135,127,0,137,195,0,

135,127,0,135,194,0,

134,127,0,135,193,0,

134,126,0,135,192,0,

133,125,0,134,192,0,

132,124,0,134,191,0,

131,124,0,133,190,0,

131,123,0,132,189,1,

130,122,0,132,188,0,

129,121,0,131,187,0,

129,121,0,131,185,1,

127,121,0,130,185,0,

127,120,0,129,184,0,

126,120,0,129,183,0,

126,119,0,127,182,0,

125,118,0,127,181,0,

125,117,0,127,180,0,

174,124,0,126,179,0,

172,124,0,126,178,0,

171,123,0,125,177,0,

169,122,0,124,176,0,

167,121,0,124,175,0,

167,121,0,124,175,0,

167,120,0,123,174,0,

166,120,1,122,173,0,

165,119,0,121,172,0,

163,118,0,121,171,0,

163,118,0,121,170,0,

162,117,0,120,169,0,

161,116,0,120,169,0,

160,115,0,119,167,0,

159,115,0,118,167,0,

159,115,0,118,166,1,

158,114,0,117,166,0,

157,113,1,117,164,0,

156,113,0,116,164,1,

155,112,0,115,163,0,

155,112,0,115,162,0,

154,111,0,115,161,0,

153,110,0,114,161,0,

152,110,0,113,159,0,

152,109,0,113,159,0,

151,108,0,113,158,0,

150,108,0,112,157,0,

149,108,0,111,157,0,

148,107,0,111,156,0,

147,106,0,111,155,1,

147,106,0,110,154,0,

146,105,0,110,154,0,

145,103,0,109,153,0,

146,103,0,109,152,0,

145,103,0,108,152,0,

144,103,0,107,151,0,

143,103,0,107,150,0,

143,102,0,107,149,0,

142,101,0,106,148,1,

141,101,0,105,147,0,

141,101,0,105,147,0,

140,99,0,105,146,1,

139,99,0,103,146,0,

139,99,0,103,145,0,

137,100,0,103,144,1,

137,99,1,103,143,0,

135,99,0,102,143,0,

135,99,0,102,143,0,

135,98,0,101,142,1,

135,97,1,101,141,0,

134,97,0,100,140,0,

133,96,0,100,140,0,

132,96,0,99,139,0,

131,96,0,99,139,0,

131,95,0,99,138,0,

131,94,0,98,137,0,

130,94,0,98,137,0,

129,94,0,97,137,0,

129,94,0,97,135,0,

128,93,0,96,135,0,

127,93,0,96,135,0,

127,92,0,96,134,0,

127,92,0,96,134,0,

126,92,0,95,133,0,

125,91,0,95,132,0,

125,90,0,94,131,0,

124,90,0,94,131,0,

124,89,0,94,131,0,

124,89,0,93,130,1,

123,89,0,93,130,0,

122,89,0,93,129,0,

121,88,1,92,129,0,

121,88,0,91,127,0,

121,96,0,91,127,0,

120,96,0,91,127,0,

120,95,0,90,126,1,

119,95,0,90,126,0,

118,94,0,90,125,0,

118,94,0,89,125,0,

117,93,1,89,124,0,

117,93,0,88,124,0,

116,92,0,88,123,1,

116,92,0,88,123,0,

115,92,0,88,122,0,

115,102,0,87,122,1,

115,101,0,87,121,0,

114,101,0,86,120,0,

113,100,0,86,123,0,

113,100,0,86,123,0,

112,99,0,85,122,0,

112,99,0,85,121,1,

112,120,0,85,121,0,

111,131,0,84,120,0,

110,131,0,83,120,1,

110,130,0,84,119,0,

109,129,0,83,119,0,

109,128,0,83,118,0,

108,127,0,82,118,0,

108,127,0,82,117,0,

107,126,0,82,116,0,

107,126,0,82,116,1,

107,125,0,81,115,0,

105,125,0,81,115,0,

105,124,0,80,115,0,

105,123,0,79,114,0,

103,122,0,79,113,0,

103,122,0,79,113,0,

103,121,0,79,112,0,

103,120,0,78,112,0,

103,120,0,78,112,0,

102,119,0,78,151,1,

101,119,0,78,176,0,

106,118,0,77,174,0,

105,117,0,77,173,0,

103,117,0,77,173,0,

103,116,0,76,172,0,

103,115,0,76,171,0,

103,115,0,76,169,0,

103,114,0,76,169,0,

102,114,0,75,167,0,

102,113,0,97,167,0,

101,112,0,141,166,0,

101,112,0,152,165,0,

100,112,0,150,164,0,

99,111,0,149,163,0,

99,110,0,148,162,0,

98,110,0,147,161,1,

98,109,0,146,161,0,

97,109,0,146,159,0,

97,108,0,144,159,0,

97,108,1,144,158,0,

96,107,0,143,157,0,

96,107,0,142,157,0,

96,106,0,142,156,0,

95,105,0,141,155,0,

95,105,0,140,155,0,

94,105,0,140,154,0,

94,103,0,139,153,0,

94,103,0,139,152,1,

93,103,0,137,152,0,

92,103,0,137,151,0,

92,102,0,135,150,0,

92,102,0,135,149,0,

92,101,0,135,148,0,

91,101,0,135,147,0,

91,99,0,134,147,0,

90,99,0,133,146,0,

89,102,0,132,146,0,

89,101,0,131,145,0,

88,101,1,131,144,0,

88,100,0,131,143,0,

88,99,0,130,143,0,

88,99,0,237,142,0,

87,99,0,245,141,0,

87,98,1,243,141,0,

86,98,0,241,140,0,

86,97,0,240,140,0,

86,97,0,239,140,0,

85,96,0,237,139,1,

85,96,0,236,138,0,

85,96,0,235,137,0,

84,95,1,233,137,1,

84,95,0,231,135,0,

83,94,0,231,135,0,

83,93,0,230,135,0,

82,93,0,229,134,0,

82,93,0,227,134,0,

82,93,0,227,133,0,

82,92,0,225,132,0,

81,92,0,224,132,0,

81,91,0,223,131,0,

81,91,0,222,131,0,

80,90,0,221,130,0,

79,90,0,220,130,0,

79,89,0,219,129,0,

79,89,0,218,128,0,

79,89,0,217,127,0,

78,89,1,216,127,0,

78,88,0,215,126,0,

78,88,0,214,126,0,

77,87,0,213,125,0,

78,87,1,211,125,0,

77,86,0,211,124,0,

77,86,0,210,124,0,

76,86,0,209,123,1,

76,85,0,207,123,0,

76,85,0,207,122,0,

75,84,0,206,121,0,

75,84,0,205,121,1,

75,83,0,204,121,0,

74,83,0,204,120,1,

83,83,0,202,135,0,

83,82,0,201,143,0,

83,82,1,201,143,0,

82,82,0,199,142,0,

81,81,1,199,141,0,

81,81,0,198,141,1,

81,80,0,197,140,0,

80,80,0,196,139,0,

79,79,0,195,138,0,

79,79,0,194,137,1,

79,79,1,194,137,1,

78,79,0,193,136,0,

119,78,0,192,137,1,

144,78,0,191,135,0,

143,78,0,190,135,0,

143,77,1,189,135,1,

142,77,0,188,134,1,

141,76,0,187,133,0,

140,76,0,187,132,0,

139,76,0,185,131,0,

139,76,0,185,131,0,

137,75,0,184,130,0,

137,75,0,183,130,1,

135,75,0,182,129,0,

135,74,0,181,128,0,

135,74,0,181,127,0,

134,73,0,179,127,0,

133,73,0,179,127,0,

132,73,1,179,126,1,

132,71,0,177,125,1,

131,71,0,176,124,0,

131,71,0,176,124,0,

130,71,0,175,124,0,

130,71,0,174,123,1,

129,71,1,174,122,0,

128,70,0,173,122,0,

127,70,0,172,121,1,

127,70,0,171,121,0,

126,69,0,171,120,0,

126,69,0,170,120,0,

125,69,0,167,119,0,

124,71,0,167,118,0,

124,71,1,167,118,0,

123,71,1,167,117,0,

123,71,1,166,117,0,

122,71,0,165,115,0,

121,71,0,165,115,0,

120,70,0,163,115,0,

120,70,0,163,115,0,

120,70,0,162,114,0,

119,69,1,161,113,0,

118,69,0,161,113,1,

118,68,0,159,112,0,

117,70,1,159,112,1,

117,88,0,159,112,0,

115,88,0,158,111,0,

115,87,0,157,110,1,

115,87,0,157,110,0,

114,86,0,156,109,0,

114,86,0,155,109,0,

113,85,1,155,108,0,

113,96,0,154,108,0,

112,158,0,153,107,0,

111,156,0,153,107,0,

111,155,0,152,107,0,

110,154,0,152,106,1,

110,153,1,151,106,0,

109,152,0,150,105,0,

108,151,1,149,103,1,

108,151,1,149,103,0,

108,149,1,147,103,0,

107,148,0,147,103,1,

107,147,1,147,103,0,

106,147,0,146,102,1,

105,146,1,145,102,0,

105,145,0,144,101,0,

103,145,0,143,101,1,

103,143,0,143,100,0,

103,143,0,142,99,0,

102,142,0,142,99,0,

103,141,1,141,99,0,

102,140,0,140,98,1,

102,140,0,140,98,1,

101,140,0,140,98,1,

100,138,0,139,97,0,

100,138,0,138,97,1,

99,137,0,137,96,0,

99,135,0,137,96,0,

99,135,1,137,96,0,

98,135,0,135,96,0,

97,135,0,135,95,1,

98,134,0,135,94,0,

96,133,0,135,94,0,

96,133,0,134,93,0,

96,131,1,133,93,0,

96,131,0,133,93,0,

96,131,0,132,92,0,

94,130,0,131,92,0,

94,129,0,131,92,0,

94,129,1,131,91,0,

93,127,0,130,91,0,

93,127,0,129,91,0,

93,127,1,129,90,1,

92,126,1,129,90,0,

92,126,0,127,89,0,

91,125,0,127,89,1,

91,125,0,126,88,0,

90,124,1,126,88,0,

90,124,0,126,88,0,

90,123,0,126,88,1,

89,123,0,125,88,0,

89,122,0,125,87,0,

89,121,0,124,87,0,

88,121,0,123,86,0,

88,120,0,123,121,1,

88,120,0,122,120,0,

87,119,0,121,119,0,

86,118,0,121,118,0,

86,118,1,121,117,0,

86,117,0,120,116,0,

85,117,0,120,115,0,

85,115,0,120,115,0,

84,115,0,119,114,0,

84,115,0,118,114,0,

83,115,0,118,113,0,

83,114,0,117,112,0,

89,114,0,117,112,0,

88,113,0,116,112,0,

88,112,0,115,111,0,

88,112,0,115,110,0,

87,112,0,115,110,0,

86,111,0,115,109,0,

86,110,0,114,109,0,

85,110,0,113,108,0,

85,109,0,113,108,0,

84,109,0,112,107,0,

84,108,0,112,108,0,

83,108,0,112,107,0,

83,107,0,111,107,0,

83,107,0,110,106,0,

82,106,0,110,105,0,

82,105,0,110,105,0,

81,105,0,109,105,0,

81,103,1,109,103,0,

81,103,0,108,103,0,

80,103,0,108,103,0,

80,103,0,107,103,0,

82,103,0,107,102,0,

83,102,0,107,102,0,

83,102,0,106,101,1,

82,101,0,105,101,0,

82,100,0,105,100,1,

82,100,0,103,99,0,

81,99,1,103,99,0,

81,99,0,103,99,0,

80,99,0,103,98,1,

80,98,0,103,98,0,

79,98,0,103,97,0,

79,98,0,103,97,0,

79,97,0,102,97,0,

79,97,0,102,96,0,

79,96,0,101,96,0,

79,96,0,101,95,0,

78,96,0,100,95,0,

78,95,0,100,95,0,

77,95,0,99,94,0,

77,95,0,99,93,0,

77,94,0,99,93,0,

77,94,0,98,93,0,

76,93,0,98,93,0,

76,99,0,98,92,0,

76,99,0,98,91,0,

76,98,0,97,92,0,

76,97,0,97,91,0,

75,97,0,96,91,0,

75,96,0,96,90,0,

74,96,0,96,89,0,

74,96,0,96,89,0,

74,96,0,95,89,0,

73,95,0,95,89,0,

73,95,0,95,88,0,

73,94,0,94,88,0,

73,94,0,94,88,0,

71,93,0,94,88,0,

71,93,0,93,87,0,

71,92,0,93,86,0,

71,92,0,92,86,0,

71,92,0,92,86,1,

71,92,0,92,85,0,

71,91,0,92,85,0,

71,91,0,91,85,0,

70,90,0,91,84,0,

70,90,0,90,84,0,

70,89,0,91,84,0,

69,89,0,90,83,0,

69,89,0,89,83,1,

69,88,0,89,83,0,

69,88,0,89,83,0,

68,88,0,88,82,0,

68,88,0,88,82,1,

67,88,0,88,81,0,

67,87,0,88,81,0,

67,86,0,88,81,0,

67,86,0,88,80,0,

66,85,0,87,79,0,

66,87,0,86,80,0,

66,86,0,86,79,1,

66,86,0,86,79,0,

66,86,0,86,79,0,

65,85,1,85,79,0,

65,85,0,85,79,0,

65,84,0,84,78,0,

65,84,0,137,120,1,

64,83,0,214,150,0,

64,83,0,213,149,0,

63,83,0,211,147,0,

63,83,0,210,147,0,

63,82,0,209,146,0,

63,106,0,207,145,0,

63,116,0,207,143,0,

62,115,0,205,143,0,

62,115,0,204,143,0,

62,114,0,203,142,0,

75,113,0,202,141,0,

75,112,0,201,141,0,

75,112,0,199,140,0,

74,111,0,199,139,0,

73,111,0,198,138,0,

73,110,0,197,137,0,

72,110,1,196,137,0,

71,109,0,195,135,0,

71,109,0,194,135,0,

71,108,0,193,135,0,

71,107,1,192,135,0,

80,107,0,191,134,0,

79,106,0,190,133,0,

79,105,0,189,132,0,

78,105,0,188,131,0,

78,105,0,187,131,0,

78,103,0,186,130,0,

77,103,0,185,130,0,

77,103,0,185,129,0,

77,103,0,184,128,0,

76,102,0,183,127,0,

76,102,0,182,127,0,

75,101,0,181,126,0,

75,100,0,179,125,0,

74,99,0,179,125,0,

74,99,0,179,124,0,

74,99,0,178,124,0,

74,98,0,177,124,0,

73,98,0,176,123,0,

73,97,0,175,122,0,

71,101,0,174,121,0,

71,101,0,174,121,0,

71,100,0,173,120,0,

71,99,0,172,120,0,

71,99,0,172,119,0,

78,99,0,171,119,1,

77,98,0,170,118,0,

77,98,0,169,118,0,

76,108,0,169,117,0,

76,128,0,167,117,0,

76,127,0,167,116,0,

75,126,0,166,115,0,

75,125,0,165,115,0,

74,125,1,164,114,0,

74,124,0,163,114,0,

73,124,0,163,113,0,

74,123,1,162,113,0,

74,123,0,161,112,0,

73,121,0,161,112,0,

73,121,1,159,111,0,

71,120,0,159,111,0,

71,120,0,159,110,0,

71,119,0,158,110,0,

71,118,0,157,109,1,

71,118,0,156,109,1,

71,117,0,156,108,0,

70,116,0,155,107,0,

71,116,0,155,107,0,

70,115,0,153,107,0,

70,114,0,153,106,1,

69,114,0,152,105,0,

69,114,0,152,105,1,

68,113,1,151,104,0,

68,113,1,150,103,0,

67,112,0,150,103,0,

67,112,0,149,103,1,

67,111,0,147,102,0,

67,110,0,147,102,0,

66,109,0,146,102,0,

66,109,0,146,101,0,

66,108,0,145,100,0,

65,108,1,145,100,0,

65,108,0,144,99,0,

65,107,0,143,99,0,

65,106,0,143,99,0,

64,105,0,142,98,0,

63,105,0,142,98,0,

63,105,0,141,97,0,

63,103,0,141,97,0,

89,103,0,140,97,0,

89,103,0,139,96,0,

88,103,0,139,96,1,

87,102,0,138,95,0,

87,102,0,137,96,0,

86,102,0,137,95,0,

86,101,0,137,94,0,

86,100,0,135,94,1,

85,99,0,135,93,0,

84,99,0,135,93,0,

84,99,0,134,92,0,

83,99,0,134,92,0,

83,98,0,134,92,0,

83,98,0,133,91,0,

83,97,0,132,91,0,

82,96,0,132,91,0,

82,96,0,131,90,0,

81,96,1,131,89,0,

81,96,0,130,89,0,

80,95,0,130,89,1,

79,95,1,129,88,0,

79,94,0,129,88,0,

79,94,0,128,88,0,

79,94,0,127,87,0,

79,93,0,127,87,0,

78,93,0,127,87,0,

78,92,0,126,86,0,

77,92,0,126,86,0,

77,92,0,125,86,0,

77,91,0,125,85,0,

76,91,0,124,84,0,

76,90,0,124,84,0,

76,90,0,123,84,0,

76,89,0,123,83,0,

75,89,0,122,83,0,

75,89,0,122,83,0,

75,88,0,121,83,0,

74,88,0,121,82,0,

74,88,0,120,82,0,

73,87,0,120,82,0,

73,87,0,120,81,0,

73,86,0,119,81,0,

72,86,0,118,81,0,

71,86,1,118,80,0,

71,85,0,118,79,0,

71,85,0,117,79,0,

71,84,0,117,79,1,

71,84,0,116,79,0,

70,83,0,115,79,1,

70,83,0,115,78,0,

70,83,0,115,78,0,

69,83,0,114,78,0,

69,82,0,114,78,0,

69,82,0,113,77,0,

68,81,0,113,77,0,

68,81,0,112,76,0,

67,81,0,112,76,0,

67,80,0,112,76,0,

67,79,0,111,75,0,

67,79,0,111,76,0,

66,79,0,111,75,0,

66,79,0,110,74,0,

66,79,0,110,75,0,

66,78,0,109,74,0,

65,78,0,109,73,0,

65,78,0,109,73,1,

65,78,0,108,73,0,

64,77,0,108,73,0,

64,77,0,107,71,0,

63,76,0,107,71,0,

63,76,0,106,71,0,

63,76,0,106,71,0,

63,76,0,105,71,0,

63,75,0,105,71,0,

62,75,0,103,71,0,

62,75,0,103,71,0,

62,74,0,103,70,0,

61,74,0,103,70,0,

61,73,0,103,70,1,

61,73,0,102,69,0,

61,73,0,102,69,0,

60,73,0,102,69,0,

60,71,0,101,68,0,

60,71,0,101,69,0,

60,71,0,101,68,1,

59,71,1,100,68,0,

59,71,1,100,67,0,

59,71,0,99,67,0,

59,71,0,99,67,0,

58,70,0,99,67,0,

58,70,0,98,66,0,

57,70,0,98,66,0,

57,69,0,98,66,0,

57,69,0,97,66,0,

57,69,1,97,65,0,

57,68,0,97,65,1,

57,68,0,96,65,0,

56,68,0,96,65,0,

56,67,0,96,64,0,

56,67,0,95,64,0,

56,67,0,95,64,0,

56,67,0,95,64,0,

56,67,0,94,63,1,

56,67,0,94,63,0,

55,66,0,93,63,0,

55,66,0,93,63,0,

55,66,0,93,62,0,

54,65,0,93,62,0,

54,65,1,92,62,0,

53,65,0,92,62,0,

54,65,0,91,62,0,

53,64,0,91,62,0,

53,64,0,91,61,0,

56,63,0,91,61,0,

56,63,0,90,61,0,

56,63,0,89,61,0,

55,63,0,89,60,0,

54,63,0,89,60,1,

55,62,0,88,60,0,

54,63,0,88,59,0,

54,62,0,88,59,0,

54,61,0,88,59,0,

53,62,0,88,59,0,

53,61,0,87,59,0,

53,61,0,87,59,0,

53,61,0,87,58,0,

53,61,0,86,58,0,

52,60,0,86,58,0,

51,60,0,85,57,0,

51,60,0,85,57,1,

51,60,0,85,57,0,

51,59,0,85,57,0,

51,59,0,84,57,0,

51,59,0,84,56,0,

51,59,0,83,56,0,

50,58,0,83,56,1,

50,58,1,83,56,0,

50,58,0,82,56,0,

50,58,0,83,55,0,

50,57,0,82,56,0,

49,57,0,82,55,0,

49,57,0,82,55,0,

49,57,0,81,55,0,

49,57,0,81,54,0,

48,56,0,81,54,0,

49,56,0,80,54,0,

48,56,0,80,53,0,

48,56,0,79,53,0,

48,56,0,79,53,0,

48,55,0,79,53,0,

48,55,0,79,53,0,

48,55,0,78,53,0,

47,55,0,78,52,0,

47,55,0,78,52,0,

46,54,0,78,52,0,

46,54,1,78,52,0,

47,54,0,77,51,0,

46,53,1,77,51,0,

46,53,0,77,51,0,

46,53,0,76,51,0,

45,53,0,76,51,0,

46,53,0,76,50,0,

45,52,0,76,51,0,

45,52,0,76,50,0,

45,52,0,75,50,0,

45,51,0,75,50,0,

45,51,0,74,50,0,

45,51,0,74,49,0,

44,51,0,73,49,0,

44,51,0,74,49,0,

44,50,0,73,49,0,

44,50,0,73,49,0,

43,51,0,73,49,0,

43,50,0,73,48,0,

44,49,0,73,48,0,

43,49,0,71,48,0,

43,49,0,71,48,0,

44,49,0,71,48,0,

44,49,0,71,48,1,

82,49,0,71,47,0,

81,49,0,71,47,1,

80,48,0,71,47,0,

79,63,0,70,47,1,

79,62,1,70,46,0,

79,62,0,70,46,0,

78,62,0,70,46,0,

78,61,0,69,46,0,

78,61,0,69,46,0,

77,61,1,69,46,0,

78,61,0,69,46,0,

77,60,0,68,45,0,

76,60,0,68,45,0,

76,60,0,67,45,0,

76,60,0,67,45,0,

76,59,0,67,45,0,

75,59,0,67,45,0,

75,67,0,67,44,1,

74,67,0,67,44,0,

74,67,0,67,44,0,

73,66,0,66,44,1,

73,66,0,66,44,0,

73,66,0,66,44,0,

73,66,0,65,43,0,

71,65,0,65,43,0,

82,65,0,65,43,0,

81,65,1,72,43,0,

81,64,0,73,42,0,

81,64,0,73,43,0,

80,63,0,73,42,1,

79,63,0,73,41,0,

79,63,0,71,42,0,

79,63,0,71,41,0,

79,63,0,71,41,0,

78,62,0,71,41,0,

78,62,0,71,41,0,

78,61,0,71,41,0,

77,61,0,70,41,0,

77,61,0,70,39,1,

77,61,0,70,41,0,

76,61,0,69,39,0,

76,61,0,69,40,0,

76,60,1,69,39,0,

75,60,0,68,39,0,

75,60,0,68,39,0,

75,60,0,67,39,0,

74,59,0,67,39,0,

73,59,0,67,39,0,

73,58,0,67,39,0,

73,58,0,67,39,0,

73,58,0,67,39,0,

73,57,0,66,39,0,

71,57,0,66,39,1,

73,57,0,66,39,0,

71,57,1,65,38,0,

71,56,0,65,38,0,

71,56,0,65,38,0,

71,56,0,64,38,0,

71,56,0,64,37,0,

71,56,0,63,37,0,

70,55,0,63,37,0,

70,56,0,63,37,0,

70,55,1,63,37,0,

69,55,0,63,36,0,

70,54,0,63,37,1,

101,54,0,62,37,0,

101,54,0,62,37,0,

100,53,0,62,36,0,

99,53,0,62,35,0,

99,53,0,62,36,0,

99,53,0,61,35,1,

98,52,0,61,35,0,

98,52,0,61,35,0,

97,52,0,61,35,0,

97,52,0,60,35,0,

97,52,1,60,35,0,

96,51,0,60,35,0,

96,51,0,60,35,0,

96,51,0,59,35,0,

94,50,0,59,35,0,

94,50,0,59,34,0,

94,50,0,59,34,0,

93,50,0,58,34,0,

93,49,0,59,34,0,

93,49,0,58,34,0,

92,49,0,58,33,0,

92,49,0,57,35,0,

92,49,0,58,35,0,

91,48,0,57,35,0,

91,48,0,57,35,0,

90,48,0,57,34,0,

90,48,0,57,34,0,

89,48,0,56,34,0,

89,48,0,56,34,0,

89,48,0,56,34,0,

88,47,1,56,34,0,

88,47,0,56,33,0,

88,47,0,56,33,0,

87,47,0,55,33,0,

87,46,0,55,33,0,

86,46,0,55,33,0,

86,46,1,55,33,0,

86,46,0,54,32,0,

85,46,0,54,33,0,

85,46,0,54,32,0,

84,45,0,54,31,0,

83,45,0,54,31,1,

83,45,0,54,31,0,

83,44,0,53,31,0,

83,44,0,53,31,0,

83,44,0,53,31,0,

82,44,0,53,31,0,

82,44,0,52,31,0,

81,44,0,53,31,0,

81,43,0,52,31,0,

81,43,0,52,31,1,

88,43,0,52,30,0,

87,43,0,51,31,1,

87,42,0,51,30,0,

87,43,0,51,30,0,

86,42,0,51,30,0,

86,42,0,51,30,0,

85,42,0,51,30,0,

85,41,0,50,30,0,

84,42,0,50,30,0,

84,41,0,50,30,0,

83,41,0,50,29,1,

83,41,0,49,29,0,

83,41,0,49,29,0,

82,41,0,50,63,0,

82,41,0,50,71,0,

82,39,1,50,71,0,

81,39,0,49,71,0,

81,39,0,50,70,0,

81,39,0,49,69,0,

81,39,0,49,69,0,

79,39,0,49,69,0,

79,39,0,48,68,0,

79,39,1,48,67,0,

79,39,0,48,68,0,

78,39,0,48,67,0,

78,39,0,48,67,0,

78,38,0,48,67,0,

78,38,1,48,66,0,

77,39,0,48,66,0,

77,38,0,47,66,0,

76,38,0,47,65,0,

77,37,0,47,65,0,

76,38,0,47,65,0,

76,38,0,46,64,0,

75,38,0,46,63,0,

75,38,0,46,63,0,

75,37,0,46,63,0,

74,37,0,46,63,0,

74,37,0,46,63,0,

73,36,0,46,63,0,

73,36,0,45,62,0,

73,36,0,45,62,0,

73,36,0,45,62,0,

71,36,0,45,62,0,

71,36,0,45,61,0,

71,36,0,45,61,0,

71,35,0,44,61,0,

71,35,0,44,61,0,

71,35,0,44,60,0,

71,35,1,44,60,0,

70,35,0,44,60,0,

70,34,0,43,59,0,

70,35,0,43,59,1,

70,34,0,43,59,0,

69,34,0,43,59,1,

69,34,0,42,59,0,

68,34,0,43,58,0,

68,34,0,43,57,0,

67,34,0,42,57,0,

68,33,0,42,57,0,

67,34,0,42,57,0,

67,33,0,42,57,0,

67,33,0,42,57,0,

67,33,0,41,56,0,

66,33,0,41,56,0,

66,32,0,41,56,0,

66,33,0,41,56,0,

65,32,0,41,56,0,

65,32,0,41,55,0,

65,31,0,39,55,0,

64,32,0,39,54,0,

64,32,0,39,54,0,

63,31,0,39,54,0,

63,31,0,39,54,0,

63,31,0,39,53,0,

63,31,0,39,53,0,

63,31,0,39,53,0,

63,31,0,39,53,0,

63,31,0,39,54,0,

62,31,0,39,54,0,

62,30,0,39,54,0,

62,30,0,39,54,0,

61,30,1,38,53,0,

61,30,0,39,53,0,

61,30,0,38,53,1,

60,30,0,38,53,0,

60,30,0,38,52,0,

60,30,1,38,52,0,

60,30,0,37,52,0,

59,30,0,37,51,0,

59,29,0,37,51,0,

59,29,0,37,51,0,

59,29,0,37,51,0,

58,29,0,37,51,0,

58,29,0,36,50,0,

58,29,0,36,50,0,

58,28,0,36,50,1,

57,28,0,36,50,0,

57,28,1,36,49,0,

57,28,0,36,50,0,

57,28,0,36,49,0,

56,28,0,35,49,0,

56,28,1,35,49,0,

56,27,1,36,48,0,

56,28,0,35,48,0,

56,27,0,35,48,0,

56,27,0,35,48,0,

56,27,0,35,48,1,

55,27,0,35,47,0,

55,27,0,35,47,0,

55,27,0,34,47,0,

54,27,0,34,47,0,

54,26,0,34,47,0,

54,27,0,34,46,0,

54,26,0,34,46,0,

53,26,0,34,46,0,

53,26,0,34,46,0,

53,26,0,34,45,0,

54,26,0,33,45,0,

54,26,0,33,45,0,

54,25,0,33,45,0,

54,25,0,33,45,0,

54,25,0,33,44,0,

53,26,0,33,44,0,

53,25,0,33,44,0,

53,25,0,32,44,0,

52,25,0,32,44,0,

52,25,0,32,44,0,

51,25,0,33,43,0,

51,25,0,32,43,0,

51,24,0,31,43,0,

51,24,0,31,43,0,

51,24,0,31,43,0,

51,24,0,31,42,0,

51,24,0,31,42,0,

50,24,0,31,42,0,

50,24,1,31,42,0,

50,24,0,31,41,0,

50,24,0,31,41,0,

50,24,0,31,41,0,

50,24,0,31,41,0,

