
56,26,0,71,33,1,
56,27,0,71,33,1,
56,27,1,71,33,1,
56,26,1,71,33,0,
55,26,1,70,33,1,
55,26,1,70,32,1,
55,26,1,70,32,0,
55,25,1,70,32,1,
55,26,1,69,32,1,
56,27,1,69,31,0,
56,26,0,68,31,0,
56,25,1,68,31,1,
55,25,0,68,32,1,
55,25,1,67,31,1,
54,25,1,67,31,1,
54,25,0,67,31,1,
54,25,1,66,30,1,
53,25,1,67,31,1,
53,25,1,66,30,0,
53,25,1,66,31,1,
53,24,0,66,30,1,
52,24,1,66,32,1,
52,24,0,66,33,1,
56,25,1,66,33,1,
55,25,1,66,33,1,
55,24,0,65,31,1,
54,24,0,65,32,1,
54,24,1,65,31,0,
54,24,1,65,31,1,
54,24,1,65,31,1,
53,24,1,64,31,1,
53,24,1,63,31,1,
53,23,1,63,31,1,
53,23,1,63,31,0,
52,24,1,63,31,1,
61,24,1,63,31,0,
61,23,0,65,30,1,
60,24,1,65,30,1,
60,22,1,64,30,0,
60,22,0,63,30,1,
59,23,1,63,30,1,
59,23,1,63,30,0,
59,22,0,62,30,1,
59,22,1,63,30,0,
58,22,1,63,29,0,
58,22,0,62,29,1,
58,22,1,62,29,0,
57,22,1,62,30,0,
63,22,1,62,31,0,
63,22,0,61,30,1,
63,21,1,61,30,1,
62,21,1,61,30,0,
62,21,0,60,30,1,
62,21,1,60,30,1,
61,21,0,60,30,1,
61,21,1,59,29,0,
61,20,0,59,29,1,
60,21,1,59,29,0,
60,20,1,59,29,1,
60,20,0,59,29,1,
60,20,1,59,29,1,
63,30,1,57,28,1,
63,30,0,58,29,1,
63,29,0,57,28,1,
62,29,1,57,29,1,
62,29,1,57,28,0,
62,28,1,57,28,1,
62,29,1,56,28,1,
61,28,1,56,28,1,
61,28,1,56,28,1,
61,28,1,56,27,1,
60,28,1,56,27,0,
60,28,1,56,28,1,
60,28,1,55,27,1,
60,27,1,55,26,1,
60,27,1,54,27,1,
59,27,1,54,26,1,
59,27,1,54,26,1,
58,27,1,54,26,1,
59,27,0,54,26,1,
57,27,1,54,25,1,
58,27,1,53,25,0,
57,26,1,53,26,1,
57,25,1,53,26,1,
57,25,1,53,25,0,
56,26,0,52,25,1,
56,25,1,52,36,1,
56,25,0,52,46,0,
56,25,1,52,45,1,
56,25,1,51,46,1,
56,25,1,51,45,1,
55,25,1,51,45,1,
55,24,1,51,45,1,
55,25,1,50,45,1,
54,24,1,50,44,0,
54,24,1,50,44,1,
53,24,1,50,44,1,
54,24,0,50,44,1,
53,24,1,49,43,1,
53,24,1,49,43,1,
53,30,1,49,43,1,
53,30,1,49,42,0,
53,29,1,49,42,0,
52,29,1,49,42,1,
52,29,0,48,41,1,
51,29,1,48,42,1,
51,29,1,48,41,1,
51,29,1,48,41,1,
51,29,1,47,41,0,
51,28,0,47,41,1,
51,28,1,47,41,1,
50,28,1,47,39,1,
50,28,1,71,40,1,
73,29,0,88,41,1,
99,33,1,87,39,1,
99,33,1,86,39,1,
98,34,1,86,39,1,
97,33,1,85,39,1,
97,33,0,85,39,1,
96,33,1,85,39,1,
96,32,0,83,39,0,
95,32,1,83,38,0,
95,31,1,83,39,1,
94,31,1,83,38,1,
94,31,1,82,38,1,
94,31,1,82,38,1,
93,31,1,82,38,1,
93,31,0,81,38,1,
92,31,1,81,38,0,
92,31,1,81,38,1,
91,31,0,80,37,0,
91,31,1,79,38,0,
91,31,1,79,38,1,
90,30,1,79,37,1,
90,30,1,79,37,1,
89,30,1,79,37,1,
89,30,1,78,37,1,
89,30,1,78,37,1,
88,30,1,77,36,1,
88,29,1,77,36,1,
87,29,0,77,36,1,
87,29,1,76,35,1,
87,29,1,77,35,1,
86,29,1,76,35,1,
86,29,0,75,35,1,
85,29,1,75,35,1,
85,28,1,75,35,0,
85,28,1,74,35,1,
84,28,1,74,34,1,
84,28,0,74,34,0,
83,28,0,73,34,1,
83,28,0,73,34,1,
83,28,1,73,35,1,
82,27,1,73,39,1,
82,27,0,71,39,1,
82,28,0,71,38,0,
81,27,0,71,38,0,
81,28,1,71,38,1,
80,27,0,71,38,1,
80,27,1,70,37,1,
79,27,1,71,38,1,
79,27,1,70,37,1,
79,27,0,70,36,1,
79,27,1,69,37,1,
78,26,1,69,36,1,
78,27,1,69,37,1,
77,26,1,68,37,1,
80,36,1,68,37,1,
80,38,1,68,37,1,
81,37,1,67,36,1,
80,37,1,67,36,1,
79,37,1,67,36,1,
79,37,1,67,35,0,
79,36,1,66,35,1,
79,36,0,66,35,1,
78,36,1,66,35,1,
78,36,1,65,35,1,
77,35,1,65,35,1,
77,35,1,65,35,1,
77,35,1,65,35,1,
77,35,1,65,34,0,
76,35,1,63,34,1,
76,35,1,63,34,1,
76,35,1,63,34,1,
75,35,1,63,33,0,
75,34,1,63,33,1,
75,35,1,63,33,1,
74,34,1,63,33,1,
74,34,1,62,33,1,
74,33,1,62,33,0,
73,34,1,62,32,1,
73,33,1,62,39,1,
71,33,0,74,69,1,
73,33,1,73,68,1,
71,33,1,73,67,0,
71,32,1,73,67,1,
71,32,1,71,67,1,
71,32,1,71,66,1,
71,31,1,71,66,0,
71,31,1,71,66,1,
71,31,1,71,65,1,
71,31,1,70,65,1,
70,31,1,71,64,1,
69,31,1,70,65,1,
69,31,1,69,63,1,
69,42,1,69,63,1,
69,42,1,69,63,1,
69,42,1,69,63,1,
68,42,1,68,63,1,
67,41,1,67,63,1,
67,41,0,68,62,1,
67,39,1,67,62,1,
67,41,1,67,61,0,
67,39,1,67,61,1,
67,39,0,66,61,1,
66,39,1,66,61,1,
66,39,0,65,60,0,
65,39,1,65,60,1,
70,39,0,65,60,1,
69,39,1,65,60,1,
68,39,1,65,60,1,
68,39,1,64,59,1,
68,39,1,64,59,1,
68,38,1,63,59,1,
67,38,1,63,58,1,
67,38,0,63,57,1,
67,38,1,63,57,0,
66,38,1,63,57,1,
66,37,1,62,57,1,
66,37,1,62,57,1,
65,37,1,62,57,1,
65,37,1,61,56,1,
65,36,0,61,56,1,
64,37,1,61,56,1,
64,36,1,61,56,1,
63,35,1,60,56,1,
63,36,0,60,56,1,
63,35,1,60,56,0,
63,35,1,60,55,1,
63,35,1,60,55,1,
62,35,0,59,54,0,
63,35,1,59,54,0,
62,35,1,59,54,0,
62,35,0,59,54,1,
61,34,1,59,53,1,
61,34,1,58,54,1,
61,34,1,58,53,1,
61,34,1,57,53,0,
60,34,1,57,52,0,
60,33,1,57,53,1,
60,33,1,57,51,1,
60,33,1,57,51,1,
60,33,1,57,51,1,
59,33,1,56,51,1,
59,33,1,56,51,1,
59,33,0,56,51,1,
59,32,1,56,51,1,
58,32,1,55,50,1,
58,32,1,57,50,0,
57,31,1,57,50,1,
57,31,0,56,50,1,
57,31,1,56,50,1,
57,31,1,56,49,1,
57,31,1,56,49,1,
56,31,0,56,49,0,
56,31,1,55,48,1,
56,31,1,55,48,1,
56,30,0,55,48,1,
56,31,1,54,48,1,
56,30,1,54,48,1,
55,30,1,54,48,1,
55,30,1,53,47,1,
55,30,1,54,47,1,
54,30,1,53,47,1,
54,30,1,53,47,1,
54,30,1,53,46,1,
53,29,0,52,46,0,
53,29,1,52,46,1,
53,29,0,51,45,1,
53,29,1,51,45,1,
53,28,1,51,45,1,
52,29,1,51,45,1,
52,28,1,51,45,1,
51,28,0,51,45,1,
51,28,0,50,45,1,
51,28,0,50,44,0,
51,28,1,51,44,0,
51,27,1,50,44,1,
51,27,1,49,44,1,
51,28,0,49,43,1,
50,27,0,49,43,1,
50,27,1,49,43,0,
50,27,1,49,43,1,
49,27,1,49,43,1,
49,26,1,49,43,0,
49,26,1,48,42,1,
63,27,0,48,42,0,
67,26,1,48,42,1,
67,26,1,48,42,1,
67,26,1,47,41,1,
66,26,1,47,41,1,
66,25,0,47,41,0,
65,25,1,47,41,1,
65,25,1,46,41,1,
64,25,1,47,39,0,
65,25,1,46,39,1,
64,25,0,46,39,1,
63,25,1,46,39,1,
63,24,1,46,39,1,
63,35,0,45,39,1,
63,37,1,45,39,1,
63,37,1,45,39,0,
62,37,1,45,39,1,
62,36,1,44,39,1,
62,36,1,44,38,0,
62,36,1,45,39,1,
61,36,1,44,38,1,
61,36,1,44,38,1,
61,35,1,44,38,0,
60,35,1,44,38,1,
60,35,1,43,38,1,
60,35,0,43,37,1,
59,35,1,44,37,1,
60,36,0,44,37,1,
59,36,1,44,37,1,
59,35,1,44,37,1,
59,35,0,43,37,1,
58,35,0,43,37,1,
58,35,1,43,36,0,
58,35,1,42,36,0,
57,34,1,42,36,1,
57,35,1,42,36,1,
57,35,1,42,35,0,
57,34,1,41,35,1,
57,34,0,41,35,1,
56,34,1,67,44,1,
56,33,1,66,45,1,
56,34,0,66,44,1,
56,33,1,65,44,1,
56,33,1,65,43,0,
55,33,1,65,44,1,
54,33,1,65,43,1,
54,33,1,63,43,1,
55,32,1,63,43,1,
54,32,1,63,42,1,
53,32,1,63,42,0,
53,31,1,63,42,1,
53,31,1,62,41,1,
54,31,1,62,41,1,
53,31,1,62,41,1,
52,31,1,62,41,1,
52,31,1,61,41,1,
52,31,1,61,41,1,
51,31,1,61,41,1,
52,30,0,61,39,1,
51,31,1,60,39,1,
51,31,1,60,39,1,
51,30,1,60,39,1,
50,30,1,59,39,1,
50,30,1,59,39,1,
50,30,1,59,39,0,
50,29,0,58,39,1,
50,29,1,58,38,1,
49,30,1,58,39,1,
49,29,1,57,38,1,
49,28,0,57,38,1,
49,29,1,57,38,1,
48,29,1,57,38,1,
48,29,1,57,38,1,
48,29,0,56,37,1,
48,28,1,56,37,1,
48,28,1,56,37,1,
48,28,1,56,36,1,
48,28,1,56,37,1,
47,28,1,56,37,0,
48,27,1,56,37,1,
47,27,1,55,35,0,
47,27,1,54,36,1,
47,27,1,55,36,1,
46,27,1,54,35,1,
46,27,1,54,35,0,
46,26,1,54,35,1,
46,26,1,53,35,1,
45,26,1,53,35,1,
45,27,1,53,35,1,
46,26,1,53,34,1,
46,26,1,52,34,1,
45,26,0,52,34,0,
44,26,1,51,35,1,
44,25,0,52,34,1,
44,25,1,51,33,1,
44,26,1,51,33,1,
44,25,1,51,33,0,
43,25,1,51,33,1,
43,25,1,51,33,1,
43,25,1,50,33,1,
43,25,0,50,33,0,
43,24,1,50,32,1,
43,24,1,50,32,1,
42,24,1,49,32,1,
42,24,1,49,32,1,
42,24,1,49,31,0,
43,24,1,48,31,0,
42,24,1,48,31,1,
41,24,0,48,31,1,
42,24,1,49,31,1,
41,23,0,48,31,1,
41,23,0,48,31,1,
41,23,1,47,30,0,
41,23,1,47,31,1,
41,22,1,47,31,1,
39,23,1,47,30,1,
39,22,1,46,30,0,
39,22,1,46,30,1,
42,22,1,46,30,1,
71,24,1,46,29,1,
71,24,1,46,30,1,
71,24,1,46,29,1,
71,24,1,45,29,1,
71,24,1,45,29,0,
70,23,1,45,30,1,
70,24,0,45,30,1,
69,23,0,44,29,1,
69,22,1,44,29,1,
68,22,1,44,29,1,
68,23,1,44,28,1,
67,23,1,44,29,1,
67,23,1,44,43,0,
67,22,1,43,42,1,
67,22,1,43,41,1,
66,22,1,43,41,0,
66,22,1,43,41,1,
66,22,0,43,41,1,
65,22,1,43,41,1,
65,21,1,42,40,1,
65,21,0,42,39,1,
64,21,1,42,39,1,
64,21,0,41,39,1,
63,21,1,42,39,1,
63,21,0,41,39,1,
69,26,1,41,39,0,
69,25,1,41,39,1,
68,25,1,41,39,1,
68,25,1,40,39,0,
68,25,0,41,39,1,
67,25,1,39,39,0,
67,25,1,39,38,0,
67,24,1,39,38,1,
67,25,1,39,38,1,
66,24,0,39,38,1,
65,24,1,39,38,1,
66,24,1,39,37,0,
65,24,1,39,37,0,
65,24,1,39,37,1,
65,24,1,39,37,1,
64,24,1,39,36,1,
64,23,1,38,36,1,
63,24,0,38,36,1,
63,23,1,39,36,1,
63,23,0,38,35,0,
62,24,0,38,35,1,
62,23,1,38,35,0,
62,23,1,37,35,1,
62,22,0,37,35,1,
62,22,1,37,35,1,
61,23,1,37,34,0,
65,25,1,37,34,1,
70,28,1,37,35,1,
69,28,1,37,34,1,
69,28,0,36,34,0,
68,27,1,36,34,1,
68,28,1,35,33,0,
67,27,1,36,33,0,
67,27,1,35,34,1,
67,27,1,35,33,1,
67,27,0,35,33,1,
67,26,1,35,33,1,
66,26,1,35,32,0,
66,26,0,35,33,1,
65,26,1,35,41,1,
66,26,1,35,55,1,
65,25,1,35,57,1,
65,25,0,35,56,1,
64,25,1,35,56,1,
64,25,1,35,56,1,
63,25,1,34,55,1,
63,25,1,34,55,1,
63,25,1,34,55,1,
62,25,0,34,55,1,
63,24,0,34,54,1,
62,24,1,33,54,1,
62,24,1,34,54,1,
62,25,1,50,53,1,
62,24,1,55,53,1,
61,24,0,55,53,1,
61,24,1,55,53,1,
61,24,1,54,52,1,
60,24,1,54,51,0,
60,23,1,54,52,1,
60,24,0,53,51,1,
60,23,1,53,51,0,
60,23,1,53,51,1,
59,24,1,53,50,0,
58,22,1,52,50,0,
59,23,1,51,50,1,
58,22,1,51,49,1,
58,22,1,51,49,1,
59,23,0,51,49,1,
59,23,1,51,49,1,
59,23,1,51,49,1,
59,22,1,50,49,1,
58,22,1,51,48,1,
58,22,1,50,48,1,
57,22,1,50,48,1,
57,22,1,50,48,1,
57,22,0,49,48,1,
57,21,1,49,47,1,
56,21,1,49,47,1,
56,21,1,49,47,0,
58,34,1,49,47,1,
58,33,1,48,47,1,
57,33,1,48,46,0,
57,33,1,48,46,0,
56,33,1,48,46,1,
57,33,1,47,45,1,
57,33,1,47,45,1,
56,31,1,47,45,1,
56,32,0,46,45,1,
56,32,1,46,45,1,
56,31,1,46,45,1,
55,31,1,46,44,1,
56,31,0,45,44,1,
55,31,1,45,44,1,
55,31,0,45,44,1,
54,31,1,45,44,1,
54,31,0,45,43,1,
54,30,1,45,43,1,
54,31,1,45,43,1,
54,30,0,44,42,1,
53,30,1,44,43,1,
53,30,1,44,43,1,
52,30,1,44,42,1,
53,29,1,44,42,1,
52,29,1,43,41,1,
52,29,1,43,42,1,
52,29,1,43,41,1,
53,29,1,43,41,1,
53,29,0,43,41,0,
53,28,1,43,40,1,
52,29,0,42,39,1,
52,28,1,42,39,0,
52,28,1,41,39,1,
52,28,1,41,39,1,
51,28,1,41,39,1,
51,28,1,41,39,1,
51,28,1,41,39,1,
51,28,1,41,39,1,
51,27,0,41,39,1,
52,27,1,39,39,1,
53,27,1,39,38,0,
52,27,1,39,38,1,
52,27,1,39,38,1,
52,27,1,39,38,1,
51,27,1,39,38,1,
51,26,1,39,37,1,
51,26,1,39,38,1,
50,26,1,39,37,1,
50,26,1,39,37,1,
50,25,1,39,37,1,
50,26,1,38,36,0,
50,26,1,38,36,1,
50,25,1,41,38,1,
50,30,1,40,38,1,
50,31,1,39,37,0,
49,30,0,39,37,0,
49,30,1,39,37,0,
49,30,1,39,37,1,
49,29,1,39,37,0,
49,30,1,39,36,1,
48,29,1,39,36,1,
48,29,1,39,35,0,
48,29,1,38,36,0,
48,29,0,38,35,1,
48,28,1,38,35,1,
48,29,1,38,35,0,
63,28,1,38,35,1,
64,28,0,37,35,1,
63,28,1,38,35,1,
63,28,1,37,35,1,
63,28,0,37,34,1,
62,28,0,37,34,1,
63,28,1,37,34,0,
62,27,1,37,34,0,
62,27,1,36,34,1,
62,27,1,36,33,1,
61,27,1,36,34,1,
61,26,0,35,33,1,
60,27,1,35,33,0,
60,27,0,36,34,1,
60,26,1,35,33,1,
60,26,0,35,33,1,
59,26,1,35,33,1,
59,26,1,35,33,1,
59,25,0,35,33,1,
59,25,0,35,33,1,
58,25,1,34,33,1,
58,26,1,35,33,1,
58,25,1,34,32,0,
57,25,1,34,31,1,
57,25,1,39,33,1,
57,25,0,53,32,0,
57,25,1,51,32,1,
56,25,1,51,32,1,
56,25,1,51,32,1,
56,25,1,51,31,1,
56,25,1,50,31,1,
56,25,0,50,31,1,
55,25,1,51,31,0,
55,24,1,50,31,1,
55,24,1,50,31,0,
55,25,1,50,31,1,
54,24,0,49,31,1,
54,24,1,49,30,1,
54,24,1,49,30,0,
56,24,1,48,30,0,
56,24,0,48,30,1,
55,24,1,48,30,0,
54,24,1,48,30,1,
54,23,1,48,30,0,
54,24,1,47,29,0,
54,23,1,47,29,1,
53,23,0,47,29,1,
53,24,1,47,29,0,
53,23,1,46,29,1,
53,23,0,46,29,1,
53,22,1,46,29,1,
53,22,1,46,29,1,
53,22,0,46,29,1,
51,23,1,47,29,1,
52,22,0,47,30,1,
51,22,1,47,29,1,
51,22,1,47,29,1,
51,22,0,46,28,1,
51,21,0,46,29,1,
51,21,1,46,28,0,
50,21,1,46,28,1,
50,21,0,45,28,1,
50,21,1,45,28,1,
50,21,1,45,28,1,
50,20,1,45,32,0,
50,21,1,44,48,1,
50,21,0,44,49,1,
49,21,1,44,49,1,
49,21,0,44,49,1,
49,21,1,44,48,0,
48,20,1,44,48,1,
48,20,0,43,48,1,
48,21,0,43,48,1,
48,20,0,43,48,1,
48,20,0,43,48,1,
48,20,1,42,47,1,
47,20,1,42,46,1,
48,20,1,42,47,1,
47,21,1,42,46,0,
47,21,1,41,46,0,
46,20,1,41,46,1,
46,21,1,41,45,1,
47,20,1,41,46,1,
46,20,1,41,45,0,
46,20,1,40,45,1,
46,20,1,41,45,0,
45,19,1,39,44,0,
45,19,1,39,45,1,
45,20,0,39,44,1,
44,19,1,39,44,1,
46,19,1,39,44,1,
70,20,1,39,44,1,
70,21,0,39,43,0,
69,21,1,39,43,1,
69,21,1,39,43,0,
68,20,1,38,43,1,
68,20,1,39,43,1,
67,20,1,38,42,0,
67,20,1,38,41,1,
67,20,1,38,41,1,
67,20,1,38,41,1,
66,20,1,38,41,0,
66,19,1,37,41,1,
66,19,0,37,41,1,
65,21,1,37,40,0,
65,21,1,37,39,1,
65,21,0,36,39,1,
65,20,1,36,39,0,
65,20,0,36,39,1,
63,21,1,36,39,1,
63,19,1,36,39,1,
63,20,1,35,39,0,
63,20,1,35,39,1,
63,19,1,35,38,1,
62,19,1,35,39,0,
62,19,1,35,38,0,
62,19,1,35,39,1,
62,19,0,35,39,1,
62,19,0,35,38,1,
61,19,1,34,38,1,
61,19,1,34,38,1,
61,19,0,34,38,1,
60,19,1,34,37,1,
60,18,0,33,37,1,
59,19,1,34,37,1,
59,18,0,33,36,1,
60,18,1,33,37,1,
59,18,1,33,37,1,
59,18,0,33,36,1,
58,18,1,33,36,1,
60,18,1,33,36,1,
60,18,1,34,35,1,
59,18,1,33,35,1,
59,17,0,33,35,1,
59,18,1,33,35,1,
58,17,1,33,35,1,
58,17,0,33,34,1,
58,18,1,33,35,1,
58,18,1,32,34,1,
58,17,1,31,34,0,
57,17,1,31,34,1,
57,17,1,32,34,1,
56,17,0,31,34,0,
57,16,1,31,34,1,
56,17,1,31,33,1,
56,17,0,31,33,1,
56,17,1,31,33,1,
56,16,1,31,33,0,
56,16,1,31,33,1,
55,16,1,31,33,1,
55,16,1,31,32,1,
54,15,1,30,32,0,
54,16,1,30,32,0,
54,16,1,31,31,1,
54,15,1,30,32,1,
54,15,1,30,31,1,
54,15,1,30,31,1,
53,16,1,30,31,0,
53,15,1,29,31,0,
53,15,1,29,31,1,
52,15,0,29,31,1,
52,15,1,29,30,0,
51,15,0,29,31,1,
51,15,1,29,31,1,
51,15,1,29,30,0,
51,15,1,29,30,1,
51,15,1,28,30,1,
51,15,1,28,30,0,
50,15,1,28,29,0,
51,14,0,28,30,1,
50,14,0,28,29,1,
50,14,1,28,29,0,
49,14,1,28,29,0,
49,15,1,28,29,1,
50,14,1,28,29,1,
50,14,1,28,28,1,
49,14,1,27,28,1,
49,14,1,27,28,1,
48,14,0,27,29,1,
49,13,1,27,29,1,
48,13,1,26,28,1,
48,14,1,27,28,0,
48,14,1,27,28,1,
55,16,1,27,28,0,
55,15,0,27,28,0,
55,15,1,26,27,0,
54,15,1,26,27,1,
54,15,1,26,27,1,
54,15,1,26,27,1,
53,15,1,26,27,1,
53,15,0,25,27,1,
53,15,1,25,26,1,
53,15,1,25,26,1,
52,15,0,25,26,1,
52,15,1,25,38,1,
54,15,1,25,55,0,
54,15,1,25,55,1,
54,15,1,25,54,1,
53,15,0,25,54,1,
53,14,1,25,54,1,
53,14,0,25,53,0,
53,15,0,24,53,1,
53,14,1,25,53,1,
51,14,1,24,52,0,
51,14,1,24,53,1,
51,14,0,24,51,1,
51,14,1,24,51,0,
51,13,1,24,51,1,
51,14,1,24,51,1,
50,14,0,24,51,1,
51,13,1,24,51,0,
50,13,1,24,51,1,
50,13,1,24,50,0,
49,13,1,24,50,1,
49,13,0,24,50,0,
49,13,0,24,49,1,
49,13,1,24,49,1,
48,13,1,24,49,1,
48,13,1,24,49,1,
48,13,0,23,48,0,
48,13,0,24,48,1,
48,13,1,24,48,0,
51,17,1,23,47,1,
51,18,1,24,48,1,
50,18,0,23,47,1,
50,18,0,24,47,1,
50,17,1,22,47,1,
49,18,0,23,46,1,
49,18,1,23,46,1,
49,17,0,22,46,1,
49,18,1,23,46,0,
48,17,0,22,45,1,
48,17,0,22,46,1,
48,17,1,22,46,1,
48,17,0,22,46,0,
48,17,0,22,45,0,
50,17,1,21,44,1,
49,17,1,21,44,0,
49,16,1,22,44,1,
49,16,1,22,44,1,
49,16,1,21,44,0,
49,16,1,21,43,0,
49,16,0,21,43,1,
48,16,1,21,43,0,
48,15,1,21,43,0,
48,16,1,21,42,1,
48,15,1,20,43,1,
66,15,1,31,42,0,
66,16,1,64,43,1,
65,16,1,67,42,1,
64,16,0,66,42,1,
64,16,1,66,42,1,
63,16,0,65,41,1,
63,16,1,65,41,0,
63,15,1,64,41,1,
63,16,1,65,41,1,
63,15,0,63,41,1,
62,15,1,63,40,1,
62,16,1,63,39,1,
62,15,1,63,39,1,
61,15,0,63,39,1,
61,15,1,62,39,1,
61,15,1,62,39,1,
61,15,1,62,39,1,
60,15,1,61,39,1,
60,15,1,61,39,0,
60,15,1,61,39,1,
60,15,0,61,39,1,
59,15,1,60,38,0,
59,15,1,60,38,1,
59,14,1,60,38,1,
58,14,0,59,38,1,
58,15,1,59,38,1,
58,14,0,59,38,1,
58,14,1,59,38,1,
57,14,1,59,37,1,
57,14,1,58,38,1,
57,14,1,58,37,1,
57,14,1,58,38,1,
56,14,0,57,36,0,
56,14,1,57,37,1,
56,14,0,57,36,1,
56,14,0,56,36,0,
55,14,1,56,37,1,
55,14,0,56,36,1,
54,14,1,56,35,1,
55,13,1,56,35,1,
55,13,1,56,36,1,
54,13,1,56,35,0,
54,13,1,55,35,1,
53,14,1,55,35,1,
53,13,1,54,35,1,
53,13,0,54,35,1,
53,13,1,54,35,1,
52,13,1,54,35,1,
52,13,1,53,34,1,
52,13,1,53,34,1,
52,12,1,53,34,1,
51,13,1,53,34,1,
61,25,1,53,38,0,
76,31,1,53,38,1,
76,31,1,52,37,1,
75,31,0,51,37,0,
75,31,1,51,37,1,
74,31,1,51,37,0,
74,31,0,51,36,1,
73,31,1,51,36,0,
73,30,1,51,35,1,
73,30,1,50,35,0,
71,30,1,50,35,1,
71,30,1,51,36,0,
71,29,1,50,35,1,
71,29,1,50,35,1,
79,30,1,49,35,1,
92,33,1,49,35,1,
91,36,1,49,35,1,
91,35,0,49,34,1,
90,35,1,49,34,0,
89,35,0,48,34,1,
89,35,1,48,34,1,
89,35,1,48,34,1,
88,34,1,48,34,1,
88,34,1,47,33,1,
88,34,1,47,33,1,
87,34,1,47,33,1,
88,34,1,47,33,1,
86,33,1,46,33,1,
86,34,1,46,32,1,
86,33,0,46,32,1,
85,33,1,46,32,1,
85,33,1,46,31,1,
85,33,1,46,31,0,
84,31,1,45,31,1,
83,32,1,45,31,0,
83,31,1,45,31,0,
83,31,1,45,31,1,
83,31,1,44,31,1,
82,31,1,44,31,0,
82,31,1,44,30,1,
81,31,1,44,31,1,
81,31,1,44,30,1,
81,31,1,43,30,0,
80,30,1,43,30,1,
79,30,1,43,30,1,
79,30,1,42,30,1,
79,31,1,43,30,1,
79,30,0,43,30,0,
79,30,1,42,30,1,
78,30,1,42,29,1,
78,30,0,42,29,1,
78,29,1,41,29,1,
77,30,1,41,29,1,
77,29,1,41,29,1,
77,29,1,41,29,1,
76,29,1,41,29,1,
76,29,1,40,29,1,
76,28,1,41,28,0,
75,28,0,41,28,1,
75,28,0,39,28,0,
75,28,1,39,28,1,
74,28,1,39,28,1,
73,28,1,39,28,1,
73,27,0,39,27,1,
73,28,0,39,27,1,
73,27,1,39,28,1,
73,27,1,44,29,0,
71,27,1,45,29,0,
71,27,0,44,29,1,
71,27,1,44,29,1,
71,26,0,44,29,1,
71,27,1,44,29,0,
70,26,1,44,29,1,
71,26,0,43,28,1,
70,27,1,43,28,1,
70,26,1,43,28,1,
69,25,1,42,28,1,
69,26,1,42,28,1,
69,26,1,42,28,1,
68,25,1,41,28,1,
68,25,1,42,28,1,
67,25,0,42,27,1,
67,25,1,41,28,1,
67,25,0,41,27,1,
67,25,1,41,27,1,
67,24,1,40,27,0,
67,24,1,39,26,0,
66,24,1,39,26,1,
66,25,1,39,26,0,
65,24,1,39,27,1,
65,24,1,39,26,1,
65,24,1,39,25,0,
65,24,1,39,26,1,
64,24,0,39,26,1,
63,24,0,39,25,1,
63,24,1,39,25,1,
63,23,1,39,25,1,
63,24,1,38,25,1,
63,23,0,38,25,1,
62,23,1,38,25,1,
63,23,1,38,25,1,
62,23,1,38,25,0,
62,23,1,38,25,1,
61,22,1,38,25,1,
61,22,1,37,24,1,
61,22,0,37,24,0,
61,22,1,37,24,0,
60,22,0,37,24,1,
60,22,1,36,24,1,
60,22,1,36,24,1,
60,21,0,35,24,1,
59,21,1,36,24,0,
59,21,1,35,24,0,
59,21,1,35,23,0,
59,21,0,35,24,1,
58,21,0,35,23,1,
58,21,1,35,23,1,
58,21,1,35,24,1,
57,21,1,34,23,1,
57,21,1,35,23,1,
57,20,0,34,22,1,
57,20,1,34,22,0,
56,20,1,34,22,1,
56,20,1,34,23,1,
56,20,0,34,22,1,
56,20,1,34,22,1,
56,19,1,34,22,0,
56,19,0,33,22,1,
55,19,0,33,22,1,
55,19,1,33,21,1,
55,19,0,33,21,1,
54,19,0,33,23,1,
56,19,1,32,23,1,
55,19,0,32,23,0,
55,19,1,32,24,1,
55,19,0,31,22,1,
54,19,1,31,22,0,
54,19,0,32,22,0,
54,19,1,31,22,0,
53,19,1,31,22,1,
54,19,0,31,22,0,
53,18,1,31,22,1,
53,18,1,31,21,1,
52,19,1,31,21,0,
53,18,1,31,22,1,
54,19,1,60,63,1,
54,18,1,99,83,0,
53,18,1,98,83,1,
52,18,1,98,81,1,
52,18,1,97,82,1,
52,18,1,96,81,1,
52,18,1,96,81,1,
51,18,0,95,79,1,
51,18,1,95,79,0,
51,17,1,95,79,1,
51,17,1,94,79,0,
50,17,1,94,78,1,
50,17,1,94,78,1,
50,17,1,93,78,1,
50,17,1,93,77,0,
50,17,1,92,77,1,
50,17,1,92,77,1,
49,17,1,91,76,1,
49,17,1,91,76,0,
49,16,1,91,76,1,
48,17,1,90,75,1,
48,16,1,89,75,1,
48,16,0,89,75,1,
48,16,0,89,74,0,
48,16,1,88,73,1,
50,16,1,88,73,1,
54,17,1,88,73,2,
54,17,1,87,73,1,
53,17,1,87,71,0,
53,17,1,87,71,1,
53,16,1,86,71,1,
52,17,1,86,71,0,
52,16,1,86,71,1,
51,16,1,85,71,1,
51,16,1,84,70,1,
51,16,1,84,70,1,
51,16,1,84,70,0,
51,16,1,83,70,1,
51,16,1,83,69,1,
58,25,0,83,69,1,
60,27,1,82,68,0,
59,27,1,82,69,0,
59,27,0,82,68,1,
59,27,1,81,67,1,
58,27,1,81,67,1,
58,27,1,81,67,1,
57,27,1,80,67,1,
57,26,1,79,66,1,
57,26,1,79,66,0,
57,26,1,79,66,1,
57,25,1,79,66,0,
56,27,1,86,73,1,
56,26,1,86,73,1,
56,26,0,85,73,1,
56,26,1,85,73,0,
56,26,1,84,71,1,
56,26,1,84,71,1,
55,25,1,83,71,1,
55,26,1,83,71,1,
54,25,1,83,71,0,
54,25,0,82,70,1,
54,25,1,82,70,1,
53,25,1,82,70,1,
54,24,0,81,70,1,
53,25,0,81,69,1,
53,25,1,81,69,1,
54,25,1,80,69,1,
53,25,1,80,68,1,
53,25,1,79,68,0,
52,24,1,79,67,1,
52,24,1,79,67,1,
52,24,1,79,67,1,
52,24,1,79,67,0,
51,24,0,78,66,1,
51,23,0,77,66,1,
51,23,1,77,73,1,
51,24,1,77,71,1,
51,24,1,76,71,1,
51,23,1,76,71,1,
50,23,1,76,71,1,
50,22,0,75,71,1,
50,23,0,76,71,1,
49,23,1,75,71,1,
49,22,1,75,71,1,
49,22,1,74,70,1,
49,22,1,74,69,1,
48,22,1,74,69,1,
49,22,1,73,69,1,
48,22,1,73,69,1,
48,22,1,73,68,0,
48,21,1,71,68,1,
48,22,1,71,67,1,
48,36,1,71,67,0,
47,36,1,71,67,1,
47,35,1,71,67,1,
47,35,1,71,67,1,
47,35,1,70,66,0,
47,35,1,70,65,1,
46,35,1,70,65,1,
46,35,1,70,65,1,
46,34,0,70,65,1,
46,34,0,69,65,1,
46,34,1,69,64,0,
45,34,0,87,64,0,
48,34,1,101,64,1,
47,34,1,99,63,1,
48,34,1,99,63,0,
47,34,1,99,63,1,
47,34,1,98,63,1,
47,34,1,98,63,1,
47,33,0,97,62,1,
46,33,1,97,62,1,
46,33,1,96,62,0,
46,33,1,96,61,1,
45,33,1,96,62,1,
45,32,1,95,61,1,
45,33,1,95,61,1,
55,32,1,96,67,1,
54,32,1,98,67,1,
54,33,1,98,67,1,
54,31,1,97,67,1,
53,32,1,97,67,1,
53,32,1,96,66,1,
53,31,1,96,66,0,
52,31,0,95,66,1,
52,31,1,95,65,0,
52,31,1,94,65,1,
51,31,1,94,65,1,
51,31,1,93,64,1,
51,31,0,93,64,0,
51,38,1,92,63,1,
68,39,0,92,63,1,
67,39,1,92,63,1,
67,39,1,91,62,0,
67,39,1,91,62,1,
66,39,1,91,62,0,
66,39,0,90,62,1,
66,39,1,90,62,1,
66,38,1,89,61,0,
65,38,1,89,61,1,
65,39,1,88,61,1,
65,38,1,88,60,0,
64,38,1,88,60,1,
64,38,1,88,60,0,
63,37,1,87,60,1,
63,37,0,86,60,1,
63,37,1,87,59,1,
63,37,1,86,59,1,
62,36,1,86,58,1,
62,37,1,85,58,1,
62,36,1,85,58,1,
61,36,1,85,58,1,
62,35,1,84,57,1,
61,36,1,83,57,0,
60,35,1,83,57,1,
61,35,1,83,60,0,
61,35,1,83,62,1,
61,35,0,82,61,1,
61,35,1,82,61,1,
60,34,1,81,60,1,
60,35,1,82,60,0,
60,34,1,81,60,1,
60,34,1,80,60,1,
60,34,1,80,59,1,
59,34,1,79,59,1,
59,33,0,79,59,0,
58,33,1,79,60,1,
58,33,1,79,59,1,
58,33,0,79,58,1,
77,33,1,79,58,1,
94,63,1,78,57,0,
93,62,1,78,57,1,
92,62,1,77,57,1,
92,62,1,77,57,1,
92,61,1,77,56,1,
91,61,1,76,56,1,
91,60,1,76,56,1,
90,60,1,76,56,1,
90,60,1,76,56,1,
89,60,1,75,55,1,
89,60,1,75,55,1,
88,59,1,74,55,1,
88,59,1,74,55,0,
88,58,1,74,54,1,
87,58,1,73,54,1,
87,57,1,73,54,1,
86,58,1,73,54,1,
86,57,1,72,53,1,
86,57,1,73,53,1,
85,57,1,71,53,1,
85,57,1,71,52,1,
84,56,1,71,52,1,
84,56,1,71,52,1,
83,56,0,70,51,1,
83,56,1,71,51,1,
82,55,1,70,51,1,
82,55,1,70,51,1,
82,55,1,70,51,0,
82,54,1,69,51,1,
82,54,0,69,51,1,
81,54,1,69,50,1,
81,53,1,68,49,1,
80,53,1,68,49,1,
79,53,0,67,50,0,
79,53,1,67,49,1,
79,52,1,67,49,0,
79,52,1,67,49,1,
78,51,1,67,49,0,
78,51,1,75,49,0,
78,51,0,75,48,1,
78,51,0,75,48,1,
77,51,1,75,48,1,
77,50,1,74,48,1,
76,50,1,73,48,1,
76,50,1,73,47,0,
76,50,1,73,47,0,
75,50,1,73,47,0,
75,50,1,71,47,1,
74,49,1,71,47,1,
74,49,1,71,46,1,
74,49,1,71,46,1,
74,49,0,71,46,1,
74,48,1,71,46,1,
74,48,1,70,46,1,
74,48,0,70,45,1,
73,48,1,69,45,1,
73,48,1,69,45,1,
73,47,1,69,44,0,
71,47,1,69,45,0,
71,46,1,69,45,0,
71,46,0,68,44,1,
71,46,1,68,44,1,
71,46,1,67,43,0,
71,46,1,67,44,1,
71,45,1,67,43,1,
71,46,1,67,44,0,
70,45,1,67,44,1,
70,45,1,66,44,1,
70,45,1,66,43,1,
69,44,0,65,43,1,
69,44,1,65,43,1,
68,44,1,65,43,1,
68,44,1,65,42,1,
68,44,1,64,43,1,
67,44,0,63,42,1,
67,43,1,63,42,0,
67,43,1,63,41,1,
71,74,1,63,41,1,
71,75,1,63,41,1,
71,74,1,63,41,1,
71,74,1,63,41,1,
71,73,1,62,41,1,
71,73,1,62,40,0,
70,73,0,62,39,1,
70,71,1,61,40,1,
70,71,0,62,39,0,
69,71,0,60,39,1,
68,71,1,61,39,1,
69,71,1,60,39,1,
68,70,1,61,39,1,
68,70,0,60,39,1,
68,87,1,60,39,1,
78,139,1,60,39,1,
77,137,1,60,39,0,
77,137,1,59,39,1,
77,135,1,59,38,1,
76,135,1,58,38,0,
75,135,0,58,38,1,
75,134,1,57,37,1,
75,133,1,57,38,1,
74,133,1,57,37,0,
74,131,1,57,37,1,
73,131,1,57,37,1,
73,131,1,57,37,1,
89,130,1,56,36,1,
89,129,1,56,36,1,
88,129,1,56,36,0,
88,127,1,56,36,1,
87,127,1,56,36,1,
86,127,1,55,35,1,
86,126,0,55,35,1,
85,125,1,54,35,1,
85,126,1,54,35,1,
85,124,1,54,35,1,
85,124,1,54,35,1,
83,123,0,54,35,1,
83,123,1,54,34,1,
83,122,1,53,49,1,
82,121,1,53,49,1,
82,121,1,53,49,0,
82,120,1,52,49,1,
81,120,1,52,48,1,
81,119,1,51,48,1,
80,119,1,51,47,1,
80,118,1,51,47,1,
79,118,1,51,47,0,
79,117,0,51,47,1,
79,116,1,51,47,1,
79,116,1,50,46,1,
80,115,1,51,46,1,
79,115,1,51,46,1,
79,115,0,50,45,1,
79,114,0,49,45,0,
78,113,0,50,45,1,
78,113,1,49,45,1,
78,113,1,49,44,1,
78,112,0,49,44,1,
77,111,0,48,45,1,
77,111,1,48,44,0,
76,110,1,48,44,0,
76,110,1,48,44,1,
76,110,1,48,43,1,
76,108,1,47,43,0,
75,108,1,47,43,1,
75,108,1,47,43,0,
74,107,1,47,42,0,
74,107,1,47,42,1,
73,106,1,47,42,1,
73,105,1,46,42,1,
73,105,1,46,41,1,
72,105,1,46,41,1,
71,105,1,45,41,1,
71,103,1,92,44,1,
71,103,1,99,45,1,
71,103,1,99,44,1,
71,103,1,98,44,1,
71,102,1,98,44,1,
70,102,1,97,44,1,
70,101,0,97,44,0,
70,101,1,96,44,1,
69,100,0,96,44,1,
69,100,1,96,43,1,
68,99,1,95,43,1,
69,99,0,94,43,1,
67,99,1,94,42,0,
67,99,1,94,63,1,
68,98,1,109,96,1,
71,99,1,127,94,1,
71,99,1,127,94,0,
71,98,1,126,93,1,
71,98,1,126,92,1,
71,98,1,125,92,1,
71,97,0,124,92,1,
70,96,1,124,92,1,
70,96,1,123,91,1,
69,96,1,122,90,1,
69,95,0,122,90,1,
69,95,1,121,89,1,
77,95,1,121,89,0,
77,94,0,120,88,1,
76,93,1,120,88,1,
76,93,1,119,88,1,
76,93,0,118,87,1,
75,92,1,118,87,1,
75,92,1,117,86,0,
74,92,1,117,86,0,
74,91,0,116,85,1,
74,91,1,115,85,1,
73,91,1,115,84,1,
73,90,1,115,84,1,
72,135,1,114,83,0,
71,135,1,114,83,1,
71,134,1,113,83,1,
71,133,1,112,83,1,
71,133,1,112,82,1,
71,131,1,112,82,1,
71,131,1,111,81,1,
70,131,1,110,80,0,
69,130,1,110,80,0,
70,129,0,110,79,1,
69,129,1,109,79,1,
68,127,1,109,79,1,
123,127,0,108,79,1,
122,126,1,107,78,1,
121,125,1,107,78,1,
121,125,1,107,78,1,
120,124,1,106,77,0,
120,124,1,105,77,1,
119,123,0,105,77,1,
118,123,0,103,76,1,
118,121,1,103,76,1,
116,121,0,103,76,1,
115,120,0,103,76,1,
115,120,1,103,88,1,
115,120,1,101,88,1,
114,119,1,101,88,1,
113,118,1,101,87,0,
112,117,0,100,86,1,
112,117,1,99,86,0,
112,116,1,99,86,1,
111,115,1,99,85,1,
111,115,1,99,84,1,
110,115,1,98,84,1,
109,114,1,97,83,1,
109,114,1,97,83,0,
109,113,1,96,83,0,
108,113,1,96,82,0,
107,112,1,96,82,1,
107,111,0,95,82,0,
106,110,1,96,81,1,
106,110,0,94,80,1,
105,109,0,94,79,1,
105,109,1,94,79,1,
103,109,1,93,79,1,
103,109,1,93,79,1,
103,108,1,93,78,1,
103,107,1,92,78,1,
102,107,1,92,78,1,
102,106,1,91,78,1,
102,106,1,91,77,1,
101,105,0,91,77,1,
101,103,1,90,76,1,
100,103,0,89,76,2,
99,103,1,89,75,0,
99,103,1,88,76,1,
99,103,1,88,75,1,
98,102,1,88,75,1,
98,101,1,88,74,1,
97,101,0,87,74,1,
97,101,1,87,74,0,
97,101,1,87,73,1,
96,100,0,87,73,0,
96,99,1,86,71,1,
95,99,1,86,71,1,
95,99,1,85,71,1,
94,98,0,84,71,1,
94,98,1,84,71,1,
94,98,1,84,71,1,
93,98,1,83,71,1,
92,97,1,83,71,0,
92,96,1,83,70,1,
159,96,1,83,70,1,
159,95,0,82,70,1,
158,95,1,82,69,0,
157,94,0,82,68,1,
156,94,0,81,68,1,
155,94,1,81,68,0,
155,94,1,81,68,0,
153,93,0,79,67,1,
153,92,1,80,67,1,
152,92,1,79,67,1,
151,92,1,79,67,1,
151,91,1,79,67,1,
151,91,1,79,66,1,
150,91,0,117,69,1,
149,90,0,115,68,1,
147,90,1,115,68,1,
147,89,1,115,67,1,
146,88,1,114,67,1,
145,89,1,113,67,1,
144,88,1,113,66,1,
144,88,1,112,67,1,
143,87,1,112,66,0,
142,87,0,111,66,1,
142,86,0,110,66,1,
142,86,0,110,65,1,
141,86,1,109,65,1,
140,85,1,109,64,0,
139,84,1,109,64,0,
138,84,1,108,63,1,
138,83,1,107,63,1,
137,83,1,107,63,1,
137,83,0,106,62,0,
135,82,1,105,63,1,
135,82,1,105,62,1,
135,82,1,105,62,0,
134,81,1,103,62,0,
133,81,1,103,61,1,
133,81,1,103,61,1,
133,81,1,103,61,1,
131,79,0,103,61,1,
131,79,0,102,60,1,
131,79,1,101,60,1,
130,79,1,101,60,1,
129,78,0,100,59,1,
129,78,1,100,59,1,
127,78,1,99,59,1,
127,78,1,99,58,0,
127,77,1,99,58,1,
126,77,1,99,58,1,
126,77,1,97,57,0,
125,76,1,97,57,0,
125,76,1,97,57,1,
124,76,1,96,57,1,
124,76,1,96,56,1,
123,75,1,96,57,1,
122,75,1,95,56,1,
122,75,1,95,56,1,
121,74,1,94,56,1,
121,73,1,94,56,1,
121,73,1,94,56,1,
120,73,1,93,55,0,
120,73,1,93,55,1,
119,71,0,92,54,1,
119,71,1,92,54,1,
118,71,1,92,54,0,
118,71,1,91,54,1,
117,71,1,91,54,1,
116,71,1,90,53,0,
115,71,1,89,53,1,
115,70,0,89,53,1,
115,70,1,89,52,1,
114,69,1,89,52,1,
113,69,1,88,92,1,
135,70,1,93,107,1,
147,69,0,93,105,1,
146,68,0,93,105,1,
146,68,1,92,103,1,
145,67,1,92,103,1,
144,67,1,91,103,1,
143,67,0,91,102,1,
142,67,1,90,102,1,
142,66,1,90,101,1,
141,66,1,89,101,1,
140,66,1,89,100,0,
140,66,1,97,99,1,
139,65,0,96,99,1,
139,65,1,96,99,1,
137,65,1,96,98,1,
137,65,1,95,97,0,
137,64,1,94,97,0,
135,63,1,94,97,1,
135,63,1,93,97,1,
134,63,1,93,96,1,
134,63,0,92,96,1,
134,63,1,92,95,1,
133,62,1,92,94,0,
135,66,1,92,94,1,
135,66,0,100,94,1,
135,66,1,140,119,1,
134,65,1,137,118,1,
133,65,1,137,117,0,
133,64,1,135,116,1,
132,63,1,135,115,1,
131,63,1,135,115,1,
131,63,1,134,114,1,
130,63,0,132,113,1,
129,63,1,132,113,1,
129,62,1,131,112,1,
127,62,1,131,112,1,
130,90,1,130,111,1,
131,107,1,130,110,1,
130,107,1,129,110,1,
130,105,1,128,109,1,
129,104,0,127,109,0,
127,103,1,127,108,1,
127,103,1,126,108,1,
127,103,1,126,107,1,
126,102,1,125,106,1,
125,102,1,124,105,1,
125,122,1,143,109,1,
124,127,1,142,108,1,
123,127,1,141,107,1,
123,126,1,141,107,0,
122,125,0,140,106,1,
121,124,1,139,105,0,
121,124,1,138,105,1,
120,123,1,137,103,1,
120,123,1,137,103,1,
119,121,1,135,103,1,
118,121,1,135,102,0,
120,120,1,134,102,0,
118,120,1,134,102,1,
117,119,1,133,101,1,
117,119,1,132,101,1,
117,118,1,131,99,1,
115,117,1,131,99,1,
115,116,1,130,99,1,
115,115,1,129,99,1,
115,115,1,129,98,1,
114,114,1,129,97,1,
113,114,1,127,97,0,
140,113,0,127,96,0,
139,113,1,127,96,1,
138,112,1,126,96,1,
137,112,1,125,95,0,
137,111,0,124,95,1,
135,110,1,124,94,0,
135,110,0,123,93,0,
135,109,1,123,93,1,
134,109,0,121,92,1,
133,109,1,121,92,0,
132,108,1,121,92,0,
131,107,1,120,91,0,
131,107,1,120,91,0,
130,106,0,119,91,1,
130,105,1,119,90,1,
129,105,0,118,89,1,
128,103,1,118,89,1,
127,103,1,116,88,1,
127,103,1,117,88,1,
126,103,1,115,88,1,
126,102,0,115,88,1,
125,102,1,114,87,1,
124,101,1,115,87,1,
131,101,1,114,86,1,
131,100,1,113,86,1,
130,100,1,113,85,1,
129,99,1,112,84,1,
129,99,1,112,85,1,
127,99,1,112,84,1,
127,98,1,111,83,1,
127,97,1,110,83,1,
126,97,1,110,83,1,
126,96,1,109,83,1,
125,96,1,108,82,0,
124,96,0,108,82,1,
124,95,1,108,81,1,
123,95,1,108,81,1,
122,94,1,107,81,1,
122,94,0,106,79,1,
121,93,1,105,79,1,
121,93,1,105,79,1,
120,92,1,105,79,1,
120,92,1,103,79,1,
119,92,1,103,78,1,
119,91,0,103,78,1,
118,91,1,103,77,1,
143,93,1,103,78,1,
158,139,0,102,77,1,
156,138,1,101,76,1,
156,137,1,101,77,1,
155,135,1,101,76,1,
153,135,1,99,75,1,
153,134,1,100,75,1,
152,134,0,99,75,1,
152,133,1,99,75,1,
150,132,1,98,73,1,
150,131,0,97,74,1,
156,131,1,98,73,1,
156,131,1,97,73,1,
155,131,1,97,72,1,
154,130,1,96,71,1,
153,129,1,96,71,1,
153,127,1,95,71,1,
152,127,1,94,71,1,
151,127,1,94,71,1,
150,126,0,94,71,1,
149,126,1,94,70,1,
149,125,1,93,70,0,
149,125,1,93,70,1,
188,124,1,92,69,1,
187,124,1,92,69,1,
186,123,1,92,69,1,
185,122,1,91,73,1,
184,121,0,90,73,1,
183,120,1,90,73,0,
182,120,1,90,71,1,
181,120,0,89,71,1,
179,119,1,89,71,0,
179,118,0,88,71,1,
178,118,1,88,70,1,
177,117,1,88,70,0,
176,116,0,88,70,1,
176,115,1,87,70,1,
175,115,1,87,69,1,
174,115,1,87,69,1,
173,114,0,86,68,1,
172,114,1,85,68,1,
171,113,1,86,68,0,
170,113,1,85,67,1,
169,113,0,85,67,0,
169,112,1,84,67,1,
167,111,1,83,67,1,
167,111,1,83,66,1,
167,110,1,83,107,1,
166,109,1,83,119,1,
165,109,1,82,118,1,
163,109,1,82,117,1,
163,108,0,82,116,1,
162,108,1,81,115,1,
161,107,1,81,115,1,
161,106,1,80,114,1,
159,106,0,79,113,1,
159,105,1,79,113,0,
158,105,1,79,112,1,
157,105,0,79,112,0,
157,103,1,79,111,0,
156,103,1,78,110,0,
155,103,1,78,110,0,
154,102,1,77,109,1,
153,102,1,77,109,1,
153,101,1,76,108,1,
152,101,1,76,107,1,
152,100,0,76,107,0,
151,99,1,76,106,1,
150,99,1,75,105,0,
149,99,1,75,105,1,
149,98,1,75,105,0,
147,98,0,74,103,0,
147,97,1,74,103,0,
146,97,1,74,103,1,
145,97,1,73,103,0,
145,96,0,73,102,1,
144,96,0,73,102,1,
143,95,1,71,101,1,
143,95,1,71,101,1,
143,94,1,71,100,1,
142,94,1,71,100,1,
141,93,1,71,99,0,
142,93,1,71,99,0,
142,93,1,71,98,1,
141,92,1,71,98,1,
140,92,1,70,97,1,
140,91,1,69,97,1,
139,91,0,69,96,1,
138,91,1,69,96,1,
138,90,1,69,96,1,
137,90,1,69,96,1,
136,89,1,68,95,1,
135,89,1,68,95,0,
135,89,1,67,94,0,
164,88,1,67,93,0,
163,88,1,67,93,0,
162,88,0,67,93,1,
161,87,1,67,92,1,
161,88,1,67,92,1,
159,87,1,66,92,1,
159,87,1,65,91,0,
159,86,1,65,91,0,
157,85,1,65,90,1,
157,85,1,65,90,0,
156,85,1,65,90,1,
156,84,1,65,89,0,
155,84,1,63,89,1,
154,83,1,63,88,1,
153,83,0,63,88,0,
152,83,0,63,88,1,
152,83,1,63,87,0,
152,82,1,63,87,1,
151,82,0,63,87,1,
150,81,0,62,86,1,
149,81,1,62,86,1,
148,80,0,62,86,0,
147,80,0,61,85,1,
147,80,1,61,84,1,
147,79,1,62,84,1,
146,79,0,94,83,0,
145,79,0,95,83,1,
144,78,1,95,83,1,
143,78,1,93,82,0,
143,78,1,93,82,1,
142,77,1,93,82,1,
142,77,1,92,82,1,
141,77,1,91,81,1,
140,76,1,91,81,1,
140,77,1,91,80,1,
140,76,1,90,80,1,
139,76,1,90,79,1,
139,75,1,90,79,1,
140,75,1,89,79,1,
139,75,1,89,78,1,
139,74,1,88,79,1,
137,74,0,88,78,1,
137,74,1,88,77,1,
135,73,1,88,77,1,
135,73,1,87,77,1,
135,71,1,86,76,1,
134,71,0,86,80,1,
135,71,0,85,129,1,
133,71,1,85,144,1,
133,71,1,85,143,1,
133,71,1,84,142,0,
132,71,1,84,141,0,
131,71,1,83,141,1,
131,70,1,83,140,1,
131,70,1,83,140,1,
130,69,1,82,139,1,
129,69,1,82,138,0,
128,69,1,81,137,1,
128,69,1,81,135,1,
127,68,0,81,135,1,
147,67,1,80,135,1,
147,67,1,80,135,1,
146,67,1,79,134,0,
145,67,1,79,133,1,
145,67,0,79,132,1,
143,66,1,79,132,1,
143,67,1,78,131,1,
142,66,1,77,130,1,
141,66,1,77,130,1,
141,65,0,77,129,1,
140,65,1,77,129,1,
139,65,1,76,127,0,
138,64,1,76,127,1,
138,63,1,76,127,1,
137,63,1,75,126,1,
135,63,1,75,125,1,
135,63,1,74,125,1,
135,63,0,74,124,1,
134,63,1,74,124,1,
134,63,1,73,123,1,
133,62,1,73,122,0,
133,62,1,73,122,0,
132,61,1,73,121,1,
131,61,1,71,121,0,
131,61,0,71,120,1,
131,60,0,73,120,1,
130,60,0,73,120,1,
129,60,1,72,118,1,
128,60,0,71,118,1,
127,59,1,71,117,1,
127,59,1,71,117,1,
126,59,1,71,116,0,
126,59,0,71,115,1,
125,59,0,71,115,1,
125,58,1,70,115,1,
124,57,0,76,115,1,
124,58,1,89,120,1,
123,57,1,89,119,1,
122,57,0,88,119,1,
121,57,1,88,117,0,
122,56,1,88,117,1,
121,56,0,87,116,1,
120,56,1,86,116,1,
120,56,1,86,115,0,
119,56,1,86,115,0,
119,55,0,85,115,1,
118,55,1,85,114,1,
118,55,0,84,113,1,
117,55,0,84,113,1,
116,55,0,83,112,1,
116,54,1,83,112,1,
115,54,1,83,111,1,
115,54,1,82,110,1,
115,54,1,82,110,1,
114,53,1,81,110,1,
114,53,1,81,109,1,
113,53,1,81,108,0,
113,52,1,80,108,1,
112,51,0,79,107,1,
111,52,1,79,107,1,
111,51,1,79,106,1,
111,51,0,78,106,1,
110,51,1,78,105,1,
110,51,1,78,105,1,
110,50,1,77,105,1,
109,50,0,77,103,1,
108,50,1,77,103,0,
108,49,1,76,103,1,
107,49,1,76,103,1,
107,76,1,76,102,0,
125,76,0,75,102,1,
124,75,1,75,102,1,
124,75,1,75,100,1,
122,74,1,74,101,1,
121,73,1,74,100,1,
121,73,0,73,99,1,
121,73,1,73,98,1,
120,72,0,73,99,1,
120,72,1,71,98,1,
119,71,1,71,98,0,
118,71,1,71,97,1,
118,71,0,71,97,1,
117,71,1,71,96,0,
117,70,0,71,96,1,
116,70,0,71,96,1,
115,70,1,71,95,0,
115,70,0,70,95,0,
114,69,0,70,94,1,
114,69,1,69,94,1,
113,69,1,69,93,1,
112,68,1,69,93,0,
113,67,1,69,93,1,
112,67,1,68,93,0,
112,67,1,67,92,0,
111,66,1,67,92,1,
110,66,1,67,91,1,
110,78,1,70,91,0,
109,77,1,77,91,0,
109,77,1,76,90,1,
