
107,34,8,71,36,7,
106,34,7,71,35,7,
106,34,9,71,36,7,
105,34,9,71,35,8,
105,33,8,70,35,7,
103,33,9,70,35,8,
103,33,8,70,35,9,
103,33,8,69,35,8,
103,33,7,69,35,7,
103,33,9,69,35,8,
102,33,9,68,34,9,
102,32,9,68,35,8,
101,32,8,68,34,9,
101,32,9,67,34,7,
100,32,9,67,34,8,
99,32,7,67,33,7,
99,31,8,67,33,9,
99,31,8,67,33,7,
99,31,7,67,33,8,
98,31,8,66,32,8,
98,31,9,66,33,9,
97,31,8,66,33,8,
97,31,9,65,33,8,
99,31,9,65,33,8,
98,31,7,64,33,8,
98,30,8,64,32,7,
98,30,7,63,32,8,
97,30,7,64,32,7,
97,30,7,63,31,9,
96,30,8,63,31,7,
96,30,9,63,31,8,
96,30,7,63,31,9,
95,30,7,63,31,7,
95,29,8,62,47,9,
94,29,7,62,47,8,
94,29,7,62,47,7,
94,29,9,62,46,8,
94,29,7,62,46,7,
94,29,7,61,46,7,
93,29,8,61,45,7,
93,29,8,61,45,7,
93,29,8,60,45,9,
92,29,7,60,45,7,
92,29,8,60,45,7,
91,28,9,60,45,7,
91,28,7,60,44,7,
91,29,8,60,44,8,
90,28,8,60,44,8,
90,28,7,59,43,7,
90,28,8,71,44,9,
90,28,8,71,43,8,
89,28,8,70,43,9,
89,28,9,70,43,7,
89,28,9,69,43,7,
89,28,7,69,43,8,
88,28,9,69,42,7,
88,28,7,68,41,8,
88,28,7,68,42,8,
88,28,7,68,42,8,
87,28,7,67,41,7,
87,27,8,67,41,7,
86,27,8,67,41,7,
86,28,9,67,41,8,
86,27,7,67,41,8,
85,27,8,66,39,7,
85,27,7,66,40,8,
85,27,7,66,41,8,
84,27,8,66,39,7,
83,27,7,65,39,8,
83,28,9,65,39,8,
83,27,7,64,39,7,
82,27,8,64,39,7,
82,27,8,63,39,7,
82,27,7,63,39,8,
82,27,7,63,39,8,
81,26,8,63,39,8,
81,26,7,63,39,7,
80,26,7,63,39,7,
80,26,7,62,38,7,
80,26,7,62,38,7,
79,26,7,62,38,7,
79,26,7,62,38,7,
79,25,7,62,38,7,
79,25,7,61,38,7,
78,25,7,61,37,7,
78,25,7,61,37,8,
78,25,7,60,37,7,
78,25,7,61,38,7,
90,25,8,61,38,8,
101,25,8,60,37,7,
99,24,7,59,37,7,
99,25,8,59,36,7,
98,25,7,59,36,7,
98,24,7,59,36,7,
98,24,8,59,36,7,
97,24,7,58,35,7,
97,24,7,58,35,7,
96,24,7,58,35,7,
96,24,7,57,35,7,
96,24,7,57,5,7,
95,24,7,57,35,7,
95,24,7,57,35,8,
95,24,7,57,35,7,
94,24,7,56,35,7,
94,24,7,56,34,8,
93,24,7,56,34,7,
92,27,7,56,34,7,
92,26,7,56,34,7,
92,26,7,55,34,7,
91,25,7,55,34,7,
91,25,7,55,34,7,
91,25,7,55,33,7,
91,25,7,54,33,7,
90,25,7,54,33,7,
89,25,7,54,33,7,
89,25,7,54,33,8,
89,25,7,54,33,7,
89,25,7,53,33,7,
88,24,7,53,32,7,
88,24,8,53,32,7,
88,25,7,52,32,7,
88,25,7,53,31,7,
87,25,7,53,32,7,
86,25,7,52,31,7,
86,25,7,51,31,7,
86,25,7,51,31,7,
85,25,7,51,31,7,
84,24,7,51,31,7,
85,25,7,51,31,7,
84,25,7,51,31,7,
84,24,7,50,30,7,
83,24,7,51,31,7,
83,24,7,50,31,7,
83,25,7,50,30,7,
83,24,7,50,30,7,
82,24,7,50,30,7,
82,24,7,50,30,7,
81,24,7,49,30,7,
81,24,7,49,30,7,
81,24,7,49,30,7,
81,24,7,49,30,7,
80,24,7,49,29,7,
79,24,8,51,29,7,
79,23,7,51,29,7,
79,24,7,50,29,7,
79,23,7,50,29,7,
79,24,7,50,28,7,
78,24,7,50,29,7,
78,23,7,49,29,7,
78,23,7,49,29,7,
77,23,7,49,29,7,
78,23,7,49,28,7,
77,23,7,49,28,7,
77,23,7,49,28,7,
77,23,7,49,28,7,
77,22,7,49,28,7,
77,22,7,48,28,7,
76,22,7,48,28,7,
76,22,7,48,27,7,
76,22,7,48,28,7,
76,22,7,48,27,7,
76,22,7,48,27,7,
75,21,7,47,27,7,
75,22,7,48,27,7,
74,22,7,47,28,7,
74,22,7,48,28,7,
73,22,7,48,28,7,
103,21,7,48,28,7,
102,21,7,48,27,7,
101,21,7,48,28,7,
101,21,7,47,27,7,
101,21,7,47,28,7,
100,21,7,47,27,7,
99,21,7,46,27,7,
99,21,7,46,26,7,
99,21,7,46,27,7,
99,20,7,46,27,7,
98,20,7,46,26,7,
98,20,7,45,26,7,
97,20,7,45,26,7,
97,20,7,45,26,7,
96,20,7,45,26,7,
96,20,7,45,26,7,
96,20,7,44,26,7,
95,19,7,45,25,7,
94,20,7,44,25,7,
94,19,7,44,25,7,
94,20,7,44,25,7,
93,19,7,44,25,7,
93,19,7,43,25,7,
93,19,7,44,25,7,
92,19,7,44,25,7,
92,19,7,43,25,7,
92,19,7,43,25,7,
92,19,7,49,25,7,
91,19,7,48,25,7,
90,19,7,48,24,7,
90,21,7,48,25,7,
89,21,7,48,24,7,
89,22,7,48,24,7,
88,21,7,48,24,7,
88,21,7,47,24,7,
88,22,7,47,24,7,
88,21,7,47,24,7,
88,21,7,47,23,7,
88,21,7,47,24,7,
87,21,7,46,24,7,
86,21,7,46,24,7,
86,21,7,46,23,7,
86,20,7,46,24,7,
85,21,7,46,24,7,
85,21,7,45,23,7,
84,20,7,46,23,7,
84,20,7,45,23,7,
83,20,7,45,23,7,
83,20,7,45,23,7,
83,20,7,44,23,7,
83,20,7,44,22,7,
82,20,7,44,22,7,
82,20,7,44,22,7,
82,19,7,44,22,7,
81,20,7,44,22,7,
81,19,7,43,22,7,
81,19,7,43,22,7,
80,20,7,43,22,7,
80,19,7,43,22,7,
79,19,7,43,22,7,
79,19,7,43,22,7,
79,19,7,42,22,7,
78,19,7,42,21,7,
79,19,7,42,21,7,
78,19,7,41,21,7,
78,19,7,42,21,7,
78,19,7,41,21,7,
77,18,7,41,21,7,
77,19,7,41,21,7,
77,18,7,41,21,7,
77,26,7,41,21,7,
76,25,7,40,20,7,
76,25,7,39,21,7,
76,25,7,40,21,7,
75,25,7,40,20,7,
75,25,7,39,21,7,
75,25,7,39,21,7,
74,25,7,39,20,7,
76,25,7,40,21,7,
83,25,7,71,21,7,
83,25,7,71,20,7,
82,24,7,71,20,7,
82,25,7,71,19,7,
81,31,7,71,20,7,
81,31,7,70,19,7,
81,31,7,70,20,7,
80,31,7,69,19,7,
79,31,7,69,20,7,
79,31,7,68,19,7,
79,30,7,68,20,7,
79,30,7,68,20,7,
79,30,7,68,24,7,
81,30,7,68,23,7,
80,30,7,67,22,7,
79,30,7,67,23,7,
79,29,7,67,22,7,
79,30,7,67,22,7,
79,29,7,67,22,7,
79,29,7,66,22,7,
78,29,7,66,22,7,
78,29,7,65,22,7,
78,29,7,65,22,7,
78,29,7,65,22,7,
77,29,7,65,22,7,
77,29,7,64,21,7,
77,29,7,64,21,7,
76,28,7,64,22,7,
76,28,7,63,21,7,
75,28,7,63,21,7,
75,29,7,63,21,7,
75,28,7,63,21,7,
75,28,7,63,21,7,
74,28,7,62,20,7,
74,28,7,62,21,7,
74,28,7,62,21,7,
73,28,7,62,20,7,
73,28,7,63,21,7,
73,27,7,73,20,7,
73,28,7,73,20,7,
71,27,7,71,20,7,
71,27,7,71,20,7,
71,27,7,71,20,7,
71,27,7,71,19,7,
71,27,7,71,19,7,
71,27,7,71,19,7,
71,27,7,70,19,7,
70,26,7,70,19,7,
70,26,7,70,19,7,
70,26,7,69,19,7,
69,25,7,69,19,7,
69,26,7,69,19,7,
70,26,7,68,19,7,
69,26,7,68,19,7,
68,25,7,67,19,7,
68,26,7,67,19,7,
67,25,7,67,19,7,
68,25,7,67,19,7,
67,25,7,67,19,7,
67,25,7,66,18,7,
67,25,7,66,19,7,
66,25,7,66,18,7,
67,25,7,66,18,7,
66,24,7,65,18,7,
66,24,7,65,24,7,
65,25,7,66,28,7,
66,24,7,70,27,7,
65,24,7,71,27,7,
65,24,7,70,27,7,
65,24,7,70,27,7,
64,24,7,70,26,7,
63,24,7,69,26,7,
63,24,7,69,26,7,
63,24,7,68,26,7,
63,24,7,68,27,7,
63,23,7,68,25,7,
63,23,7,67,26,7,
63,23,7,67,25,7,
63,24,7,67,27,7,
63,23,7,68,30,7,
63,23,7,67,29,7,
63,23,7,67,29,7,
62,23,7,67,30,7,
62,22,7,66,29,7,
62,22,7,66,29,7,
62,23,7,66,29,7,
62,22,7,66,29,7,
61,22,7,65,28,7,
61,22,7,65,29,7,
61,22,7,65,28,7,
61,22,7,65,28,7,
62,22,7,64,28,7,
63,22,7,64,28,7,
63,22,7,63,28,7,
63,22,7,63,28,7,
63,21,7,63,28,7,
63,21,7,62,28,7,
62,21,7,63,28,7,
62,21,7,63,27,7,
62,21,7,62,28,7,
62,21,7,62,27,7,
61,21,7,62,27,7,
61,21,7,61,27,7,
61,21,7,61,27,7,
60,21,7,61,26,7,
60,20,7,61,27,7,
60,20,7,61,26,7,
60,20,7,60,26,7,
60,20,7,60,26,7,
60,19,7,60,26,7,
59,20,7,59,26,7,
59,19,7,59,26,7,
59,20,7,59,26,7,
59,20,7,59,26,7,
58,19,7,58,26,7,
58,20,7,58,25,7,
58,19,7,58,25,7,
58,19,7,59,25,7,
58,19,7,58,26,7,
58,19,7,58,25,7,
57,19,7,57,25,7,
57,19,7,57,25,7,
57,19,7,56,25,7,
57,19,7,56,25,7,
56,19,7,56,25,7,
56,19,7,56,24,7,
56,19,7,56,24,7,
56,19,7,56,24,7,
56,18,7,56,24,7,
56,19,7,55,25,7,
61,19,7,56,24,7,
78,18,7,55,24,7,
77,18,7,54,24,7,
76,18,7,54,24,7,
76,18,7,54,24,7,
76,19,7,54,24,7,
76,18,7,53,24,7,
75,18,7,54,24,7,
75,18,7,53,24,7,
75,18,7,53,24,7,
74,18,7,53,24,7,
74,18,7,53,24,7,
73,18,7,54,24,7,
73,18,7,56,24,7,
73,18,7,56,24,7,
71,17,7,55,24,7,
72,25,7,55,24,7,
71,25,7,54,24,7,
71,25,7,54,24,7,
71,25,7,55,24,7,
71,24,7,54,24,7,
71,24,7,54,24,7,
71,24,7,53,24,7,
70,24,7,53,23,7,
69,24,7,53,23,7,
69,24,7,53,23,7,
70,24,7,53,23,7,
80,24,7,53,23,7,
79,24,7,52,23,7,
79,23,7,52,23,7,
79,24,7,51,22,7,
79,24,7,52,27,7,
78,24,7,51,29,7,
78,24,7,51,29,7,
78,23,7,51,29,7,
78,23,7,51,28,7,
77,23,7,50,29,7,
77,23,7,50,28,7,
77,24,7,50,29,7,
126,23,7,50,28,7,
127,23,7,49,28,7,
127,23,7,49,28,7,
126,23,7,50,27,7,
125,24,7,49,28,7,
125,23,7,49,28,7,
124,23,7,49,29,7,
123,22,7,49,28,7,
123,23,7,48,28,7,
122,22,7,48,28,7,
121,35,7,48,28,7,
121,36,7,47,28,7,
120,36,7,48,28,7,
120,36,7,48,27,7,
120,35,7,47,27,7,
119,35,7,47,28,7,
119,35,7,47,27,7,
118,35,7,46,27,7,
117,35,7,46,27,7,
116,35,7,46,27,7,
116,40,7,46,27,7,
115,39,7,45,27,7,
115,39,7,45,26,7,
115,39,7,45,26,7,
114,39,7,45,26,7,
113,39,7,45,26,7,
113,39,7,45,26,7,
113,39,7,45,26,7,
112,39,7,44,25,7,
112,38,7,44,25,7,
111,38,7,44,26,7,
111,38,7,44,25,7,
110,38,7,44,25,7,
110,38,7,43,25,7,
109,38,7,43,25,7,
108,37,7,43,25,7,
108,37,7,43,25,7,
107,37,7,43,25,7,
108,37,7,43,25,7,
107,37,7,42,28,7,
107,36,7,42,27,7,
106,36,7,42,27,7,
105,36,7,42,27,7,
105,36,7,41,27,7,
105,35,7,41,27,7,
103,35,7,41,27,7,
103,36,7,41,27,7,
103,35,7,41,26,7,
103,35,7,41,27,7,
102,45,7,41,27,7,
102,51,7,40,26,7,
101,51,7,40,26,7,
102,51,7,39,26,7,
101,51,7,39,26,7,
101,50,7,39,26,7,
100,50,7,39,27,7,
99,50,7,39,25,7,
99,50,7,39,26,7,
99,49,7,39,26,7,
98,49,7,39,25,7,
98,49,7,39,25,7,
97,48,7,39,25,7,
97,49,7,39,26,7,
97,49,7,39,25,7,
96,49,7,39,25,7,
96,48,7,39,25,7,
96,48,7,39,25,7,
95,48,7,38,25,7,
95,48,7,39,25,7,
94,48,7,38,5,7,
94,48,7,38,25,7,
94,47,7,38,25,7,
93,47,7,38,25,7,
93,46,7,38,25,7,
93,46,7,37,25,7,
98,46,7,38,24,7,
103,46,7,37,24,7,
103,46,7,37,24,7,
103,46,7,37,24,7,
103,45,7,37,24,7,
102,45,7,37,24,7,
102,45,7,37,24,7,
101,45,7,37,24,7,
101,45,7,36,24,7,
100,45,7,36,24,7,
99,61,7,35,23,7,
99,62,7,35,24,7,
99,61,7,35,24,7,
99,61,7,35,23,7,
98,60,7,35,23,7,
98,60,7,35,23,7,
97,60,7,35,23,7,
97,59,7,35,22,7,
97,59,7,35,22,7,
96,59,7,35,23,7,
96,60,7,35,22,7,
95,59,7,34,22,7,
95,59,7,34,22,7,
94,59,7,34,22,7,
94,59,7,34,22,7,
94,58,7,34,22,7,
93,58,7,34,22,7,
93,58,7,33,22,7,
92,57,7,33,21,7,
92,57,7,33,21,7,
92,57,7,33,21,7,
92,57,7,33,21,7,
91,56,7,33,21,7,
91,56,7,33,21,7,
90,56,7,32,21,7,
89,56,7,33,20,7,
89,56,7,33,21,7,
89,56,7,32,20,7,
88,55,7,32,21,7,
88,55,7,32,21,7,
88,55,7,31,21,7,
88,54,7,31,20,7,
87,54,7,31,20,7,
88,54,7,31,21,7,
87,53,7,31,20,7,
86,53,7,31,20,7,
86,53,7,31,19,7,
86,53,7,31,20,7,
85,53,7,31,20,7,
85,53,7,31,19,7,
84,52,7,31,20,7,
84,52,7,37,19,7,
84,51,7,37,20,7,
83,51,7,37,19,7,
83,51,7,37,19,7,
83,51,7,37,19,7,
83,69,7,36,19,7,
82,91,7,36,19,7,
82,130,7,36,19,7,
81,129,7,36,19,7,
81,127,7,36,19,7,
81,127,7,36,19,7,
80,126,7,35,19,7,
80,126,7,51,19,7,
79,125,7,50,19,7,
79,124,7,50,18,7,
79,124,7,50,19,7,
79,123,7,49,19,7,
79,123,7,49,19,7,
78,122,7,49,19,7,
78,121,7,49,19,7,
78,121,7,48,19,7,
77,120,7,49,18,7,
77,120,7,48,18,7,
77,120,7,48,18,7,
76,119,7,48,18,7,
76,118,7,48,18,7,
83,117,7,48,18,7,
98,117,7,47,17,7,
97,116,7,47,18,7,
97,115,7,47,18,7,
96,115,7,46,18,7,
96,114,7,47,18,7,
96,114,7,46,18,7,
96,114,7,46,18,7,
94,113,7,48,18,7,
94,113,7,48,17,7,
94,112,7,48,18,7,
93,112,7,48,18,7,
93,112,7,47,18,7,
92,111,7,48,18,7,
105,110,7,47,18,7,
105,110,7,47,18,7,
103,109,7,46,18,7,
103,109,7,47,18,7,
103,108,7,46,17,7,
103,108,7,46,17,7,
102,108,7,46,17,7,
101,108,7,45,17,7,
101,107,7,45,17,7,
100,107,7,45,17,7,
100,106,7,45,17,7,
111,106,7,45,17,7,
110,105,7,44,17,7,
110,105,7,44,16,7,
109,103,7,44,17,7,
109,103,7,44,17,7,
108,103,7,44,16,7,
108,103,7,43,16,7,
07,102,7,43,16,7,
107,102,7,44,16,7,
106,101,7,43,16,7,
105,101,7,83,16,7,
105,101,7,155,16,7,
103,100,7,152,16,7,
103,99,7,152,15,7,
103,99,7,150,16,7,
103,99,7,149,15,7,
102,98,7,148,15,7,
102,98,7,147,15,7,
101,97,7,147,15,7,
101,97,7,146,15,7,
100,96,7,145,15,7,
99,96,7,145,15,7,
99,96,7,143,15,7,
99,96,7,143,15,7,
99,95,7,143,15,7,
99,94,7,142,15,7,
98,94,7,142,15,7,
97,93,7,141,15,7,
97,93,7,140,16,7,
97,93,7,140,15,7,
96,92,7,139,15,7,
96,92,7,138,15,7,
96,92,7,138,15,7,
95,91,7,137,15,7,
95,91,7,135,14,7,
94,91,7,135,15,7,
94,90,7,135,15,7,
93,90,7,135,15,7,
93,89,7,134,14,7,
93,89,7,133,14,7,
92,89,7,133,15,7,
92,88,7,132,15,7,
91,88,7,132,14,7,
91,88,7,131,14,7,
90,88,7,131,14,7,
90,87,7,130,14,7,
90,87,7,130,14,7,
89,86,7,129,14,7,
89,86,7,129,14,7,
93,85,7,128,14,7,
92,85,7,127,14,7,
91,85,7,127,14,7,
91,84,7,126,14,7,
91,84,7,126,14,7,
90,83,7,125,14,7,
90,83,7,125,14,7,
89,83,7,125,14,7,
89,83,7,124,14,7,
88,82,7,123,13,7,
88,82,7,123,14,7,
88,81,7,122,13,7,
88,81,7,122,14,7,
88,81,7,121,23,7,
87,80,7,121,24,7,
87,79,7,120,24,7,
86,79,7,120,23,7,
86,79,7,120,23,7,
85,79,7,119,23,7,
85,79,7,118,23,7,
85,78,7,118,23,7,
84,78,7,117,22,7,
83,77,7,117,22,7,
83,78,7,117,22,7,
83,77,7,115,22,7,
83,77,7,116,22,7,
83,77,7,115,22,7,
83,76,7,114,21,7,
82,76,7,114,22,7,
82,76,7,114,21,7,
82,75,7,113,22,7,
81,75,7,113,21,7,
81,75,7,112,21,7,
80,74,7,112,21,7,
80,74,7,112,21,7,
79,74,7,111,21,7,
79,73,7,111,21,7,
79,73,7,110,21,7,
79,73,7,110,21,7,
79,73,7,109,20,7,
79,71,7,109,20,7,
78,71,7,108,21,7,
78,71,7,108,20,7,
78,71,7,108,19,7,
77,71,7,107,20,7,
77,71,7,107,20,7,
76,73,7,107,19,7,
76,76,7,105,19,7,
76,75,7,105,19,7,
75,75,7,105,19,7,
75,75,7,104,19,7,
75,74,7,103,20,7,
75,74,7,103,19,7,
74,73,7,103,19,7,
74,73,7,103,19,7,
73,73,7,102,19,7,
73,72,7,102,19,7,
73,71,7,102,19,7,
72,71,7,101,19,7,
71,71,7,100,19,7,
71,71,7,100,19,7,
88,71,7,100,18,7,
91,71,7,100,18,7,
89,70,7,99,18,7,
89,70,7,99,18,7,
89,70,7,98,18,7,
88,69,7,98,18,7,
88,69,7,97,18,7,
88,68,7,97,18,7,
88,68,7,97,18,7,
87,68,7,97,18,7,
86,68,7,96,18,7,
86,67,7,96,17,7,
86,67,7,96,17,7,
86,67,7,95,17,7,
85,67,7,95,18,7,
85,67,7,94,19,7,
84,66,7,94,19,7,
84,66,7,94,19,7,
83,66,7,93,19,7,
83,66,7,93,19,7,
83,65,7,93,19,7,
83,65,7,92,19,7,
82,65,7,92,19,7,
82,65,7,92,19,7,
81,64,7,92,19,7,
81,64,7,92,19,7,
88,63,7,91,19,7,
87,63,7,91,18,7,
86,63,7,90,18,7,
86,71,7,89,22,7,
86,70,7,89,22,7,
85,70,7,89,22,7,
85,70,7,88,22,7,
84,70,7,88,21,7,
84,70,7,88,22,7,
83,69,7,88,22,7,
83,68,7,88,22,7,
83,68,7,88,21,7,
83,68,7,88,21,7,
82,67,7,87,21,7,
82,67,7,86,21,7,
82,67,7,86,21,7,
81,67,7,86,21,7,
81,67,7,85,21,7,
80,66,7,85,21,7,
80,66,7,84,21,7,
79,65,7,84,21,7,
79,65,7,84,21,7,
79,65,7,83,20,7,
79,65,7,83,20,7,
78,64,7,83,19,7,
78,64,7,83,20,7,
78,63,7,83,20,7,
78,63,7,82,20,7,
78,63,7,82,20,7,
77,63,7,81,19,7,
77,62,7,81,19,7,
77,63,7,81,20,7,
76,63,7,81,19,7,
76,63,7,80,19,7,
75,63,7,80,19,7,
75,63,7,79,19,7,
75,62,7,79,19,7,
75,62,7,79,19,7,
74,62,7,79,19,7,
74,62,7,79,19,7,
74,62,7,78,19,7,
73,79,7,78,19,7,
73,83,7,77,19,7,
73,82,7,78,18,7,
71,92,7,77,18,7,
71,91,7,77,18,7,
71,91,7,77,18,7,
71,90,7,76,18,7,
71,90,7,76,19,7,
71,89,7,75,18,7,
71,89,7,76,18,7,
71,88,7,75,18,7,
86,88,7,76,18,7,
87,88,7,75,18,7,
86,87,7,75,17,7,
86,87,7,74,18,7,
86,99,7,74,17,7,
85,99,7,73,17,7,
85,99,7,73,17,7,
84,98,7,73,17,7,
83,97,7,71,17,7,
83,97,7,73,17,7,
83,97,7,71,17,7,
83,96,7,71,17,7,
82,96,7,71,18,7,
92,96,7,76,17,7,
95,95,7,79,17,7,
94,95,7,79,17,7,
94,94,7,78,17,7,
93,94,7,78,16,7,
93,93,7,78,17,7,
92,93,7,77,16,7,
91,92,7,77,16,7,
91,92,7,76,16,7,
91,92,7,76,16,7,
90,91,7,76,16,7,
90,91,7,76,16,7,
89,90,7,75,15,7,
89,90,7,75,16,7,
89,90,7,75,57,7,
89,89,7,75,56,7,
88,89,7,74,56,7,
88,89,7,73,55,7,
88,88,7,73,55,7,
88,88,7,73,54,7,
86,88,7,73,54,7,
87,88,7,73,54,7,
86,87,7,73,54,7,
85,86,7,71,53,7,
85,86,7,71,53,7,
85,86,7,71,53,7,
96,86,7,71,53,7,
137,85,7,71,52,7,
135,85,7,71,52,7,
135,84,7,71,52,7,
134,83,7,70,51,7,
133,83,7,70,51,7,
133,83,7,70,52,7,
131,82,7,70,51,7,
131,82,7,69,51,7,
131,82,7,69,50,7,
130,82,7,69,50,7,
130,81,7,68,50,7,
129,81,7,68,49,7,
128,80,7,67,50,7,
130,79,7,68,49,7,
131,79,7,67,49,7,
131,79,7,67,48,7,
130,79,7,67,48,7,
129,79,7,67,48,7,
128,79,7,66,48,7,
127,78,7,66,48,7,
127,78,7,65,48,7,
127,78,7,65,48,7,
126,77,7,65,48,7,
125,77,7,65,48,7,
125,77,7,65,47,7,
124,76,7,64,47,7,
124,76,7,64,46,7,
124,76,7,64,46,7,
123,75,7,63,46,7,
122,75,7,63,46,7,
121,75,7,63,45,7,
122,75,8,63,78,7,
121,74,7,63,76,7,
120,74,7,62,76,7,
120,73,7,62,75,7,
119,73,7,62,75,7,
119,73,7,62,75,7,
118,73,7,62,74,7,
118,71,7,61,74,7,
117,71,7,61,73,7,
117,71,7,61,73,7,
116,71,7,60,72,7,
115,71,7,61,72,7,
115,71,7,60,71,7,
115,71,7,60,71,7,
114,70,7,60,71,7,
114,70,7,60,71,7,
113,70,7,59,71,7,
112,69,7,59,70,7,
112,69,7,59,70,7,
112,69,7,59,70,7,
111,68,7,59,69,7,
111,67,7,58,69,7,
111,67,7,58,68,7,
110,67,7,58,69,7,
110,67,7,58,68,7,
109,67,7,58,68,7,
108,66,7,57,67,7,
108,66,7,57,67,7,
107,66,7,56,67,7,
107,66,7,57,67,7,
107,65,7,56,66,7,
107,65,7,56,66,7,
115,65,7,56,66,7,
115,65,7,56,65,7,
114,64,7,55,65,7,
114,64,7,55,65,7,
113,63,7,55,65,7,
113,63,7,54,63,7,
112,63,7,55,63,7,
112,63,7,54,63,7,
111,62,7,54,63,7,
111,62,7,54,63,7,
110,62,7,54,63,7,
110,62,7,54,62,7,
109,63,7,53,62,7,
109,63,7,53,61,7,
108,62,7,53,62,7,
108,62,7,53,62,7,
107,62,7,53,61,7,
107,61,7,52,61,7,
107,67,7,52,61,7,
106,67,7,51,60,7,
105,67,7,51,60,7,
105,66,7,51,60,7,
105,66,7,51,60,7,
109,66,7,51,61,7,
108,66,7,51,60,7,
108,65,7,51,60,7,
107,65,7,51,59,7,
107,64,7,50,60,7,
106,64,7,50,59,7,
105,64,7,50,59,7,
105,63,7,50,59,7,
105,63,7,49,59,7,
103,63,7,49,58,7,
103,63,7,49,57,7,
103,62,7,49,58,7,
103,62,7,49,57,7,
103,62,7,49,57,7,
102,62,7,48,57,7,
101,61,7,48,57,7,
101,61,7,48,56,7,
100,61,7,48,56,7,
101,61,7,47,56,7,
100,60,7,48,56,7,
99,60,7,47,55,7,
99,60,7,47,55,7,
98,60,7,48,55,7,
98,60,7,47,55,7,
98,60,7,47,55,7,
97,59,7,47,55,7,
99,59,7,46,54,7,
98,59,7,46,55,7,
97,58,7,46,53,7,
97,58,7,46,53,7,
97,57,7,46,53,7,
96,57,7,45,53,7,
96,57,7,45,52,7,
96,57,7,45,52,7,
95,57,7,45,52,7,
94,56,7,44,52,7,
94,57,7,45,51,7,
94,56,7,45,51,7,
93,56,7,44,51,7,
93,56,7,44,51,7,
93,56,7,44,51,7,
92,55,7,44,51,7,
92,56,7,44,51,7,
92,55,7,44,50,7,
91,55,7,44,50,7,
91,55,7,43,50,7,
90,54,7,43,50,7,
91,54,7,43,49,7,
89,54,7,43,49,7,
89,54,7,43,49,7,
89,53,7,42,49,7,
137,54,7,43,48,7,
139,53,7,42,48,7,
137,53,7,42,48,7,
137,53,7,42,48,7,
135,52,7,42,48,7,
135,52,7,42,48,7,
135,52,7,41,47,7,
135,51,7,41,47,7,
134,51,7,41,47,7,
133,51,7,41,47,7,
132,51,7,41,47,7,
132,51,7,39,47,7,
131,51,7,39,46,7,
131,50,7,39,46,7,
130,51,7,41,46,7,
129,50,7,39,46,7,
129,50,7,39,46,7,
128,50,7,39,46,7,
127,50,7,39,45,7,
127,50,7,39,45,7,
126,49,7,39,45,7,
126,49,7,39,45,7,
125,48,7,39,45,7,
125,49,7,39,44,7,
124,48,7,39,44,7,
124,48,7,39,44,7,
124,48,7,39,44,7,
123,48,7,39,44,7,
122,48,7,38,43,7,
121,48,7,38,44,7,
121,48,7,38,44,7,
120,47,7,38,43,7,
120,47,7,38,43,7,
120,47,7,38,42,7,
120,47,7,38,43,7,
118,46,7,38,42,7,
118,46,7,37,43,7,
117,46,7,37,42,7,
117,46,7,37,41,7,
116,46,7,37,41,7,
116,46,7,37,41,7,
115,45,7,36,41,7,
115,56,7,36,41,7,
114,55,7,36,41,7,
114,55,7,35,41,7,
113,54,7,35,40,7,
113,54,7,35,40,7,
112,54,7,35,40,7,
112,53,7,35,39,7,
112,53,7,35,39,7,
111,53,7,35,39,7,
110,52,7,35,39,7,
110,53,7,35,39,7,
110,52,7,35,39,7,
109,52,7,35,39,7,
109,51,7,35,39,7,
108,51,7,34,38,7,
108,51,7,35,39,7,
107,51,7,34,39,7,
107,51,7,34,38,7,
107,50,7,34,38,7,
106,51,7,58,67,7,
105,50,7,79,67,7,
109,50,7,85,67,7,
108,49,7,83,66,7,
108,50,7,83,65,7,
108,49,7,83,65,7,
107,49,7,82,65,7,
106,49,7,82,65,7,
105,49,7,81,64,7,
106,48,7,81,64,7,
105,48,7,81,63,7,
104,48,7,80,63,7,
103,48,7,80,63,7,
103,48,7,79,63,7,
103,48,7,79,63,7,
103,47,7,79,62,7,
103,47,7,79,62,7,
102,48,7,79,61,7,
102,48,7,78,61,7,
101,48,7,77,61,7,
101,48,7,77,61,7,
100,48,7,77,60,7,
99,48,7,76,60,7,
99,47,7,76,60,7,
99,47,7,76,60,7,
99,47,7,76,60,7,
98,47,7,82,60,7,
98,46,7,81,59,7,
97,46,7,81,59,7,
97,46,7,80,59,7,
97,46,7,79,59,7,
97,45,7,79,58,7,
96,52,7,79,58,7,
96,51,7,79,57,7,
95,51,7,79,57,7,
95,51,7,78,57,7,
95,51,7,78,57,7,
94,50,7,77,56,7,
94,50,7,77,56,7,
93,50,7,77,56,7,
96,50,7,77,56,7,
95,50,7,77,56,7,
95,49,7,76,56,7,
94,71,7,76,56,7,
94,71,7,75,55,7,
93,70,7,76,55,7,
93,70,7,75,54,7,
93,69,7,74,54,7,
92,69,7,74,54,7,
92,68,7,74,54,7,
92,68,7,74,53,7,
91,68,7,73,54,7,
91,67,7,73,53,7,
91,67,7,73,53,7,
91,67,7,71,53,7,
90,67,7,71,52,7,
90,66,7,71,51,7,
89,66,7,71,51,7,
89,66,7,71,51,7,
89,66,7,71,51,7,
88,65,7,71,51,7,
88,65,7,71,51,7,
88,65,7,71,51,7,
88,64,7,70,51,7,
88,64,7,70,51,7,
87,63,7,70,50,7,
87,63,7,69,51,7,
86,63,7,69,52,7,
86,63,7,69,51,7,
86,63,7,68,51,7,
85,62,7,68,51,7,
85,62,7,67,51,7,
84,62,7,67,51,7,
83,62,7,67,51,7,
84,61,7,67,50,7,
83,61,7,67,50,7,
83,61,7,66,50,7,
82,60,7,66,50,7,
82,60,7,66,49,7,
97,60,7,66,50,7,
100,60,7,65,49,7,
99,59,7,65,49,7,
99,59,7,65,49,7,
98,59,7,65,49,7,
98,60,7,73,100,7,
98,58,7,73,109,7,
97,58,7,72,108,7,
97,59,7,71,107,7,
96,57,7,71,106,7,
96,57,7,71,106,7,
96,57,7,71,105,7,
95,57,7,71,105,7,
95,57,7,70,103,7,
94,57,7,70,103,7,
94,56,7,70,103,7,
93,56,7,69,103,7,
93,56,7,69,103,7,
92,56,7,69,101,7,
92,56,7,68,101,7,
92,55,7,68,101,7,
91,55,7,68,100,7,
91,55,7,67,99,7,
91,54,7,67,99,7,
90,54,7,67,99,7,
89,54,7,66,98,7,
89,53,7,66,98,7,
89,53,7,66,98,7,
88,53,7,66,97,7,
88,53,7,66,97,7,
88,53,7,65,97,7,
88,57,7,65,96,7,
88,57,7,65,96,7,
87,57,7,64,95,7,
86,56,7,84,95,7,
86,56,7,83,94,7,
86,56,7,82,94,7,
85,55,7,82,93,7,
85,55,7,82,93,7,
85,55,7,81,93,7,
84,54,7,81,92,7,
84,54,7,81,92,7,
83,54,7,80,92,7,
83,54,7,80,91,7,
83,54,7,79,91,7,
83,53,7,79,91,7,
82,53,7,79,90,7,
82,53,7,79,90,7,
81,53,7,79,89,7,
81,53,7,78,89,7,
81,52,7,78,89,7,
81,51,7,78,88,7,
80,52,7,77,88,7,
81,52,7,77,88,7,
80,51,7,77,88,7,
79,51,7,76,87,7,
79,51,7,76,87,7,
79,51,7,76,86,7,
79,51,7,75,86,7,
79,50,7,75,86,7,
78,50,7,75,85,7,
78,50,7,74,85,7,
78,50,7,74,84,7,
77,50,7,74,84,7,
77,49,7,74,84,7,
82,49,7,73,83,7,
81,49,7,73,83,7,
81,49,7,73,83,7,
80,48,7,71,83,7,
79,48,7,71,82,7,
79,48,7,71,82,7,
79,48,7,71,81,7,
79,48,7,71,81,7,
79,48,7,71,81,7,
78,47,7,71,81,7,
78,47,7,70,80,7,
78,47,7,70,79,7,
77,47,7,70,79,7,
77,47,7,70,79,7,
77,46,7,69,79,7,
77,46,7,69,78,7,
76,46,7,69,78,7,
76,46,7,68,78,7,
76,46,7,68,77,7,
75,46,7,67,78,7,
75,45,7,67,77,7,
75,45,7,67,77,7,
75,45,7,67,76,7,
74,45,7,67,76,7,
74,45,7,66,76,7,
76,44,7,67,76,7,
79,44,7,66,75,7,
79,44,7,65,75,7,
79,44,7,65,75,7,
79,44,7,65,75,7,
78,44,7,64,74,7,
78,43,7,64,74,7,
78,43,7,64,73,7,
78,43,7,65,73,7,
77,43,7,65,73,7,
77,43,7,83,72,7,
77,42,7,83,71,7,
76,43,7,82,71,7,
102,42,7,82,71,7,
103,42,7,81,71,7,
103,41,7,81,71,7,
102,41,7,80,71,7,
102,41,7,80,71,7,
101,41,7,79,70,7,
100,41,7,79,70,7,
99,41,7,79,69,7,
99,41,7,79,70,7,
99,41,7,78,69,7,
98,40,7,78,69,7,
98,60,7,78,69,7,
98,60,7,78,68,7,
97,59,7,77,69,7,
97,59,7,77,68,7,
96,58,7,77,68,7,
96,58,7,76,67,7,
96,58,7,76,67,7,
95,57,7,75,67,7,
95,57,7,76,67,7,
94,57,7,75,67,7,
94,57,7,75,66,7,
94,56,7,74,66,7,
93,56,7,74,66,7,
93,56,7,74,66,7,
92,56,7,73,65,7,
92,56,7,73,65,7,
92,56,7,73,65,7,
91,55,7,73,65,7,
91,55,7,71,64,7,
91,55,7,71,64,7,
90,54,7,71,64,7,
89,55,7,71,63,7,
89,54,7,71,63,7,
89,54,7,71,63,7,
89,53,7,71,63,7,
88,53,7,70,63,7,
88,53,7,70,62,7,
88,52,7,70,62,7,
88,52,7,69,62,7,
87,52,7,69,61,7,
86,52,7,69,62,7,
86,51,7,68,61,7,
86,51,7,68,61,7,
86,51,7,67,61,7,
85,51,7,67,60,7,
85,51,7,67,60,7,
84,51,7,67,60,7,
84,50,7,67,60,7,
83,50,7,67,59,7,
83,50,7,66,59,7,
83,49,7,66,59,7,
83,49,7,66,59,7,
83,49,7,66,59,7,
82,49,7,65,58,7,
81,49,7,65,58,7,
81,48,7,65,58,7,
81,48,7,64,58,7,
81,49,7,64,57,7,
80,49,7,63,57,7,
80,49,7,63,57,7,
79,48,7,63,57,7,
79,48,7,63,57,7,
79,48,7,63,56,7,
79,48,7,63,56,7,
78,48,7,62,56,7,
78,48,7,62,56,7,
79,48,7,62,56,7,
79,47,7,62,56,7,
78,47,7,61,55,7,
78,46,7,61,55,7,
78,46,7,61,54,7,
77,46,7,61,55,7,
77,46,7,60,54,7,
77,46,7,60,54,7,
76,45,7,60,54,7,
76,45,7,60,53,7,
76,45,7,86,54,7,
76,45,7,85,54,7,
75,45,7,84,53,7,
75,45,7,83,53,7,
74,44,7,83,52,7,
74,44,7,83,52,7,
74,44,7,83,52,7,
74,44,7,82,52,7,
73,44,7,82,51,7,
73,43,7,82,51,7,
72,45,7,81,51,7,
73,45,7,81,51,7,
72,45,7,80,51,7,
71,44,7,81,51,7,
71,44,7,79,51,7,
71,44,7,79,51,7,
71,44,7,79,50,7,
71,44,7,78,50,7,
71,43,7,78,50,7,
71,43,7,78,50,7,
70,43,7,78,50,7,
70,43,7,78,49,7,
69,43,7,77,49,7,
69,43,7,77,49,7,
69,42,7,77,49,7,
68,43,7,76,48,7,
68,42,7,76,48,7,
68,42,7,76,48,7,
75,41,7,76,48,7,
83,41,7,75,48,7,
82,41,7,75,47,7,
81,41,7,74,48,7,
81,41,7,74,47,7,
81,41,7,74,47,7,
80,41,7,73,48,7,
80,39,7,73,46,7,
79,39,7,73,46,7,
79,39,7,71,46,7,
79,39,7,71,46,7,
79,39,7,71,46,7,
81,39,7,71,46,7,
80,39,7,71,46,7,
80,39,7,71,46,7,
79,39,7,71,46,7,
79,39,7,71,46,7,
79,39,7,70,46,7,
78,39,7,70,45,7,
78,38,7,70,45,7,
78,38,7,69,45,7,
78,38,7,69,45,7,
77,38,7,69,44,7,
77,38,7,69,45,7,
77,38,7,68,44,7,
76,38,7,67,44,7,
102,37,7,68,44,7,
111,37,7,67,44,7,
110,37,7,67,44,7,
110,37,7,67,44,7,
109,37,7,66,43,7,
108,37,7,66,43,7,
108,36,7,66,43,7,
107,36,7,66,42,7,
107,36,7,65,42,7,
106,36,7,65,43,7,
106,36,7,65,42,7,
105,36,7,65,42,7,
105,35,7,65,41,7,
103,36,7,64,42,7,
134,35,7,63,41,7,
133,35,7,63,41,7,
131,35,7,63,41,7,
131,35,7,63,39,7,
131,35,7,63,40,7,
130,34,7,62,39,7,
129,35,7,62,40,7,
129,35,7,62,39,7,
128,34,7,62,39,7,
127,34,7,62,39,7,
127,34,7,61,39,7,
127,34,7,61,39,7,
126,33,7,61,39,7,
125,34,7,60,39,7,
125,33,7,60,39,7,
124,33,7,60,39,7,
124,33,7,60,39,7,
123,33,7,60,39,7,
122,33,7,59,39,7,
122,32,7,60,38,7,
121,33,7,59,38,7,
121,32,7,58,38,7,
120,32,7,59,38,7,
120,32,7,58,39,7,
119,32,7,58,38,7,
119,31,7,57,38,7,
118,31,7,57,38,7,
118,31,7,57,38,7,
117,31,7,57,37,7,
117,31,7,57,37,7,
116,31,7,56,37,7,
115,31,7,56,37,7,
115,31,7,56,37,7,
114,31,7,56,37,7,
114,31,7,55,37,7,
113,30,7,56,37,7,
172,31,7,56,36,7,
170,30,7,56,36,7,
169,30,7,55,36,7,
167,30,7,55,35,7,
167,30,7,54,36,7,
166,30,7,54,35,7,
166,32,7,54,35,7,
164,35,7,54,35,7,
163,35,7,53,35,7,
163,35,7,53,35,7,
162,35,7,53,35,7,
161,35,7,53,35,7,
161,35,7,53,35,7,
159,35,7,52,35,7,
159,34,7,51,34,7,
158,34,7,51,34,7,
158,35,7,51,34,7,
157,35,7,51,34,7,
156,35,7,51,34,7,
156,34,7,51,34,7,
155,34,7,51,33,7,
154,33,7,51,33,7,
153,33,7,50,33,7,
153,34,7,50,33,7,
152,33,7,50,33,7,
152,33,7,50,33,7,
150,33,7,50,32,7,
150,33,7,49,32,7,
150,33,7,50,32,7,
149,33,7,48,32,7,
148,33,7,49,32,7,
147,32,7,49,32,7,
146,32,7,48,31,7,
146,31,7,48,31,7,
145,31,7,48,31,7,
145,31,7,48,31,7,
144,31,7,48,31,7,
143,31,7,48,31,7,
143,31,7,47,31,7,
142,31,7,48,31,7,
142,31,7,47,31,7,
141,31,7,47,31,7,
140,31,7,46,31,7,
140,31,7,46,31,7,
139,30,7,46,30,7,
138,30,7,46,30,7,
138,30,7,46,30,7,
137,30,7,46,30,7,
137,30,7,45,30,7,
135,30,7,45,30,7,
135,30,7,45,30,7,
135,29,7,45,30,7,
135,29,7,44,30,7,
134,30,7,44,29,7,
134,29,7,44,29,7,
133,29,7,44,29,7,
132,29,7,44,29,7,
131,29,7,44,29,7,
131,29,7,43,29,7,
130,29,7,44,29,7,
130,28,7,43,29,7,
129,28,7,43,29,7,
129,28,7,43,29,7,
128,28,7,43,28,7,
127,28,7,43,28,7,
127,28,7,42,28,7,
127,28,7,42,27,7,
126,28,7,42,28,7,
126,27,7,42,28,7,
125,27,7,42,28,7,
124,27,7,41,27,7,
124,27,7,41,27,7,
124,27,7,41,27,7,
123,27,7,41,27,7,
123,27,7,41,27,7,
121,27,7,41,27,7,
121,27,7,40,27,7,
121,27,7,39,27,7,
121,28,7,40,26,7,
120,28,7,39,26,7,
120,28,7,39,26,7,
119,28,7,39,26,7,
119,28,7,39,26,7,
118,28,7,39,26,7,
117,27,7,39,26,7,
117,27,7,39,26,7,
117,27,7,39,25,7,
116,27,7,39,26,7,
115,27,7,39,26,7,
115,27,7,38,25,7,
115,27,7,38,25,7,
115,27,7,38,25,7,
114,26,7,38,25,7,
114,26,7,38,25,7,
113,26,7,38,25,7,
112,26,7,38,25,7,
112,25,7,38,25,7,
111,25,7,37,24,7,
111,26,7,38,25,7,
124,26,7,39,25,7,
123,25,7,39,24,7,
122,25,7,39,24,7,
121,25,7,39,24,7,
121,25,7,39,24,7,
121,25,7,39,24,7,
120,25,7,39,24,7,
120,25,7,39,24,7,
119,25,7,39,24,7,
118,24,7,39,24,7,
118,25,7,41,25,7,
117,24,7,41,24,7,
117,25,7,41,24,7,
116,24,7,41,24,7,
115,24,7,41,24,7,
115,24,7,40,24,7,
115,24,7,39,24,7,
114,24,7,39,24,7,
114,24,7,39,24,7,
113,24,7,39,24,7,
113,24,7,39,23,7,
112,24,7,39,23,7,
112,24,7,39,23,7,
112,23,7,38,22,7,
111,24,7,39,23,7,
110,23,7,39,22,7,
110,23,7,38,22,7,
109,24,7,38,22,7,
109,23,7,38,22,7,
109,23,7,38,22,7,
108,22,7,38,22,7,
108,23,7,38,22,7,
107,23,7,38,22,7,
107,22,7,37,22,7,
106,22,7,37,22,7,
106,22,7,37,21,7,
105,22,7,37,22,7,
106,22,7,37,21,7,
106,22,7,36,22,7,
105,31,7,36,21,7,
105,31,7,36,21,7,
104,30,7,36,21,7,
103,31,7,36,21,7,
103,30,7,35,21,7,
103,30,7,35,21,7,
103,30,7,35,21,7,
102,30,7,35,20,7,
102,30,7,35,20,7,
102,30,7,35,21,7,
101,30,7,35,21,7,
101,29,7,35,20,7,
100,29,7,34,19,7,
100,29,7,34,21,7,
99,29,7,34,19,7,
99,29,7,34,20,7,
99,28,7,34,19,7,
98,28,7,34,19,7,
98,28,7,34,19,7,
98,28,7,34,19,7,
97,28,7,34,19,7,
97,28,7,34,19,7,
96,28,7,52,19,7,
99,28,7,51,19,7,
115,28,7,51,20,7,
114,27,7,51,19,7,
113,27,7,51,20,7,
113,27,7,51,20,7,
112,27,7,51,19,7,
112,27,7,50,19,7,
111,27,7,50,19,7,
111,27,7,50,19,7,
110,27,7,50,19,7,
110,26,7,50,19,7,
109,26,7,49,19,7,
109,26,7,49,19,7,
108,26,7,49,19,7,
108,25,7,49,19,7,
107,25,7,48,19,7,
107,26,7,48,19,7,
106,25,7,48,18,7,
106,25,7,48,18,7,
105,25,7,48,18,7,
105,25,7,48,18,7,
103,25,7,47,18,7,
103,25,7,47,18,7,
103,25,7,47,18,7,
103,25,7,47,18,7,
103,25,7,47,18,7,
102,25,7,46,18,7,
102,25,7,46,17,7,
101,25,7,46,17,7,
101,25,7,45,17,7,
100,25,7,46,17,7,
100,25,7,45,18,7,
99,25,7,45,17,7,
99,25,7,45,17,7,
99,25,7,44,17,7,
98,24,7,45,17,7,
97,24,7,44,17,7,
97,24,7,44,17,7,
97,24,7,44,17,7,
97,24,7,44,16,7,
96,24,7,44,17,7,
96,24,7,52,17,7,
96,24,7,52,17,7,
95,34,7,52,17,7,
95,34,7,51,16,7,
94,34,7,51,16,7,
94,34,7,51,18,7,
94,34,7,51,44,7,
94,34,7,51,49,7,
93,33,7,50,48,7,
93,34,7,50,48,7,
92,33,7,50,48,7,
92,33,7,50,48,7,
92,33,7,50,48,7,
91,33,7,49,47,7,
91,33,7,49,47,7,
91,33,7,49,47,7,
91,33,7,49,46,7,
90,32,7,48,46,7,
89,32,7,48,46,7,
89,31,7,48,46,7,
89,31,8,48,68,7,
89,33,7,111,101,7,
90,32,7,112,122,7,
103,31,7,112,135,7,
103,31,7,110,162,7,
102,31,7,109,161,7,
102,31,7,109,159,7,
101,31,7,108,159,7,
101,30,7,108,158,7,
100,31,7,107,157,7,
99,30,7,106,156,7,
99,31,7,106,156,7,
99,30,7,105,154,7,
98,30,7,105,153,7,
98,30,7,105,153,7,
97,30,7,103,152,7,
97,29,7,103,152,7,
96,30,7,103,152,7,
96,29,7,103,150,7,
96,29,7,102,149,7,
95,29,7,102,148,7,
95,29,7,101,147,7,
94,29,7,101,147,7,
94,28,7,100,146,7,
93,28,7,100,146,7,
93,28,7,99,145,7,
93,28,7,99,144,7,
92,28,7,99,143,7,
92,28,7,98,143,7,
91,28,7,98,143,7,
91,28,7,97,142,7,
91,28,7,97,141,7,
90,28,7,96,140,7,
90,27,7,96,140,7,
89,27,7,96,139,7,
89,27,7,96,139,7,
89,27,7,95,138,7,
88,27,7,94,137,7,
88,27,7,94,137,7,
88,27,7,94,135,7,
87,27,7,93,135,7,
88,27,7,93,135,7,
86,28,7,93,135,7,
86,28,7,92,134,7,
86,28,7,92,134,7,
85,28,7,91,133,7,
85,28,7,91,132,7,
85,28,7,91,131,7,
84,27,7,90,131,7,
84,28,7,90,131,7,
84,27,7,89,130,7,
110,27,7,89,130,7,
109,27,7,89,129,7,
108,27,7,88,127,7,
108,27,7,88,127,7,
107,27,7,88,127,7,
106,27,7,88,126,7,
106,27,7,87,126,7,
105,27,7,87,125,7,
105,27,7,86,125,7,
103,26,7,86,124,7,
103,27,7,85,124,7,
103,26,7,85,123,7,
103,26,7,84,123,7,
103,26,7,83,122,7,
102,26,7,84,121,7,
101,25,7,83,121,7,
101,26,7,83,120,7,
100,25,7,83,120,7,
100,26,7,82,120,7,
99,25,7,82,119,7,
99,25,7,81,119,7,
99,24,7,81,118,7,
98,25,7,81,117,7,
97,25,7,81,117,7,
97,25,7,80,117,7,
97,24,7,80,116,7,
96,24,7,79,115,7,
96,24,7,79,115,7,
96,24,7,79,114,7,
95,24,7,79,114,7,
95,24,7,78,114,7,
94,24,7,78,113,7,
94,24,7,78,113,7,
94,24,7,78,112,7,
93,24,7,79,112,7,
93,23,7,78,112,7,
92,24,7,78,111,7,
92,24,7,77,110,7,
91,23,7,77,110,7,
91,23,7,77,109,7,
90,24,7,76,109,7,
90,23,7,76,109,7,
90,23,7,76,108,7,
89,23,7,76,108,7,
89,22,7,76,108,7,
88,22,7,75,108,7,
89,23,7,75,106,7,
88,24,7,75,106,7,
88,24,7,75,105,7,
88,24,7,77,105,7,
87,23,7,83,105,7,
86,23,7,82,103,7,
86,44,7,83,103,7,
86,44,7,82,103,7,
85,44,7,81,103,7,
85,43,7,81,102,7,
84,43,7,81,102,7,
84,43,7,80,102,7,
84,43,7,79,102,7,
83,42,7,79,101,7,
83,42,7,79,101,7,
84,43,7,79,100,7,
97,42,7,78,100,7,
96,42,7,78,99,7,
96,41,7,78,99,7,
95,41,7,78,99,7,
95,41,7,77,99,7,
94,41,7,77,98,7,
94,41,7,77,98,7,
93,40,7,76,97,7,
93,39,7,76,97,7,
93,39,7,76,96,7,
92,39,7,75,96,7,
92,39,7,75,96,7,
92,39,7,75,96,7,
91,39,7,74,95,7,
91,39,7,74,95,7,
91,39,7,74,94,7,
90,39,7,73,94,7,
90,39,7,73,94,7,
89,39,7,73,93,7,
89,38,7,71,93,7,
89,38,7,72,92,7,
88,38,7,71,93,7,
88,38,7,71,92,7,
88,37,7,71,92,7,
87,37,7,71,92,7,
87,37,7,71,91,7,
86,37,7,71,90,7,
86,37,7,70,90,7,
86,37,7,70,90,7,
85,36,7,70,89,7,
85,37,7,70,89,7,
84,37,7,69,89,7,
84,37,7,69,89,7,
84,37,7,69,88,7,
83,37,7,69,88,7,
83,36,7,68,88,7,
83,36,7,68,88,7,
83,36,7,67,88,7,
82,36,7,67,86,7,
82,35,7,67,87,7,
81,35,7,67,86,7,
81,35,7,67,85,7,
81,35,7,66,85,7,
81,35,7,67,85,7,
80,35,7,66,84,7,
80,35,7,65,84,7,
79,35,7,65,83,7,
79,34,7,65,83,7,
79,34,7,65,83,7,
79,34,7,65,83,7,
79,34,7,65,83,7,
89,34,7,64,82,7,
89,34,7,64,82,7,
89,33,7,63,82,7,
88,34,7,63,81,7,
88,33,7,63,81,7,
88,33,7,63,81,7,
88,33,7,63,80,7,
87,33,7,63,79,7,
86,33,7,62,79,7,
86,33,7,62,79,7,
85,32,7,62,79,7,
85,33,7,62,79,7,
85,35,7,62,79,7,
85,35,7,61,78,7,
84,35,7,61,78,7,
84,35,7,61,78,7,
83,34,7,60,78,7,
83,34,7,60,77,7,
83,34,7,60,77,7,
83,34,7,60,76,7,
82,34,7,60,76,7,
82,34,7,59,76,7,
81,34,7,59,76,7,
81,34,7,59,76,7,
81,34,7,58,76,7,
80,33,7,59,75,7,
82,33,7,58,75,7,
82,33,7,57,75,7,
81,33,7,57,74,7,
81,33,7,58,74,7,
81,33,7,57,73,7,
81,57,7,57,73,7,
79,65,7,57,73,7,
79,65,7,57,71,7,
79,64,7,56,71,7,
79,63,7,56,72,7,
79,63,7,56,71,7,
78,63,7,56,71,7,
78,63,7,56,71,7,
78,63,7,56,71,7,
78,62,7,56,71,7,
77,62,7,55,71,7,
77,61,7,55,71,7,
77,61,7,55,70,7,
76,61,7,54,70,7,
76,61,7,55,70,7,
76,60,7,54,70,7,
75,60,7,54,69,7,
75,60,7,54,69,7,
75,60,7,53,69,7,
75,59,7,53,68,7,
75,60,7,53,68,7,
75,59,7,53,68,7,
75,58,7,52,67,7,
75,58,7,52,67,7,
75,58,7,52,67,7,
74,57,7,52,67,7,
73,57,7,51,67,7,
73,57,7,51,67,7,
73,57,7,51,66,7,
73,56,7,51,65,7,
71,56,7,51,66,7,
71,56,7,51,65,7,
71,56,7,51,65,7,
71,56,7,50,65,7,
71,56,7,50,65,7,
71,56,7,50,65,7,
71,56,7,50,64,7,
71,56,7,50,63,7,
70,55,7,49,63,7,
71,54,7,49,63,7,
70,54,7,49,63,7,
70,53,7,49,63,7,
69,54,7,48,63,7,
70,53,7,48,63,7,
69,53,7,48,62,7,
69,53,7,48,62,7,
69,53,7,48,62,7,
68,52,7,48,62,7,
68,52,7,48,61,7,
67,51,7,48,62,7,
67,51,7,48,61,7,
67,51,7,47,61,7,
67,51,7,47,61,7,
67,51,7,47,60,7,
66,51,7,47,60,7,
66,50,7,46,60,7,
66,50,7,46,60,7,
66,50,7,46,59,7,
65,50,7,46,59,7,
65,50,7,46,59,7,
65,49,7,46,59,7,
65,49,7,45,59,7,
65,49,7,45,58,7,
65,49,7,45,59,7,
65,49,7,45,57,7,
64,49,7,44,58,7,
64,48,7,45,57,7,
63,60,7,45,57,7,
63,60,7,44,57,7,
63,60,7,44,57,7,
63,59,7,44,56,7,
63,59,7,44,56,7,
63,59,7,43,56,7,
81,59,7,44,56,7,
90,59,7,44,56,7,
90,58,7,43,56,7,
89,57,7,43,56,7,
89,57,7,42,56,7,
88,57,7,43,56,7,
88,57,7,43,55,7,
88,57,7,42,55,7,
88,56,7,42,54,7,
88,56,7,42,54,7,
86,56,7,42,54,7,
86,56,7,42,54,7,
86,56,7,41,54,7,
86,56,7,41,53,7,
85,55,7,41,53,7,
84,55,7,41,53,7,
85,54,7,41,53,7,
84,54,7,41,53,7,
83,54,7,40,52,7,
83,54,7,39,52,7,
83,54,7,39,52,7,
82,53,7,39,51,7,
82,53,7,39,51,7,
81,53,7,39,51,7,
82,53,7,39,51,7,
81,52,7,39,51,7,
81,52,7,39,51,7,
80,52,7,39,51,7,
80,51,7,39,50,7,
79,51,7,39,50,7,
79,51,7,38,50,7,
79,51,7,39,50,7,
79,51,7,39,50,7,
79,50,7,38,49,7,
78,50,7,38,49,7,
77,50,7,38,49,7,
78,50,7,38,49,7,
77,50,7,37,49,7,
77,49,7,38,48,7,
77,49,7,38,48,7,