
33,9,0,39,29,0,
33,9,0,39,29,0,
33,9,0,38,29,0,
33,9,0,39,29,1,
33,9,0,38,29,0,
32,9,0,38,28,0,
32,9,0,38,29,1,
31,9,0,38,28,0,
31,9,0,38,28,0,
31,9,0,38,31,0,
31,9,0,38,31,0,
31,9,0,37,31,0,
31,9,0,37,31,0,
31,8,0,37,31,0,
31,9,0,37,31,0,
31,9,0,37,31,0,
31,8,0,37,31,0,
31,7,0,36,30,0,
30,9,0,36,30,0,
30,7,0,36,30,0,
30,7,0,36,30,0,
30,8,0,36,30,0,
30,7,0,36,30,0,
30,7,0,36,30,0,
30,8,0,35,29,0,
30,7,0,35,30,0,
30,7,0,35,29,0,
29,7,0,35,29,0,
30,7,0,35,29,0,
29,7,0,35,29,0,
29,7,0,35,29,1,
29,7,0,34,29,0,
29,7,0,34,29,0,
29,7,0,34,29,0,
28,7,0,34,29,0,
28,7,0,34,28,0,
28,7,0,34,28,0,
28,7,0,34,28,0,
28,7,0,33,27,0,
28,7,0,33,28,0,
28,7,0,33,28,0,
28,7,0,33,28,0,
28,7,0,33,27,0,
27,8,0,33,27,0,
27,7,0,32,27,0,
27,8,0,33,27,0,
27,7,0,33,27,0,
27,7,0,32,27,0,
27,7,0,32,26,0,
27,7,0,32,26,0,
26,7,0,31,45,0,
26,7,0,63,66,0,
26,7,0,63,66,0,
26,7,0,62,65,0,
26,7,0,62,65,0,
26,31,0,62,65,0,
26,35,0,61,64,0,
25,36,0,61,64,0,
25,35,0,61,63,0,
25,35,0,60,63,0,
25,35,0,60,63,1,
25,35,0,60,62,0,
25,34,0,60,62,0,
25,34,0,60,62,0,
25,34,0,59,62,0,
27,34,0,59,61,0,
27,34,0,59,61,0,
27,34,0,58,61,0,
27,34,0,58,60,0,
27,33,0,57,60,0,
26,33,0,57,60,0,
26,33,0,57,60,1,
26,33,0,56,60,0,
26,33,0,57,59,0,
26,32,0,57,59,0,
25,31,0,56,59,0,
25,32,0,56,58,0,
26,31,0,56,57,0,
26,31,0,56,57,0,
26,31,0,56,57,0,
26,31,0,55,57,0,
26,31,0,55,57,0,
26,31,0,55,56,0,
26,31,0,54,56,0,
25,31,0,54,56,0,
25,30,0,53,56,0,
25,30,0,53,56,0,
25,30,0,53,56,0,
25,30,0,53,55,0,
25,30,0,53,55,0,
25,30,0,53,55,0,
25,30,0,52,54,0,
25,29,0,51,54,0,
25,29,0,51,54,0,
25,29,0,51,54,0,
25,29,0,51,53,0,
25,29,0,51,53,0,
25,29,0,51,53,0,
24,29,0,50,53,0,
25,29,0,50,52,0,
24,28,1,50,52,0,
24,28,0,50,51,0,
24,28,0,49,51,0,
24,28,0,49,51,0,
24,28,0,49,51,0,
24,28,0,49,51,0,
24,27,0,48,51,0,
24,27,0,48,51,0,
24,27,0,48,50,0,
24,27,0,48,50,1,
23,27,1,48,50,0,
24,27,0,47,49,0,
23,27,0,48,49,0,
23,26,0,47,49,0,
23,26,0,47,49,0,
22,26,1,47,49,1,
30,25,0,46,49,0,
41,26,0,46,48,0,
41,25,0,46,48,0,
41,25,0,46,48,0,
41,25,0,46,48,0,
41,25,0,45,48,0,
39,25,0,45,47,0,
39,25,0,45,47,0,
39,25,0,45,47,1,
39,25,0,45,46,0,
39,24,0,44,46,0,
39,25,0,44,46,0,
39,24,0,45,46,0,
39,24,0,96,46,0,
39,24,0,95,45,0,
39,24,0,94,45,0,
39,24,0,94,45,0,
39,24,1,93,45,0,
39,24,0,93,45,0,
38,24,0,92,45,0,
38,24,1,92,44,0,
38,23,0,91,44,0,
38,23,0,91,44,0,
37,23,0,91,44,1,
37,23,0,90,43,0,
37,23,0,89,43,0,
37,22,0,89,43,0,
37,22,0,89,43,0,
37,22,0,88,43,0,
37,22,0,88,42,0,
36,22,0,88,42,0,
36,22,0,87,42,0,
35,22,0,87,42,0,
35,22,0,86,41,0,
35,21,0,86,41,0,
35,21,0,86,41,0,
35,22,0,86,41,0,
35,21,0,85,41,0,
35,21,0,85,71,1,
34,21,0,84,91,0,
35,21,0,84,89,0,
34,21,1,83,89,0,
34,21,0,83,89,0,
34,21,1,83,88,1,
34,21,0,83,88,0,
34,20,0,82,87,0,
33,20,1,82,87,1,
33,20,0,82,86,0,
33,20,0,81,86,0,
33,19,0,81,85,0,
33,19,0,80,85,0,
32,20,1,79,84,1,
32,19,0,79,84,0,
31,19,0,79,84,0,
31,19,0,79,83,0,
31,19,0,79,83,0,
31,19,0,79,82,0,
31,19,0,78,82,1,
31,19,0,78,82,0,
31,19,1,78,81,0,
31,19,0,77,81,1,
31,19,0,77,81,0,
31,18,0,76,81,0,
31,18,0,76,80,1,
31,18,0,76,79,0,
30,19,0,76,79,0,
30,18,1,76,78,0,
30,18,0,75,78,0,
30,18,0,75,78,0,
29,18,0,75,78,0,
30,18,1,74,78,0,
29,18,0,73,77,0,
29,18,0,73,77,0,
29,18,0,73,76,0,
29,17,0,73,76,0,
29,17,0,71,76,0,
29,17,0,71,76,0,
29,17,0,71,75,0,
29,17,0,71,75,0,
28,16,0,71,75,1,
28,17,0,71,74,0,
28,17,0,71,74,0,
28,16,1,71,73,0,
28,16,0,71,73,0,
28,16,0,70,73,0,
27,16,0,70,72,0,
28,16,0,70,72,0,
28,16,1,70,71,1,
27,16,1,69,71,0,
27,15,1,69,71,0,
27,15,0,69,71,0,
27,16,0,68,71,0,
28,15,0,68,70,0,
27,15,0,67,70,0,
27,15,0,67,70,0,
27,15,0,67,70,0,
27,15,1,67,69,0,
27,20,0,67,68,0,
27,22,0,66,68,0,
26,22,0,66,68,1,
26,21,0,66,68,0,
26,21,0,66,67,0,
26,21,0,65,67,1,
26,21,0,65,67,0,
25,21,0,65,66,0,
26,21,1,65,66,0,
26,20,0,64,66,0,
25,20,0,63,65,0,
25,20,0,63,65,0,
25,20,1,63,65,0,
25,20,0,63,65,1,
25,20,0,63,64,0,
25,20,1,62,64,0,
25,20,0,62,64,0,
25,19,0,62,63,0,
25,19,0,62,63,0,
24,19,0,62,63,0,
24,19,0,61,63,0,
24,19,0,61,63,0,
24,19,1,61,62,0,
24,19,0,61,62,0,
24,19,0,60,62,0,
24,19,0,60,61,0,
24,19,0,60,62,0,
24,18,0,60,61,0,
23,18,0,59,61,1,
23,19,1,59,60,0,
24,18,0,59,60,0,
23,18,0,58,60,0,
23,18,1,58,60,0,
22,18,0,58,59,0,
23,18,0,58,59,0,
22,18,0,57,59,0,
23,18,0,57,59,0,
22,17,0,57,59,0,
22,17,0,57,58,0,
22,17,0,57,58,0,
22,17,0,56,57,0,
22,17,0,56,57,0,
22,17,0,56,57,1,
22,17,1,56,57,0,
21,17,0,56,57,0,
21,17,0,56,56,0,
21,17,0,55,56,0,
22,16,0,55,56,0,
22,16,0,54,56,1,
22,16,0,55,56,0,
22,16,0,54,56,0,
21,16,0,54,55,0,
22,17,0,54,55,0,
22,29,0,53,54,0,
21,30,0,53,54,0,
21,29,0,53,54,0,
21,29,0,53,53,0,
21,29,0,52,54,1,
20,29,0,52,54,1,
21,28,0,52,53,0,
21,28,0,51,53,0,
20,28,0,51,52,1,
21,28,0,51,53,0,
20,28,0,51,52,0,
21,28,0,51,51,0,
20,27,0,51,52,0,
20,27,0,50,51,0,
20,27,0,51,51,0,
19,28,0,50,51,0,
19,27,0,50,51,1,
19,27,0,50,51,0,
19,27,0,50,51,0,
19,26,0,50,51,0,
19,27,0,50,50,0,
19,26,1,49,50,0,
19,26,0,49,50,0,
19,26,0,49,50,0,
19,26,0,49,50,0,
19,26,0,49,49,1,
19,26,0,48,49,0,
19,25,1,48,49,0,
19,25,0,48,49,0,
18,25,0,48,48,0,
19,25,0,47,48,0,
18,25,0,47,48,0,
18,25,0,47,48,0,
26,25,0,47,49,0,
33,25,0,47,50,0,
32,25,0,46,50,0,
33,24,0,46,50,0,
32,24,0,46,49,0,
31,24,0,46,49,0,
31,24,0,46,49,0,
31,24,0,45,48,0,
31,24,0,45,48,0,
31,24,0,45,48,0,
31,24,0,45,48,0,
31,23,0,45,48,0,
34,24,0,45,48,0,
46,23,0,44,48,0,
77,23,0,44,47,0,
76,23,0,44,47,0,
76,23,0,44,47,0,
75,23,0,43,46,0,
74,23,0,43,46,1,
74,22,0,43,46,0,
73,22,0,43,46,0,
73,22,0,43,46,1,
73,22,0,43,45,0,
71,22,0,43,45,0,
71,22,0,42,45,0,
71,22,0,42,45,0,
71,21,0,44,46,0,
71,21,0,43,46,0,
71,21,0,44,46,0,
71,21,0,43,45,0,
70,21,0,43,45,0,
70,21,0,43,45,0,
70,23,0,42,45,0,
69,22,0,42,45,0,
69,22,0,41,44,0,
68,22,0,42,44,0,
68,22,0,41,44,0,
67,22,0,41,44,0,
67,22,0,41,43,0,
67,22,0,41,43,0,
67,22,0,41,43,0,
67,22,1,41,43,1,
66,21,0,40,43,0,
66,22,0,39,43,0,
66,21,0,39,43,0,
65,21,0,39,42,0,
65,21,0,39,42,0,
65,20,0,39,42,0,
64,21,0,39,41,0,
64,20,0,39,41,0,
63,20,0,39,41,0,
63,20,0,39,41,0,
63,20,0,39,41,0,
63,20,0,39,41,0,
63,20,0,38,41,0,
62,19,0,38,41,0,
62,20,1,38,39,1,
62,19,0,38,39,0,
61,19,0,38,39,0,
61,19,0,37,39,0,
61,19,0,37,39,0,
61,19,0,37,39,0,
60,19,0,37,39,0,
60,19,0,37,39,0,
60,19,0,37,39,0,
60,19,0,37,39,0,
59,19,0,37,38,0,
59,19,0,36,38,0,
59,19,0,36,38,0,
59,18,0,35,38,0,
58,18,0,35,38,0,
58,42,0,35,38,0,
57,41,1,35,38,0,
57,41,0,35,37,0,
57,41,0,35,37,1,
57,41,1,58,37,0,
57,41,0,59,36,0,
56,39,0,58,37,0,
57,39,0,57,37,0,
56,39,0,57,36,0,
56,39,0,57,36,0,
56,39,0,57,36,0,
56,39,0,57,36,0,
56,39,0,57,35,0,
55,39,0,56,35,0,
55,38,0,56,35,0,
54,38,0,56,35,0,
54,38,1,56,35,0,
54,38,0,55,35,0,
54,38,0,55,35,0,
53,37,0,55,35,0,
53,37,0,55,34,0,
53,37,0,54,34,1,
52,37,0,53,34,1,
52,37,0,54,34,0,
52,36,0,53,34,1,
52,36,0,53,33,0,
52,36,0,53,33,0,
51,36,0,63,33,0,
51,35,0,62,33,0,
51,36,0,62,33,0,
51,35,1,62,33,0,
51,35,0,62,32,0,
50,35,0,61,32,0,
50,35,0,61,36,0,
50,35,1,61,36,0,
49,34,0,61,36,0,
49,34,0,60,36,0,
49,34,0,60,35,0,
49,33,0,60,35,0,
49,33,0,60,35,0,
48,34,0,59,35,1,
48,34,0,59,35,0,
48,33,0,59,34,0,
48,33,0,58,35,0,
48,33,0,58,34,1,
47,33,0,58,34,0,
48,32,1,57,34,1,
47,33,0,59,76,0,
47,32,0,65,81,0,
47,32,0,65,80,0,
47,31,0,65,79,0,
46,31,0,63,79,0,
46,31,0,63,79,0,
45,31,0,63,78,0,
45,31,0,63,78,0,
45,31,0,62,78,1,
45,31,1,62,77,0,
45,31,0,62,77,0,
45,31,0,62,77,0,
45,30,0,62,77,0,
45,31,0,61,76,0,
44,30,0,61,76,0,
44,30,0,61,76,0,
44,30,0,61,75,0,
44,30,0,60,75,0,
44,30,0,60,74,0,
43,29,1,59,74,0,
43,29,0,59,73,0,
43,29,0,59,73,0,
42,29,0,59,73,0,
42,29,0,59,72,0,
42,29,0,58,71,0,
42,29,0,58,71,0,
41,29,0,60,75,0,
41,28,0,61,81,0,
41,28,0,61,79,0,
41,28,1,61,79,0,
41,28,0,60,79,1,
41,28,0,60,79,1,
41,28,1,60,79,0,
41,28,0,59,78,0,
39,27,0,59,78,0,
39,27,0,59,77,0,
39,27,0,59,77,0,
39,27,0,58,77,0,
39,27,0,58,76,0,
39,27,0,57,76,0,
39,27,1,57,76,0,
39,26,0,57,75,0,
39,26,0,57,75,0,
39,26,0,57,75,0,
39,26,0,56,74,0,
39,26,0,56,74,1,
38,26,0,56,73,0,
38,26,1,56,73,0,
38,25,0,56,73,0,
38,25,0,55,72,0,
38,25,0,55,71,1,
37,25,0,55,71,0,
37,25,0,55,71,1,
38,25,0,54,71,0,
38,25,0,54,71,0,
37,25,0,54,71,0,
38,24,0,54,70,0,
37,24,0,53,70,0,
37,24,0,53,69,0,
37,24,0,53,70,0,
37,24,0,53,69,0,
36,24,0,53,69,0,
36,24,0,53,69,0,
36,24,0,52,68,0,
35,24,0,51,67,0,
36,24,0,51,67,0,
35,24,0,51,67,0,
35,23,0,51,67,0,
35,24,0,51,67,0,
35,24,0,50,66,0,
35,23,0,50,66,0,
35,25,0,50,66,0,
35,27,0,50,65,0,
35,28,0,50,65,0,
34,27,0,49,65,0,
34,27,0,49,64,0,
34,26,0,49,64,0,
34,27,0,49,64,0,
34,26,0,49,63,0,
34,26,0,48,63,0,
34,26,0,48,63,0,
34,26,0,48,63,0,
34,26,0,48,63,0,
34,43,0,48,63,0,
34,43,0,47,62,0,
33,42,0,47,62,0,
33,42,0,47,62,0,
33,42,0,47,61,0,
33,42,0,47,61,0,
33,41,0,46,61,0,
33,41,0,46,60,0,
33,41,0,46,60,0,
33,39,0,46,60,0,
33,40,0,46,60,0,
33,39,0,45,59,0,
33,39,0,45,59,0,
33,39,0,45,59,0,
32,39,0,45,59,0,
32,39,0,44,58,0,
32,39,0,45,58,0,
31,39,0,44,57,0,
31,38,0,44,57,0,
31,39,0,43,57,0,
31,38,0,44,57,0,
31,38,0,43,57,0,
34,38,0,43,57,0,
35,38,0,43,57,0,
34,38,0,43,56,0,
34,38,0,43,56,0,
34,39,0,42,56,0,
34,39,0,43,55,1,
33,38,0,42,56,0,
33,38,0,42,56,0,
33,38,0,42,55,0,
33,38,1,41,54,0,
33,38,0,41,54,1,
32,37,0,41,54,0,
33,37,0,41,54,0,
33,37,0,41,53,0,
35,37,0,39,53,0,
34,37,0,39,53,0,
34,36,0,39,53,1,
34,36,0,39,53,0,
34,36,0,39,52,0,
34,36,0,39,52,1,
33,35,0,39,52,0,
33,35,1,39,51,0,
33,35,0,39,52,0,
33,35,1,39,51,1,
33,35,0,39,51,0,
33,35,0,39,51,0,
32,34,0,50,51,0,
42,35,0,50,51,0,
41,34,0,50,50,0,
41,34,0,50,50,0,
41,34,0,50,50,0,
41,34,0,49,50,0,
40,34,0,53,49,0,
40,34,0,68,49,0,
39,34,0,67,49,0,
39,33,0,67,49,0,
39,33,0,67,49,0,
39,33,0,67,53,0,
39,33,0,82,55,0,
39,33,0,83,55,0,
39,32,0,83,55,1,
39,32,0,82,54,0,
39,32,0,81,54,0,
39,32,0,81,54,0,
39,31,0,81,53,0,
39,31,0,80,53,0,
38,31,1,79,53,0,
38,31,0,79,53,0,
38,31,0,79,53,0,
38,31,0,79,52,0,
38,31,0,78,51,0,
38,31,0,79,96,0,
39,31,0,86,97,0,
39,30,0,85,96,0,
39,30,0,84,96,0,
39,41,0,85,96,0,
39,65,0,83,95,0,
39,64,0,83,94,0,
39,64,0,83,94,0,
39,63,1,83,93,0,
38,63,0,82,93,0,
38,63,0,82,92,1,
38,63,0,81,92,0,
38,62,0,81,91,0,
38,62,0,80,91,1,
38,62,0,80,91,0,
37,61,0,80,90,0,
38,61,0,79,90,0,
37,61,1,79,89,0,
37,60,0,79,89,0,
37,60,0,79,88,0,
36,60,0,78,88,0,
37,59,0,78,88,0,
36,59,0,78,88,0,
36,59,0,77,88,0,
36,59,0,77,88,0,
35,58,1,77,87,0,
35,58,0,76,86,0,
39,58,0,76,85,0,
55,57,0,76,85,0,
54,57,0,76,85,0,
54,57,0,75,84,0,
53,56,0,75,84,0,
53,56,1,75,84,0,
53,57,0,74,83,0,
53,56,0,73,83,0,
52,56,1,73,83,0,
52,56,0,73,82,0,
51,55,0,73,82,0,
51,55,0,71,81,0,
51,55,0,71,81,0,
51,55,0,71,81,1,
51,54,0,71,80,0,
51,54,0,71,80,0,
50,54,0,71,79,0,
50,53,0,71,79,0,
50,53,0,70,79,0,
49,53,0,70,79,0,
49,52,0,70,78,0,
49,52,0,70,78,0,
49,52,0,69,78,1,
49,51,0,69,77,0,
49,51,0,69,77,1,
48,51,1,68,77,0,
48,51,1,67,76,0,
48,51,0,67,76,1,
48,51,0,67,76,0,
48,50,0,67,75,0,
48,50,0,67,75,0,
47,50,0,66,75,0,
47,50,0,66,74,0,
47,49,1,66,74,0,
47,49,0,66,73,0,
46,49,0,65,73,0,
46,48,0,65,73,0,
46,48,0,65,73,0,
46,48,0,64,71,0,
45,48,0,64,71,0,
45,48,0,63,71,0,
45,48,0,63,71,0,
45,47,0,63,71,0,
45,48,1,63,71,0,
44,47,0,62,70,0,
44,47,0,63,70,0,
44,46,0,62,70,1,
44,46,0,62,70,1,
44,46,0,62,70,0,
43,46,0,61,69,0,
43,46,0,61,69,0,
43,45,1,61,68,0,
43,45,0,61,68,0,
43,45,0,61,67,0,
42,45,0,60,68,0,
42,45,0,60,67,0,
42,45,0,60,67,0,
42,44,0,60,67,0,
42,44,0,59,67,0,
41,44,0,59,66,0,
41,44,0,59,66,0,
41,44,0,59,65,0,
39,44,0,58,65,0,
40,44,0,58,65,0,
40,43,0,57,64,0,
40,43,0,57,65,0,
39,43,0,57,103,0,
39,43,0,57,102,0,
39,42,0,57,101,1,
39,42,0,57,100,0,
39,42,0,57,100,0,
39,42,0,57,99,0,
39,42,0,57,99,0,
38,41,0,56,98,0,
39,41,0,56,98,0,
39,41,0,56,98,0,
38,41,0,56,97,0,
38,40,0,56,96,0,
38,41,1,55,128,0,
38,39,0,55,138,0,
38,39,0,54,135,0,
38,39,1,54,135,0,
38,39,0,54,135,0,
38,39,1,53,134,0,
37,39,0,53,134,0,
37,39,0,53,133,0,
37,39,0,53,132,0,
37,39,0,53,131,0,
36,39,0,52,131,0,
36,39,1,52,130,0,
36,38,0,51,130,0,
36,38,0,51,129,0,
35,38,0,51,128,0,
35,38,0,51,127,0,
35,37,0,51,127,0,
35,37,0,51,126,0,
35,37,0,51,126,0,
35,37,0,50,125,0,
35,37,1,50,124,0,
34,36,0,50,124,1,
34,36,0,50,124,0,
34,36,0,50,123,0,
34,36,0,49,123,0,
33,35,0,49,122,0,
34,35,0,49,121,0,
34,35,0,49,121,0,
33,35,0,48,120,0,
33,36,0,48,120,0,
33,41,0,48,119,0,
33,41,0,47,118,0,
33,40,0,47,118,0,
33,39,0,48,118,1,
33,40,0,70,117,0,
32,39,0,110,117,1,
32,39,0,109,115,0,
36,39,1,108,115,0,
50,39,0,107,115,0,
50,39,0,106,115,0,
49,39,0,106,114,0,
49,39,1,105,113,1,
49,41,0,105,113,0,
48,41,0,103,112,0,
48,39,0,103,112,1,
48,39,0,103,111,0,
48,39,0,103,111,0,
48,39,0,102,110,0,
47,39,0,102,110,0,
47,39,0,101,109,0,
47,39,0,101,109,0,
47,39,0,100,108,0,
46,39,0,99,108,0,
47,39,0,99,107,0,
46,38,0,99,107,0,
46,38,0,98,106,0,
45,38,0,98,105,0,
46,38,0,129,105,0,
45,37,0,128,105,0,
45,37,0,127,103,1,
45,37,0,127,103,0,
83,37,0,126,103,0,
83,37,0,125,103,0,
82,36,0,125,103,0,
82,39,0,124,102,0,
82,39,0,123,101,0,
81,39,1,123,101,0,
81,38,0,122,100,0,
80,38,0,121,100,0,
79,38,0,121,100,0,
79,38,0,120,99,1,
79,37,0,120,99,0,
78,37,0,120,98,0,
78,37,0,118,98,0,
78,37,0,118,97,0,
77,37,0,118,96,0,
77,36,0,117,97,0,
77,36,0,116,96,0,
76,36,0,115,96,0,
76,35,0,115,95,0,
76,35,0,115,95,0,
75,35,1,114,94,0,
75,35,0,114,94,0,
75,35,0,113,94,1,
74,35,0,132,129,1,
74,35,0,202,135,0,
73,35,1,200,134,1,
73,35,0,199,133,0,
73,34,0,198,132,0,
71,34,0,196,131,0,
71,34,0,195,131,0,
71,34,0,195,130,0,
71,33,0,193,130,0,
71,33,0,193,129,1,
71,33,0,192,127,0,
70,33,0,191,127,0,
70,33,0,189,127,0,
70,32,0,188,127,0,
69,32,0,188,126,0,
69,32,0,187,125,0,
68,31,0,186,124,0,
68,31,0,185,124,0,
67,31,0,184,123,0,
67,31,0,184,123,0,
67,31,0,182,121,0,
67,31,0,182,121,0,
67,31,0,180,121,0,
67,31,0,179,120,0,
66,31,0,179,120,0,
66,31,0,178,119,0,
65,30,0,177,118,0,
65,30,0,176,118,0,
64,30,0,176,117,0,
64,30,0,175,117,1,
63,30,0,174,116,0,
63,29,0,173,115,0,
63,30,0,173,115,0,
63,29,0,172,114,0,
63,29,0,171,114,0,
62,29,0,170,113,0,
62,29,0,169,113,0,
62,29,0,167,113,0,
62,28,0,167,112,0,
61,37,0,167,112,0,
61,39,1,167,111,0,
61,38,0,166,111,0,
60,38,0,165,110,0,
60,38,1,164,109,0,
60,37,0,163,109,0,
59,37,0,163,108,0,
59,37,0,162,108,0,
59,37,0,161,107,0,
59,37,0,161,107,0,
59,36,1,159,106,0,
59,36,0,159,106,0,
58,36,0,158,105,0,
58,35,1,157,105,0,
57,35,1,157,103,0,
57,35,0,156,103,0,
57,35,0,156,103,0,
57,35,0,155,103,0,
56,34,0,154,102,0,
56,34,0,153,102,0,
56,34,0,153,102,0,
56,34,0,152,101,0,
56,34,0,152,101,0,
56,34,1,151,100,0,
56,33,0,150,99,0,
55,33,0,149,99,0,
56,33,0,149,99,0,
55,33,0,148,98,0,
55,33,0,147,98,0,
55,33,0,147,97,0,
54,32,0,146,97,0,
54,32,0,146,97,0,
54,32,0,145,96,0,
53,31,0,145,96,0,
53,31,0,143,96,0,
53,31,0,143,95,0,
52,31,0,143,94,0,
52,31,0,142,94,0,
51,31,0,142,94,0,
52,31,0,141,93,0,
51,31,0,140,93,0,
51,30,0,140,93,0,
51,30,0,140,92,1,
51,30,0,139,92,1,
50,30,0,139,92,0,
50,30,0,138,91,0,
50,30,0,137,91,0,
50,30,0,136,90,0,
50,29,0,135,89,0,
49,29,0,135,89,0,
49,29,0,135,89,0,
49,29,0,134,88,0,
49,29,0,134,88,0,
48,29,0,133,88,0,
48,29,0,133,87,0,
48,29,0,132,88,0,
48,28,0,131,87,0,
47,28,0,131,87,0,
62,28,0,131,86,0,
74,28,0,131,86,0,
74,28,0,129,85,0,
73,28,0,129,85,0,
73,27,0,129,84,0,
73,27,1,128,83,0,
71,27,0,127,83,0,
71,27,0,127,83,1,
71,27,0,127,83,0,
71,26,0,126,82,0,
71,27,0,125,83,0,
71,26,0,125,82,0,
70,26,0,124,81,0,
70,26,0,124,81,0,
70,26,0,123,81,1,
69,26,0,123,81,0,
69,25,0,123,80,0,
68,26,1,122,79,0,
68,39,0,121,79,0,
67,39,0,121,79,0,
67,39,0,121,79,0,
67,39,0,120,79,0,
67,38,0,120,78,0,
66,38,0,120,78,0,
66,38,0,119,77,0,
78,38,0,118,77,0,
78,37,0,118,77,0,
77,38,0,117,76,0,
76,37,0,117,76,0,
76,37,0,116,76,1,
76,37,0,116,76,0,
75,37,0,115,76,0,
75,37,0,115,75,0,
74,36,1,114,74,0,
74,36,0,114,74,0,
73,35,0,113,74,1,
74,35,0,113,74,0,
73,35,0,113,73,0,
73,35,0,112,73,1,
73,35,1,112,73,0,
71,35,0,111,73,0,
71,35,0,111,71,0,
71,35,0,110,71,0,
71,39,0,110,71,0,
70,39,0,110,71,0,
70,39,0,109,71,0,
69,39,0,109,71,0,
70,39,0,109,70,0,
70,39,0,108,70,0,
69,38,0,108,70,0,
69,38,0,108,70,1,
93,38,0,107,69,0,
93,38,0,106,69,0,
92,37,0,106,69,0,
92,37,0,105,68,0,
91,37,0,105,68,0,
91,37,0,105,68,0,
90,37,0,103,67,0,
89,36,0,103,67,0,
89,36,0,103,67,0,
89,36,0,103,67,0,
88,36,0,102,66,0,
88,35,0,102,66,0,
88,35,0,102,66,0,
88,35,0,101,65,0,
87,35,0,101,66,0,
86,35,0,100,66,1,
86,35,0,100,65,0,
85,35,0,99,65,1,
84,35,0,99,65,0,
85,34,1,99,64,0,
84,34,0,99,64,0,
83,34,1,99,63,0,
83,33,0,98,63,0,
83,33,1,98,63,0,
83,33,0,98,63,1,
82,33,0,97,63,0,
82,33,0,97,62,0,
82,33,0,96,62,0,
81,33,0,96,62,0,
80,33,0,96,62,0,
80,32,0,95,62,0,
80,32,0,95,61,0,
79,31,0,95,61,0,
79,31,0,94,61,0,
79,31,0,94,60,0,
79,31,0,94,60,0,
78,31,0,93,60,0,
83,31,0,93,60,0,
83,31,0,93,59,1,
83,31,0,92,59,0,
82,31,0,92,59,0,
81,30,0,91,59,0,
81,30,0,91,59,0,
81,30,1,90,58,0,
80,30,0,90,58,0,
79,30,0,90,58,0,
79,30,0,89,57,0,
79,29,0,89,57,1,
79,29,0,89,57,1,
79,29,0,89,57,0,
79,29,0,89,57,0,
79,29,0,88,57,0,
79,29,0,88,56,0,
79,29,0,88,56,0,
78,29,0,88,56,1,
78,29,0,87,56,0,
78,29,0,86,56,0,
77,28,0,86,55,0,
77,28,0,86,55,0,
76,28,0,86,55,0,
76,28,0,85,54,0,
76,28,1,85,54,0,
76,28,0,84,54,0,
75,27,0,84,54,0,
103,41,1,83,54,0,
103,41,0,83,53,0,
102,55,1,83,53,1,
102,109,0,83,53,0,
101,107,0,82,52,0,
100,106,0,82,52,0,
99,105,0,82,51,0,
99,105,0,82,51,0,
99,104,0,81,51,0,
98,103,0,81,51,0,
98,103,0,81,51,0,
97,103,0,80,51,0,
97,102,0,80,51,0,
96,102,0,80,92,0,
96,101,0,115,92,0,
96,101,0,114,91,0,
95,100,0,113,89,0,
95,99,0,112,89,0,
94,99,0,112,89,1,
94,98,0,111,88,0,
93,98,0,111,88,0,
92,98,0,110,88,0,
92,97,0,110,87,1,
92,96,0,110,87,0,
92,96,0,109,86,0,
91,96,0,108,86,0,
90,95,0,108,85,0,
90,94,0,107,85,0,
89,94,0,107,84,0,
89,94,0,106,84,0,
89,94,1,106,83,0,
89,94,1,105,83,0,
88,93,0,105,83,0,
88,93,0,103,82,0,
87,92,0,103,82,0,
87,92,0,103,82,1,
86,92,0,103,81,0,
86,91,0,103,81,0,
85,91,1,102,80,0,
85,90,0,102,80,0,
85,89,0,101,79,0,
85,89,0,101,79,0,
84,89,0,100,79,0,
83,88,0,100,79,0,
83,88,0,99,78,0,
83,88,0,99,78,0,
82,88,0,98,77,0,
86,86,0,98,77,0,
86,86,0,98,77,0,
85,86,0,98,77,0,
85,86,0,97,76,0,
85,85,0,96,76,0,
84,84,0,96,76,0,
84,85,0,96,76,0,
83,84,0,95,75,0,
83,83,0,95,75,0,
82,83,1,95,75,0,
83,83,0,94,74,0,
82,83,0,94,74,0,
81,82,0,94,73,0,
81,82,0,93,73,0,
81,82,0,93,73,0,
80,81,0,92,73,0,
79,81,0,92,72,0,
79,81,0,92,71,0,
79,80,0,92,71,0,
79,79,0,91,71,0,
78,79,0,91,71,0,
78,79,0,90,71,0,
78,79,0,90,70,0,
78,78,0,89,70,0,
77,78,0,100,69,0,
77,78,0,100,70,0,
76,77,0,99,69,0,
76,77,0,99,69,0,
77,77,0,99,68,0,
77,77,0,98,68,0,
76,76,0,98,68,0,
76,76,1,98,67,0,
76,76,0,97,67,0,
76,76,0,97,67,0,
75,75,0,96,67,0,
75,75,0,96,66,0,
75,74,0,95,66,0,
74,74,0,94,66,0,
74,73,0,94,65,0,
73,73,0,94,65,0,
73,73,0,94,67,0,
73,73,0,94,86,0,
73,71,1,93,85,0,
71,71,1,92,84,0,
71,71,0,92,84,0,
71,71,0,92,83,0,
71,71,0,92,83,0,
71,71,0,91,83,0,
71,70,0,90,82,0,
71,70,0,90,82,0,
70,70,0,89,82,0,
70,70,0,89,81,0,
70,70,0,89,83,0,
70,69,0,88,83,0,
70,69,1,88,83,1,
69,69,0,88,82,0,
69,68,0,88,82,1,
68,68,0,88,81,1,
68,67,0,87,81,0,
67,67,0,86,81,0,
67,83,0,86,80,0,
67,85,0,86,80,0,
67,85,0,85,79,0,
66,84,0,85,79,0,
66,84,0,85,79,0,
66,83,0,84,78,0,
66,83,0,83,78,0,
65,83,0,83,78,0,
82,83,0,83,78,0,
81,82,0,83,77,0,
81,82,0,82,77,0,
80,81,0,82,77,1,
80,81,0,82,76,1,
79,81,0,81,76,0,
79,80,1,81,76,0,
79,79,0,81,75,0,
79,79,0,81,75,0,
78,79,0,79,74,0,
78,79,0,79,75,0,
77,78,0,79,74,0,
79,78,0,79,73,0,
79,78,0,79,73,0,
79,77,0,79,73,0,
78,77,0,79,73,0,
78,77,0,78,73,0,
77,76,0,78,71,0,
77,76,0,78,71,0,
77,76,0,77,71,0,
76,75,0,77,71,0,
76,75,0,77,71,0,
76,75,0,76,71,0,
75,74,0,76,70,0,
75,74,0,76,71,0,
75,73,0,76,122,1,
74,73,0,75,121,1,
74,72,0,75,120,0,
74,71,0,75,119,0,
73,71,1,74,119,0,
73,71,0,74,118,0,
71,71,0,74,117,0,
71,71,0,73,117,1,
71,71,1,73,116,0,
71,71,0,73,115,0,
71,70,0,72,115,0,
71,70,0,71,114,0,
71,70,0,71,114,0,
70,69,0,71,114,0,
70,69,0,71,113,0,
69,68,0,71,112,0,
69,68,0,71,112,0,
69,68,0,71,112,0,
69,67,0,70,111,0,
68,67,0,70,110,0,
68,67,0,70,110,0,
68,66,0,70,109,0,
67,66,0,69,109,0,
67,66,0,69,108,0,
67,65,0,69,108,0,
67,65,0,68,107,0,
66,65,1,68,107,0,
66,65,0,68,105,0,
65,65,0,67,105,0,
65,64,0,67,105,0,
65,63,0,67,105,1,
65,63,0,67,103,0,
64,63,1,67,103,0,
63,63,0,66,103,0,
63,63,0,66,103,0,
63,63,1,66,102,0,
63,62,0,66,102,0,
63,62,0,65,101,1,
62,62,0,65,101,1,
62,61,0,65,101,0,
62,61,0,64,100,0,
62,61,0,65,99,0,
62,61,0,63,99,0,
61,60,0,63,99,0,
61,60,0,63,98,0,
61,60,0,63,98,0,
60,60,0,63,97,0,
60,59,0,63,97,0,
60,60,0,62,97,0,
60,59,1,62,96,0,
59,59,0,62,96,0,
59,58,0,62,96,0,
59,58,0,107,95,0,
59,58,0,108,95,0,
58,57,0,107,94,0,
58,57,0,106,94,0,
58,57,0,105,93,0,
57,57,0,105,93,0,
57,56,0,105,92,0,
57,56,0,103,92,0,
57,56,0,103,92,0,
57,56,0,103,91,0,
56,56,0,103,91,0,
56,56,0,102,91,0,
56,56,1,102,89,0,
55,55,0,101,89,0,
56,54,0,101,89,0,
56,55,0,100,89,0,
55,54,0,100,89,0,
55,54,0,99,88,1,
54,54,0,99,88,0,
54,53,0,99,87,0,
54,53,0,98,87,0,
54,53,0,97,87,0,
53,53,1,97,86,0,
53,52,1,97,86,0,
53,53,0,130,87,0,
53,52,0,128,86,0,
52,52,0,127,86,0,
52,52,0,127,86,0,
52,51,0,126,85,0,
52,51,0,126,85,0,
52,51,0,125,85,0,
51,51,0,124,84,1,
51,50,0,124,83,0,
51,50,0,123,83,0,
51,50,0,123,83,0,
50,50,0,122,83,0,
50,49,0,121,82,0,
50,49,0,121,82,0,
50,49,0,121,81,0,
49,63,0,120,81,0,
49,63,0,120,81,0,
49,63,0,119,80,0,
49,62,0,118,79,0,
49,62,1,117,79,0,
49,62,0,117,79,0,
48,61,0,117,79,0,
48,61,0,116,79,0,
48,61,0,115,78,0,
48,60,0,115,78,0,
47,60,0,115,78,0,
47,60,0,114,77,0,
47,60,0,113,77,0,
47,59,0,113,77,1,
46,59,0,113,76,0,
46,59,0,112,76,0,
46,59,0,112,76,0,
46,58,1,111,76,1,
45,58,0,110,75,0,
45,57,0,110,75,0,
45,57,0,110,74,0,
78,57,0,109,74,0,
80,57,0,109,73,0,
79,56,1,108,73,0,
79,56,0,108,73,0,
79,56,0,107,73,0,
79,56,0,107,71,0,
78,56,0,106,71,0,
78,55,0,106,71,0,
77,55,0,105,71,0,
77,55,0,105,71,0,
76,55,1,103,71,0,
76,54,0,103,71,1,
75,53,0,103,70,0,
75,53,0,103,70,0,
75,53,0,103,70,0,
75,53,0,102,69,0,
74,53,0,102,69,0,
74,52,0,101,69,0,
73,52,0,101,69,0,
73,51,0,101,68,0,
73,51,0,100,67,0,
72,51,0,100,67,0,
71,51,0,99,67,0,
71,51,0,99,67,0,
71,50,0,98,67,0,
71,51,0,98,66,0,
71,50,0,98,66,1,
70,50,0,97,66,0,
70,50,0,97,65,0,
70,49,0,96,65,0,
69,49,0,97,65,1,
69,58,0,96,65,0,
69,58,0,95,64,0,
68,57,0,95,64,0,
68,57,0,94,63,0,
67,57,0,94,63,0,
67,57,0,94,63,0,
67,56,0,93,63,0,
67,56,0,93,62,0,
81,56,0,93,63,0,
80,56,0,92,62,0,
79,56,0,92,62,0,
79,55,0,92,62,0,
79,55,0,91,62,0,
79,54,0,91,61,0,
78,54,0,91,61,0,
78,54,0,90,61,0,
77,54,0,90,60,0,
77,54,0,89,61,0,
77,53,0,89,60,0,
76,53,0,89,60,0,
77,53,0,88,60,0,
89,52,0,88,60,0,
89,52,0,88,59,0,
88,52,0,87,59,0,
88,52,0,87,59,0,
88,51,0,87,58,0,
87,51,0,86,58,0,
86,51,1,86,57,0,
86,51,0,86,57,0,
86,50,0,85,57,0,
85,50,0,85,57,0,
85,50,0,85,57,0,
84,50,0,90,79,0,
84,49,0,89,79,0,
83,49,0,89,79,1,
83,49,0,88,78,0,
83,48,0,88,78,0,
83,49,0,88,78,0,
82,49,0,88,77,0,
82,48,0,87,77,0,
81,48,0,91,77,0,
81,48,0,112,76,0,
81,48,0,110,76,0,
80,48,0,110,76,0,
80,48,0,110,75,0,
79,47,0,109,75,0,
79,47,0,108,74,0,
79,47,0,108,74,0,
79,47,0,107,73,0,
78,46,0,107,73,0,
78,46,0,106,73,0,
77,46,0,106,71,0,
77,45,0,105,71,0,
76,46,0,105,71,0,
76,45,0,103,71,0,
76,45,0,103,71,0,
76,45,0,103,71,0,
75,45,1,103,70,0,
75,45,0,103,70,0,
75,45,0,102,70,0,
74,44,0,102,70,0,
74,44,0,101,69,0,
74,44,0,101,69,0,
73,44,0,100,69,0,
73,43,0,99,68,0,
71,43,0,99,68,0,
71,43,0,99,67,0,
71,43,0,98,67,0,
71,43,0,98,67,0,
71,42,0,97,67,0,
71,42,0,97,66,0,
71,42,1,97,66,0,
71,42,1,97,66,0,
71,41,0,96,66,0,
71,42,0,96,65,0,
71,41,0,95,65,0,
70,41,0,95,65,0,
70,41,0,94,64,0,
70,41,0,94,63,0,
69,41,0,94,63,0,
69,39,0,93,63,0,
69,39,0,93,63,0,
68,39,0,93,63,0,
68,39,0,92,63,0,
67,39,0,92,62,0,
67,39,0,91,62,0,
67,39,0,91,62,0,
67,39,0,91,62,0,
67,39,0,90,62,0,
67,39,0,89,61,0,
66,39,0,89,60,0,
66,39,0,89,60,0,
66,38,0,89,60,0,
65,38,0,88,60,0,
65,38,0,88,60,0,
65,38,0,88,60,0,
64,38,0,88,59,0,
63,37,0,88,59,0,
64,37,0,86,59,0,
63,37,0,86,58,0,
63,37,0,86,58,1,
63,36,0,86,57,0,
63,37,0,85,57,0,
62,36,0,85,58,0,
62,36,0,84,57,0,
62,36,0,83,57,0,
62,35,0,83,56,0,
61,36,0,83,57,0,
61,36,0,83,56,0,
61,35,0,83,56,0,
61,35,0,83,56,0,
60,35,0,82,56,1,
60,35,0,82,56,0,
61,35,0,81,56,0,
60,91,0,81,55,0,
60,112,0,81,55,0,
60,111,0,80,54,0,
59,110,0,80,54,0,
59,110,0,79,54,0,
59,109,0,79,53,0,
59,108,0,79,53,0,
58,108,0,79,53,0,
58,107,0,78,53,0,
58,106,0,78,52,0,
57,106,0,78,52,0,
58,105,0,77,52,0,
58,105,0,77,51,1,
58,103,0,76,51,0,
58,103,0,76,51,0,
57,103,0,76,51,0,
57,103,0,76,51,0,
56,103,0,76,51,0,
57,102,0,75,50,0,
56,102,0,75,50,0,
56,101,0,75,50,0,
56,101,0,74,50,0,
56,100,0,73,49,0,
56,99,0,73,49,0,
55,99,0,74,49,0,
55,99,0,73,49,0,
55,98,0,72,49,0,
54,98,0,71,49,0,
54,98,0,71,48,0,
54,97,0,71,48,1,
54,97,0,71,48,0,
54,96,1,71,48,1,
53,96,0,71,47,0,
53,95,0,71,48,0,
53,95,0,130,99,0,
52,95,0,173,98,1,
52,94,1,171,98,0,
52,93,0,170,97,0,
51,93,0,169,97,0,
51,93,0,167,96,0,
51,92,0,167,96,0,
51,92,0,167,95,0,
51,91,0,166,95,0,
50,91,1,166,94,0,
50,91,0,164,94,0,
50,90,0,163,93,0,
50,89,0,163,93,0,
49,89,1,162,92,0,
49,89,0,161,92,0,
49,88,0,160,91,0,
49,88,0,159,91,0,
48,88,0,159,90,0,
48,88,0,158,91,0,
48,87,0,157,89,0,
48,87,0,157,89,0,
47,86,0,156,89,0,
48,85,0,156,88,0,
47,86,0,155,88,0,
47,85,0,153,88,1,
47,84,0,153,87,0,
47,84,0,152,87,0,
46,84,0,153,101,0,
46,83,1,153,100,0,
46,83,0,153,99,0,
46,82,0,152,99,0,
46,82,0,152,99,0,
45,82,0,151,98,0,
45,81,0,150,97,0,
45,81,0,150,97,0,
45,81,0,149,96,0,
44,80,0,148,96,0,
44,80,0,147,96,1,
44,79,0,147,95,0,
44,79,0,146,95,0,
44,79,0,146,94,0,
43,79,0,145,94,1,
43,78,0,144,93,0,
43,78,0,143,93,0,
43,77,0,143,92,0,
43,77,0,143,92,0,
42,77,0,142,92,0,
42,76,0,142,92,0,
42,76,0,141,91,0,
42,76,0,140,90,0,
42,75,0,140,90,0,
41,75,0,139,89,0,
41,75,0,139,89,0,
41,75,0,138,89,0,
41,74,0,137,88,0,
41,74,1,135,88,0,
40,73,0,135,87,0,
40,73,0,135,87,0,
39,73,0,135,87,0,
39,71,0,135,86,0,
39,71,0,134,86,0,
39,71,0,133,85,0,
39,71,0,133,85,0,
39,71,0,132,85,0,
39,71,0,131,84,0,
39,71,1,131,83,0,
39,70,0,130,83,0,
39,70,0,130,83,0,
38,70,0,130,83,0,
39,69,0,129,82,0,
38,69,0,128,82,0,
38,68,0,127,81,0,
38,68,0,127,81,0,
37,68,0,127,81,0,
37,68,0,126,80,0,
46,67,0,126,80,0,
46,67,0,125,79,0,
46,67,0,125,79,0,
45,67,1,124,79,0,
45,66,0,124,78,0,
45,66,1,123,78,0,
45,66,0,123,78,0,
45,65,1,122,78,0,
44,65,0,121,77,0,
44,65,0,121,77,0,
44,64,0,120,76,0,
44,64,0,120,76,0,
44,63,0,120,76,0,
44,63,0,119,75,1,
43,63,1,119,75,0,
43,63,1,118,75,0,
42,62,0,118,75,0,
42,62,0,117,74,0,
42,62,0,117,73,0,
42,62,0,116,73,0,
41,64,0,115,73,0,
41,64,0,115,73,0,
41,63,0,115,73,0,
41,63,0,114,71,0,
41,63,0,114,71,0,
40,63,0,113,71,0,
39,62,0,113,71,0,
40,62,0,113,71,0,
39,62,0,112,71,0,
39,61,1,112,70,0,
39,61,0,111,70,0,
39,61,0,111,70,0,
39,61,0,110,69,0,
39,60,0,110,69,1,
39,60,1,109,69,0,
39,60,1,109,68,0,
39,60,0,108,68,0,
39,59,0,108,86,0,
56,59,0,107,86,0,
64,59,0,107,85,0,
63,59,0,107,85,0,
63,58,0,106,84,0,
63,58,0,105,84,0,
62,58,0,105,83,0,
62,57,0,105,83,0,
62,57,0,103,83,0,
62,57,0,103,82,0,
61,57,0,103,82,0,
61,56,0,103,82,0,
61,56,0,103,88,0,
61,56,0,103,88,0,
61,56,0,102,87,0,
60,56,0,102,87,0,
60,55,0,101,86,0,
60,55,0,101,86,0,
59,55,0,101,85,0,
59,55,0,100,85,0,
59,54,0,99,84,1,
59,54,0,99,84,0,
58,54,0,99,83,0,
58,53,0,99,83,0,
75,54,0,98,83,0,
85,53,0,98,82,0,
83,53,0,97,82,0,
83,53,0,97,82,0,
83,53,0,97,81,0,
83,52,0,96,81,0,
83,52,0,96,80,0,
82,52,0,96,81,0,
81,53,0,95,79,0,
81,53,0,95,79,0,
80,53,0,95,79,0,
80,53,0,94,79,0,
80,52,0,94,78,0,
79,52,0,93,78,0,
79,51,0,101,78,0,
79,51,0,100,77,0,
78,51,0,99,77,0,
78,51,0,99,77,0,
78,51,0,99,77,0,
77,51,0,98,76,1,
77,51,0,98,76,0,
77,50,0,98,76,0,
76,50,0,97,76,0,
76,49,0,97,75,0,
76,49,0,96,74,0,
75,49,0,96,74,0,
75,49,0,95,74,0,
75,49,0,95,74,0,
74,49,0,94,73,0,
74,48,0,94,73,0,
74,48,1,94,73,0,
73,48,0,93,71,0,
73,48,0,93,71,0,
73,47,0,93,71,0,
71,47,0,92,71,0,
71,47,0,92,71,0,
71,47,0,92,71,0,
71,47,0,91,71,0,
71,46,0,91,70,0,
71,46,0,91,70,0,
70,46,0,90,70,0,
70,46,0,89,69,0,
70,46,0,89,69,0,
70,45,0,89,69,0,
69,45,0,89,69,0,
69,46,1,89,68,0,
69,45,0,88,67,0,
68,46,0,88,67,0,
67,46,0,87,67,0,
67,45,0,87,67,0,
67,45,0,87,67,0,
67,45,0,87,66,0,
67,44,0,86,66,0,
66,44,0,86,65,0,
66,44,0,86,65,0,
66,44,0,85,65,1,
65,44,0,85,65,0,
65,44,1,84,65,0,
65,44,0,84,64,0,
65,43,0,83,64,0,
64,43,0,83,63,0,
64,52,0,83,63,0,
63,56,0,83,63,0,
63,56,0,83,63,0,
63,56,0,82,63,0,
63,56,0,82,62,0,
63,56,0,82,62,0,
62,56,0,81,62,0,
62,55,0,81,62,0,
62,54,0,80,61,0,
62,54,0,80,61,0,
61,54,0,79,61,0,
61,54,0,79,61,0,
61,54,0,79,60,0,
60,53,0,79,60,0,
60,53,0,79,60,1,
60,53,0,79,59,0,
60,52,0,78,60,0,
60,52,0,78,59,0,
59,51,0,77,59,1,
62,52,0,78,59,0,
62,51,0,77,58,0,
62,51,0,77,58,0,
61,51,0,76,58,0,
61,78,0,77,58,0,
61,123,0,76,57,0,
60,121,0,75,57,0,
60,120,0,76,57,0,
60,120,0,75,56,0,
60,120,0,75,56,0,
60,119,0,75,56,0,
58,118,0,74,56,0,
59,117,1,74,56,0,
59,116,0,73,56,0,
58,116,0,73,55,0,
57,115,0,73,55,0,
57,115,0,73,55,1,
57,114,0,71,54,0,
57,114,0,71,54,0,
57,113,0,71,54,0,
57,113,0,71,53,0,
56,112,0,71,54,0,
56,111,0,71,53,0,
56,111,0,71,53,0,
56,111,0,71,53,0,
56,110,0,70,53,1,
55,109,0,70,51,0,
54,109,0,70,52,0,
55,108,0,69,51,0,
54,108,0,69,51,0,
54,107,0,69,51,0,
54,154,0,83,51,0,
54,152,0,174,51,0,
53,151,0,248,50,0,
53,150,0,243,50,0,
53,149,0,242,50,0,
52,148,0,240,50,0,
52,147,0,239,49,0,
51,147,0,238,49,0,
51,146,0,236,49,0,
51,145,0,235,49,0,
51,144,0,234,49,0,
51,143,0,231,48,0,
51,143,0,231,63,0,
50,142,0,230,156,0,
50,142,0,229,222,0,
50,141,0,228,219,0,
50,140,0,227,218,0,
49,139,0,226,217,0,
54,139,0,224,216,0,
54,137,0,224,214,1,
54,137,0,222,212,0,
53,137,0,221,211,0,
53,135,1,220,210,1,
53,135,0,219,209,0,
52,134,0,218,208,0,
52,134,0,217,207,0,
51,133,0,216,206,0,
51,132,0,215,205,0,
51,132,0,214,204,0,
51,131,0,213,203,0,
51,131,0,211,201,0,
51,130,1,210,199,0,
50,129,0,209,199,0,
50,128,0,208,199,0,
50,127,0,207,198,0,
49,127,0,206,196,0,
49,126,0,206,195,1,
49,126,0,204,194,0,
48,125,0,204,193,1,
48,124,0,202,192,0,
50,124,0,201,192,0,
56,124,1,199,190,0,
56,123,0,199,190,1,
55,122,0,199,188,0,
55,121,0,198,188,0,
55,121,0,197,187,0,
55,121,0,196,186,0,
54,120,0,195,185,0,
54,120,1,194,184,0,
53,119,0,193,183,0,
53,118,0,192,182,0,
53,118,0,192,182,0,
53,117,0,191,180,0,
52,116,0,190,180,1,
52,116,0,189,179,0,
51,115,1,188,178,1,
52,115,0,187,177,0,
51,114,0,187,176,0,
51,114,1,185,175,0,
51,113,1,184,175,0,
50,113,0,184,174,0,
50,112,0,183,173,1,
50,112,0,182,172,0,
50,111,0,181,171,0,
50,111,0,181,171,0,
49,110,1,179,169,0,
49,110,1,179,169,0,
49,109,0,178,167,0,
48,108,1,177,167,1,
48,108,0,176,166,0,
48,108,1,176,166,1,
47,107,0,175,165,1,
47,106,0,174,164,0,
47,106,1,173,163,0,
48,105,0,173,163,1,
48,105,1,172,162,0,
48,105,1,171,161,1,
47,103,1,170,159,0,
47,103,0,169,159,0,
47,103,1,168,159,0,
47,103,0,167,158,0,
47,102,0,167,157,1,
46,101,1,166,157,0,
46,101,1,166,156,0,
46,100,1,164,155,1,
46,99,1,164,154,0,
45,99,1,163,153,1,
45,99,1,163,153,0,
45,98,0,162,152,0,
45,98,1,161,152,1,
44,97,1,161,151,1,
44,97,1,159,150,1,
44,97,1,159,150,0,
43,96,1,159,149,1,
60,97,0,167,149,0,
60,97,1,199,203,1,
63,96,0,208,226,1,
63,96,1,207,224,1,
63,95,1,206,223,0,
63,96,0,204,221,0,
63,94,1,204,220,0,
62,94,1,203,219,0,
62,94,0,201,217,0,
62,93,1,201,216,1,
61,93,1,199,216,1,
61,92,0,199,215,1,
61,92,1,198,213,0,
60,92,1,197,212,0,
60,91,0,196,211,1,
60,91,1,195,210,1,
59,90,0,194,209,0,
59,89,1,193,207,0,
59,89,0,192,207,0,
59,89,0,191,206,1,
58,89,1,190,205,1,
58,88,1,190,204,1,
57,88,1,188,203,1,
57,88,1,188,201,0,
57,87,0,187,201,1,
57,87,1,186,199,0,
57,86,0,185,199,0,
56,85,1,184,198,0,
57,86,0,183,197,1,
56,85,1,183,196,1,
56,85,0,181,195,0,
56,84,0,181,194,0,
55,83,0,180,193,0,
55,83,1,179,192,1,
55,83,1,178,191,0,
55,83,0,178,191,0,
54,82,1,177,190,0,
60,82,0,176,189,0,
61,82,0,175,188,1,
62,81,0,175,187,1,
60,81,0,173,185,1,
60,80,0,173,185,1,
60,80,0,172,184,0,
60,79,1,171,184,0,
59,79,0,171,183,0,
59,79,1,169,181,1,
59,78,0,169,181,0,
59,78,1,167,180,0,
58,78,0,167,179,0,
58,77,1,167,179,1,
58,77,0,166,178,1,
57,77,0,166,177,0,
57,77,0,164,176,0,
57,76,0,164,176,1,
56,76,1,163,174,0,
56,76,0,163,174,1,
56,76,1,162,173,1,
56,75,1,161,172,1,
56,75,0,159,171,0,
56,74,0,159,171,1,
55,74,1,159,169,1,
54,73,0,158,169,0,
55,74,1,158,169,0,
54,73,1,157,167,1,
54,73,0,156,167,1,
53,73,0,156,166,1,
53,71,1,156,165,0,
53,71,0,155,164,1,
53,71,0,154,163,0,
52,71,1,153,163,1,
52,71,0,152,163,0,
52,70,0,152,161,0,
51,71,0,151,161,0,
51,70,0,151,160,1,
51,70,1,150,159,1,
51,69,1,149,159,0,
51,69,1,148,158,1,
50,69,1,148,157,1,
50,68,0,147,157,0,
50,68,1,146,156,0,
49,67,0,146,155,0,
49,67,0,145,155,0,
49,67,0,145,154,1,
49,67,1,144,153,0,
48,66,0,143,153,1,
49,66,0,175,152,0,
48,66,1,213,152,1,
48,66,0,211,151,1,
48,65,0,210,150,1,
48,65,0,209,149,1,
47,64,1,207,148,1,
47,64,1,207,148,0,
47,64,1,206,147,0,
46,63,1,205,147,1,
46,63,0,204,146,0,
46,63,0,203,146,0,
59,63,0,201,145,1,
57,63,1,199,144,0,
57,62,0,199,143,1,
57,62,1,199,143,0,
57,62,0,198,142,0,
56,62,0,197,142,0,
56,62,0,195,141,0,
56,61,1,195,141,0,
56,60,0,194,140,0,
55,61,0,193,140,1,
56,60,0,192,139,1,
55,60,0,192,138,0,
54,60,0,190,137,0,
75,60,0,190,137,0,
85,60,0,189,136,0,
85,59,0,188,135,1,
84,59,0,187,135,0,
83,58,0,186,135,0,
83,58,1,185,134,1,
83,58,0,184,134,0,
82,57,0,184,133,1,
82,57,1,182,132,1,
81,57,0,182,131,0,
81,57,0,181,131,1,
80,57,0,180,131,0,
79,56,0,179,130,0,
79,56,0,178,130,0,
79,56,0,178,129,1,
78,56,0,177,129,0,
78,55,0,176,127,0,
78,55,1,176,127,0,
77,55,0,175,127,0,
77,54,0,174,126,1,
76,54,0,173,126,0,
76,54,0,172,125,0,
76,54,0,171,125,0,
76,54,1,171,124,0,
75,53,0,170,124,0,
75,53,0,169,123,0,
74,99,0,167,122,1,
74,98,0,167,121,0,
74,97,0,167,122,0,
73,97,1,166,121,1,
73,96,1,166,120,1,
73,96,0,165,120,0,
71,95,1,164,119,1,
71,94,0,163,119,0,
71,94,0,162,119,0,
73,94,0,162,118,0,
79,93,0,162,118,0,
79,93,0,160,117,0,
