
33,19,15,39,38,15,

32,19,14,39,38,14,

33,19,15,39,38,14,

33,18,15,39,37,15,

31,18,15,39,37,15,

32,19,15,39,37,15,

31,18,15,39,37,15,

32,18,15,39,37,14,

31,19,14,39,37,14,

31,18,15,39,36,15,

31,18,15,39,37,14,

31,19,15,38,36,14,

31,18,14,38,36,15,

31,18,15,38,36,15,

31,18,15,38,35,14,

31,18,15,38,36,15,

31,17,14,38,35,15,

31,19,15,37,35,15,

31,18,14,38,35,15,

31,18,15,37,34,14,

30,18,15,37,35,14,

31,18,14,37,35,15,

30,18,15,37,35,15,

30,18,15,37,34,15,

30,18,14,37,35,14,

30,18,14,37,35,14,

30,18,14,37,35,14,

30,18,14,37,34,15,

30,17,15,36,34,15,

30,18,15,36,33,14,

30,17,14,36,34,15,

31,20,14,35,34,15,

31,20,15,35,33,15,

31,20,14,35,33,14,

30,19,14,35,33,15,

30,20,15,35,33,14,

31,19,14,35,33,15,

30,19,15,35,33,14,

30,20,14,35,33,15,

30,19,15,35,32,15,

30,19,15,34,31,15,

30,19,14,35,33,15,

30,19,15,34,31,15,

30,19,15,34,32,15,

30,19,15,34,31,14,

30,20,14,34,32,15,

30,20,15,34,31,14,

30,20,14,34,31,15,

29,20,15,34,31,14,

30,19,14,34,31,14,

29,19,15,34,31,14,

29,19,14,33,31,14,

29,19,15,33,31,15,

29,19,14,33,30,15,

29,19,15,33,31,15,

29,19,15,33,31,15,

29,19,15,33,32,15,

31,19,15,33,31,14,

30,19,14,33,31,14,

31,19,15,33,31,14,

31,19,15,33,31,14,

30,19,14,31,31,14,

30,19,15,32,31,15,

30,19,15,32,31,14,

30,19,14,32,31,14,

30,19,15,31,31,15,

30,19,14,31,31,15,

30,19,14,31,31,15,

30,19,14,31,30,15,

29,19,14,31,30,15,

29,19,14,31,30,14,

29,18,15,31,30,15,

29,19,15,31,30,14,

29,18,14,31,30,14,

29,18,14,31,30,15,

29,19,15,31,30,14,

29,19,14,31,29,15,

29,18,14,30,29,15,

30,19,15,39,30,14,

30,19,14,39,31,15,

34,19,14,39,31,14,

32,18,15,39,31,14,

32,18,14,39,30,14,

33,18,15,39,30,15,

33,19,15,39,30,14,

32,18,15,39,30,14,

32,18,15,39,29,14,

32,17,14,39,30,15,

32,18,15,38,29,15,

31,19,14,38,29,15,

33,18,15,38,29,15,

34,19,15,39,30,14,

34,25,15,37,29,15,

34,24,14,37,29,15,

34,24,15,45,29,15,

34,24,15,45,29,15,

33,24,15,45,28,15,

33,24,15,44,29,14,

33,24,15,44,29,14,

33,24,14,44,28,15,

33,24,15,43,28,15,

33,24,14,44,29,14,

32,24,15,43,29,15,

33,24,15,44,28,14,

33,24,14,43,28,15,

32,24,14,42,28,14,

32,24,15,43,28,14,

31,24,14,42,28,14,

31,24,14,43,28,15,

31,24,14,42,27,14,

32,24,15,41,27,15,

31,23,15,41,27,14,

31,23,14,41,27,14,

31,24,14,41,27,15,

32,23,14,41,27,14,

31,23,15,41,27,15,

31,23,15,39,26,15,

31,24,15,41,27,14,

31,24,15,40,27,14,

31,24,14,39,27,15,

31,23,15,39,26,14,

31,24,15,39,26,15,

30,22,14,39,26,15,

30,23,14,39,26,14,

30,23,15,39,26,15,

43,22,15,39,28,15,

42,23,14,39,27,15,

43,22,15,39,28,14,

43,23,14,39,27,14,

43,22,15,39,27,14,

42,22,15,39,27,14,

42,22,14,39,27,15,

41,22,14,38,27,14,

41,22,14,39,27,15,

41,22,15,38,27,15,

41,22,15,38,27,15,

40,22,15,38,26,15,

41,22,14,38,27,15,

41,22,14,38,26,15,

42,24,15,37,27,14,

42,24,15,38,26,15,

41,24,14,37,26,14,

41,24,15,37,26,14,

41,24,14,37,27,14,

41,24,14,37,25,14,

41,24,15,36,25,15,

41,24,15,36,25,15,

40,24,15,36,26,14,

39,24,14,37,25,15,

39,24,14,36,25,15,

39,24,15,36,26,14,

39,23,15,35,26,14,

39,24,15,35,25,15,

39,24,14,35,26,14,

39,24,15,35,25,15,

39,24,15,35,25,15,

38,24,15,35,25,14,

39,23,15,35,25,15,

39,24,15,35,35,14,

39,23,14,35,39,14,

39,23,15,35,39,15,

38,23,15,34,39,15,

38,24,15,35,39,15,

38,22,15,35,39,15,

38,23,15,35,38,14,

38,23,14,34,39,15,

37,22,15,34,39,14,

37,22,14,35,39,14,

37,22,15,34,38,15,

37,23,14,34,38,14,

37,23,15,34,38,15,

37,22,14,34,38,15,

37,22,15,33,37,15,

37,22,15,34,37,15,

35,22,15,33,37,14,

36,22,14,33,37,15,

35,22,14,33,36,15,

36,22,15,33,37,15,

36,22,14,33,36,14,

35,22,15,33,37,15,

35,21,15,33,36,15,

35,21,15,32,36,14,

35,21,14,32,36,14,

35,21,15,32,36,15,

35,22,15,31,35,15,

35,21,15,31,36,15,

35,21,15,31,36,15,

34,21,14,31,35,15,

35,21,14,32,35,15,

34,21,15,31,35,14,

34,21,15,32,34,14,

33,21,15,32,34,15,

34,21,15,31,35,15,

34,20,15,31,34,15,

33,20,15,31,34,15,

33,21,15,31,34,15,

34,20,15,31,34,15,

34,21,15,31,34,15,

34,22,15,31,33,15,

33,22,14,31,33,15,

33,21,14,31,33,14,

33,22,15,30,33,14,

33,21,15,30,33,15,

33,21,15,31,33,15,

33,21,15,31,33,15,

32,20,14,30,33,14,

33,20,14,30,33,14,

31,21,15,30,32,14,

32,21,15,30,32,14,

31,21,15,30,32,15,

33,34,15,38,34,14,

32,65,15,37,33,14,

31,63,14,36,31,15,

31,63,15,36,31,15,

31,63,15,37,31,15,

31,63,15,35,31,15,

31,63,14,36,31,14,

31,62,15,36,31,15,

31,62,14,35,31,14,

31,62,15,35,31,15,

31,61,15,35,31,15,

32,62,15,47,31,15,

31,61,15,57,31,15,

31,60,15,57,31,15,

31,60,15,57,31,15,

31,60,15,56,31,15,

31,60,15,56,31,15,

31,59,14,56,31,15,

31,59,15,56,30,14,

31,58,15,56,31,15,

30,59,15,56,30,15,

31,58,15,55,30,15,

30,58,14,55,31,15,

30,58,15,55,30,15,

30,58,15,55,30,15,

31,57,15,54,30,15,

30,57,15,71,29,15,

30,57,15,71,29,15,

30,57,14,71,29,14,

29,57,15,71,29,15,

30,56,14,70,29,14,

30,56,15,70,29,15,

29,56,15,69,28,15,

29,56,15,69,29,15,

30,55,14,68,28,14,

30,56,15,68,30,16,

29,55,15,85,29,15,

29,56,15,84,29,15,

29,54,15,83,29,14,

29,54,15,83,29,15,

28,54,15,83,28,15,

29,53,15,82,29,15,

29,53,14,82,28,15,

29,53,15,82,30,15,

29,54,15,82,43,15,

38,54,16,81,43,15,

41,58,15,81,43,15,

41,57,15,81,43,15,

39,57,15,79,42,15,

40,56,15,79,41,14,

41,56,15,79,41,15,

39,56,15,79,41,15,

39,55,15,78,41,15,

39,56,15,78,41,15,

39,56,15,78,40,15,

39,56,15,77,41,15,

39,56,15,77,41,15,

41,55,15,77,40,15,

41,55,15,77,40,14,

41,54,15,76,39,15,

39,54,15,76,39,15,

39,54,15,76,39,15,

39,54,16,76,39,14,

39,54,15,75,39,15,

39,53,15,75,39,15,

39,53,15,74,39,15,

39,53,15,74,39,15,

39,52,15,73,38,15,

39,55,15,74,39,15,

39,55,15,74,39,15,

39,55,15,73,39,15,

39,55,15,73,38,15,

38,54,15,73,38,15,

38,54,15,71,38,15,

37,53,14,71,38,15,

38,54,15,71,39,15,

37,53,15,82,37,15,

38,54,15,81,37,15,

37,53,15,81,38,15,

37,52,15,81,37,15,

37,52,15,79,38,15,

37,52,15,79,37,16,

37,52,15,79,37,14,

37,52,15,79,37,14,

36,52,15,79,37,15,

36,51,15,78,36,15,

36,51,15,78,36,15,

36,51,15,77,36,15,

35,50,15,77,35,15,

35,51,15,77,35,15,

35,51,15,77,36,15,

46,51,15,77,36,15,

46,50,16,76,36,15,

45,49,15,75,35,16,

46,50,16,77,36,15,

46,49,15,76,35,15,

45,49,15,76,35,14,

45,49,15,76,35,15,

44,49,15,75,35,15,

45,49,15,75,35,16,

44,49,15,86,34,15,

44,48,15,85,34,15,

44,48,16,85,34,15,

52,48,15,84,35,15,

56,48,15,83,34,15,

54,48,16,83,34,15,

54,48,15,83,34,14,

54,47,15,82,34,15,

54,47,15,83,34,15,

54,47,15,82,33,15,

53,46,15,82,34,15,

53,46,15,81,33,15,

53,46,15,81,33,15,

52,46,15,80,33,15,

52,46,15,79,33,15,

52,46,15,79,34,15,

51,45,15,79,33,15,

51,45,15,79,33,15,

51,45,15,79,33,15,

52,45,15,79,33,15,

51,45,15,78,32,15,

51,45,15,77,32,15,

51,44,15,78,33,15,

51,44,15,77,32,15,

50,44,15,77,31,15,

50,43,15,76,32,15,

50,44,15,77,31,15,

50,43,15,76,31,15,

50,44,15,76,32,15,

49,43,15,76,31,15,

49,43,15,75,32,16,

49,59,15,75,31,15,

48,57,15,74,31,15,

48,57,15,74,31,15,

48,57,15,73,31,15,

48,57,15,73,31,15,

48,56,15,73,31,15,

76,65,15,73,31,15,

79,73,15,71,31,15,

78,73,15,73,30,15,

78,73,15,72,30,15,

78,71,15,71,30,15,

77,71,15,71,31,15,

77,71,15,71,30,15,

76,71,15,71,30,15,

76,71,15,71,30,15,

77,71,15,71,30,15,

75,70,15,70,29,15,

75,70,15,70,29,15,

75,70,15,70,30,15,

75,69,16,69,31,15,

74,69,15,69,31,15,

74,69,15,69,30,15,

73,69,15,68,31,15,

73,68,15,67,31,15,

73,67,15,68,31,15,

71,67,15,67,31,15,

73,67,15,68,30,15,

73,67,15,67,30,15,

71,67,16,67,30,15,

71,67,15,67,30,15,

71,67,15,67,31,16,

71,146,16,66,30,15,

71,144,15,66,30,15,

71,142,15,66,30,15,

70,142,15,65,30,15,

70,140,15,65,30,15,

70,140,15,65,30,15,

70,140,15,64,30,15,

69,139,15,63,29,15,

69,138,15,64,33,15,

69,137,15,64,34,15,

69,136,15,63,33,15,

68,135,15,63,33,15,

67,135,15,63,33,16,

68,135,15,63,33,15,

67,133,15,62,33,15,

67,133,15,62,33,15,

67,133,15,62,32,15,

66,131,15,61,33,15,

66,131,15,62,31,15,

66,131,15,61,31,15,

66,130,15,61,31,15,

66,129,15,61,33,15,

87,129,15,60,31,16,

86,127,15,61,31,15,

85,127,15,61,31,15,

85,146,15,59,31,15,

85,144,15,60,31,15,

84,143,15,59,31,16,

84,143,15,59,31,15,

83,142,15,59,31,15,

83,141,15,59,31,15,

83,141,15,59,31,15,

83,140,16,58,52,15,

91,140,15,58,53,16,

92,139,15,58,61,15,

92,139,15,57,60,15,

91,137,15,57,60,16,

90,137,15,56,59,15,

89,135,15,57,59,15,

90,135,15,56,58,15,

89,135,16,56,59,15,

89,134,15,56,57,15,

88,134,15,56,58,15,

88,133,16,56,57,15,

88,132,15,56,57,15,

87,131,15,55,57,15,

106,131,16,56,57,16,

115,130,15,55,57,15,

115,129,15,54,56,16,

114,128,15,55,56,15,

114,128,15,54,56,16,

113,127,15,54,56,16,

112,127,15,54,55,15,

111,126,15,53,55,15,

111,126,15,53,55,15,

110,125,16,53,54,15,

110,124,15,53,54,16,

109,124,15,52,54,15,

109,124,15,52,53,16,

108,123,15,51,54,16,

108,122,16,52,53,16,

107,122,15,51,53,15,

107,121,15,51,53,16,

107,121,16,51,52,15,

105,120,16,50,52,15,

105,120,16,51,53,16,

103,119,15,50,53,16,

103,118,15,50,52,15,

103,118,15,50,51,15,

103,118,15,50,51,15,

103,117,15,49,51,15,

102,117,15,49,51,15,

102,116,15,49,51,16,

101,116,15,49,51,15,

100,115,15,49,51,16,

100,114,15,49,50,15,

100,114,15,49,50,16,

99,114,15,48,50,15,

99,113,16,48,50,15,

99,113,15,48,50,15,

98,112,15,48,49,16,

98,111,15,48,50,15,

97,111,16,47,49,15,

97,110,15,47,49,15,

96,110,16,47,48,15,

96,109,15,47,48,15,

96,109,15,47,48,15,

95,109,15,46,48,15,

95,109,15,47,48,16,

95,108,15,55,48,16,

94,108,15,58,48,15,

94,106,15,57,48,15,

93,107,16,57,47,15,

93,106,15,56,48,15,

92,105,15,56,46,15,

92,105,15,57,47,15,

92,105,15,56,46,15,

91,104,15,55,46,15,

90,103,15,56,46,15,

90,103,15,55,45,15,

92,103,15,55,46,15,

92,102,15,55,45,15,

91,102,16,54,45,15,

90,101,15,54,45,15,

89,101,15,54,45,15,

89,101,15,54,44,15,

89,100,15,54,44,15,

89,99,15,53,44,15,

88,99,15,53,44,15,

88,98,15,53,44,15,

88,98,16,52,44,15,

88,98,16,53,44,16,

88,98,15,52,43,16,

87,97,15,52,44,15,

87,97,16,52,43,15,

86,97,15,51,43,15,

86,96,15,51,44,15,

85,95,16,51,43,15,

86,96,16,51,43,15,

85,95,15,51,42,16,

84,95,15,51,42,15,

85,94,15,51,41,15,

84,94,15,50,42,15,

83,93,16,51,42,16,

83,93,15,50,42,15,

83,92,15,50,41,15,

83,93,16,58,42,16,

83,92,15,58,41,15,

82,92,15,57,41,15,

81,92,15,57,41,15,

81,91,15,56,41,15,

81,91,15,57,41,15,

81,90,15,57,39,15,

80,90,15,56,39,15,

80,89,15,56,39,15,

82,89,15,56,39,15,

82,89,15,56,39,15,

81,88,15,56,39,15,

81,88,16,56,39,15,

80,88,15,55,39,15,

79,88,16,55,39,15,

79,88,16,54,39,15,

79,87,15,54,39,15,

79,86,15,54,39,16,

79,86,15,54,38,15,

78,85,15,54,42,16,

79,85,16,54,44,16,

78,85,16,53,44,15,

78,85,15,52,44,15,

78,84,16,53,44,15,

77,83,15,53,44,15,

77,83,15,52,44,15,

76,83,15,51,43,15,

76,83,15,51,43,14,

76,82,15,51,43,15,

76,82,15,51,43,15,

75,82,15,51,42,15,

77,82,16,51,42,15,

88,82,15,51,43,15,

89,81,15,50,43,15,

88,81,15,50,42,15,

88,80,15,50,41,16,

87,79,15,50,42,15,

87,80,15,50,41,15,

87,79,15,49,41,15,

87,79,15,49,41,15,

85,79,15,49,41,14,

86,78,15,49,41,16,

85,79,15,49,41,15,

86,78,16,48,42,15,

85,78,15,49,42,15,

83,77,15,48,42,15,

83,77,15,48,42,15,

83,77,15,48,41,15,

82,76,15,48,41,15,

82,76,15,47,41,15,

82,76,16,47,41,15,

81,76,15,47,39,14,

81,75,15,46,39,15,

81,75,15,46,39,15,

80,75,15,47,40,15,

80,74,15,47,44,16,

79,74,15,47,64,15,

79,74,15,47,64,15,

79,74,15,47,63,15,

79,73,15,47,63,16,

79,73,15,47,63,15,

78,72,15,46,62,15,

78,72,15,46,62,15,

77,72,15,46,62,15,

77,71,15,46,62,15,

77,71,15,46,63,16,

77,71,15,47,67,15,

77,71,15,46,67,15,

85,71,15,46,66,15,

85,71,15,45,65,15,

84,71,15,45,65,15,

83,70,15,46,64,16,

83,70,15,45,65,15,

83,69,15,45,65,14,

83,70,15,45,63,15,

82,69,15,45,63,15,

82,69,15,45,63,15,

82,69,15,45,63,16,

81,69,15,45,69,16,

81,67,15,44,70,15,

81,67,15,44,70,15,

80,67,15,44,69,16,

79,67,14,44,69,15,

79,67,15,44,69,15,

79,67,15,43,67,15,

79,67,15,44,67,15,

78,66,15,43,68,15,

78,66,15,43,67,15,

78,66,15,43,67,15,

78,66,15,42,66,15,

81,66,16,43,67,15,

102,66,15,42,65,15,

101,65,15,42,66,15,

101,65,15,42,66,15,

100,65,14,43,65,15,

100,65,15,70,65,15,

99,64,15,74,64,15,

99,64,15,73,65,15,

98,64,15,71,64,15,

98,63,15,71,64,15,

97,63,15,72,63,16,

97,63,15,71,63,15,

97,62,15,71,63,16,

96,63,15,71,62,16,

96,63,15,71,63,15,

96,62,15,71,62,15,

95,62,15,70,62,15,

94,62,15,70,61,15,

94,61,14,70,62,15,

94,61,15,70,61,15,

93,61,15,69,61,15,

93,61,15,69,60,15,

93,61,15,68,61,15,

92,60,15,69,70,15,

92,61,15,68,76,15,

91,60,15,67,76,15,

91,60,15,67,76,15,

91,60,15,67,75,15,

90,60,15,67,75,15,

90,59,15,67,74,15,

89,59,15,66,73,15,

89,60,15,66,74,15,

89,59,15,66,73,15,

89,58,15,65,73,16,

88,59,15,66,73,15,

88,58,16,65,73,15,

91,58,15,65,72,15,

91,57,15,65,71,15,

91,76,15,64,71,15,

89,88,15,64,71,15,

89,88,15,63,71,15,

89,87,15,63,71,15,

89,87,15,63,71,16,

88,86,15,63,71,15,

88,85,15,63,70,15,

87,85,15,63,70,15,

88,85,15,62,70,16,

109,83,15,62,69,15,

109,84,16,62,69,15,

108,83,15,62,68,15,

108,83,15,61,67,16,

107,83,15,61,68,15,

105,82,15,61,67,15,

105,81,15,61,67,15,

105,81,15,62,68,15,

105,82,16,113,95,15,

103,81,15,114,117,15,

103,81,16,113,115,15,

103,79,15,113,115,15,

103,80,15,111,113,15,

102,79,16,112,113,15,

102,79,16,111,113,15,

101,78,15,110,111,15,

101,78,15,109,111,15,

100,78,16,108,111,15,

99,78,16,108,110,16,

99,77,15,108,109,16,

98,77,16,108,108,16,

99,76,15,110,108,15,

98,76,15,109,108,15,

97,76,15,109,107,15,

96,76,15,110,107,17,

97,149,15,108,106,15,

96,146,15,108,106,15,

96,145,15,107,103,16,

95,143,15,107,103,15,

101,143,16,107,105,15,

156,142,15,105,103,15,

167,142,17,107,105,17,

237,206,16,105,103,16,

234,204,15,105,102,16,

231,202,15,103,101,15,

231,201,15,103,101,15,

229,199,16,103,100,16,

227,199,16,103,99,15,

226,197,15,102,99,16,

225,195,16,102,98,15,

224,195,16,101,98,15,

223,193,16,102,99,16,

221,193,15,100,98,16,

220,192,15,99,96,16,

218,190,16,99,96,15,

217,189,15,99,96,16,

217,189,15,99,95,15,

216,188,16,98,96,15,

214,187,16,98,95,16,

213,186,15,97,94,15,

212,185,16,96,94,15,

211,184,16,96,93,16,

210,184,16,96,93,15,

209,182,15,95,92,15,

207,181,16,95,92,16,

207,181,15,94,92,16,

206,179,16,94,92,15,

204,178,15,94,92,15,

204,177,16,93,90,15,

202,176,15,93,90,16,

202,176,16,94,90,16,

201,175,15,103,89,16,

199,174,16,102,89,16,

198,173,15,102,89,15,

198,172,16,101,88,16,

197,172,16,100,88,15,

195,171,15,101,87,16,

195,169,15,99,86,15,

193,169,16,99,86,15,

193,167,16,99,86,16,

192,167,16,98,86,15,

191,167,16,99,85,15,

190,166,16,97,85,16,

190,165,15,97,85,15,

189,164,15,96,84,16,

188,163,15,96,84,15,

187,163,15,96,83,15,

187,162,15,96,83,15,

185,161,15,95,83,16,

185,161,15,94,83,15,

184,159,16,94,82,15,

183,159,16,93,82,15,

181,158,15,93,82,15,

181,158,15,93,81,15,

179,157,15,93,81,16,

179,156,16,92,81,16,

178,155,15,91,81,15,

177,155,16,91,79,15,

177,153,15,91,79,15,

175,152,16,91,80,16,

176,153,16,91,79,16,

175,152,17,91,79,16,

174,152,15,89,79,16,

173,152,17,89,79,15,

173,151,17,90,98,17,

173,151,17,89,125,16,

172,149,17,88,124,17,

170,147,17,88,123,17,

169,147,16,88,123,16,

167,147,16,87,122,16,

167,146,17,87,121,17,

167,146,17,86,120,17,

166,145,17,86,120,17,

166,143,18,86,120,17,

164,143,17,85,119,17,

164,143,17,85,119,18,

163,142,18,85,118,18,

162,142,17,84,117,18,

162,140,18,83,117,18,

161,140,18,83,115,18,

160,139,18,83,115,18,

159,139,18,83,115,19,

159,139,19,82,114,19,

158,137,19,82,113,19,

157,137,18,82,113,19,

157,137,19,82,112,19,

156,135,20,81,112,19,

155,135,19,80,112,19,

155,135,19,79,110,18,

152,134,18,79,109,18,

152,133,19,78,109,19,

152,132,18,78,108,19,

151,131,19,77,108,18,

150,131,19,77,107,18,

149,130,19,77,107,18,

148,130,19,77,106,19,

148,129,18,77,105,18,

147,129,19,99,106,19,

147,127,18,167,105,18,

146,127,18,165,103,18,

145,126,18,163,103,18,

145,126,18,162,103,18,

143,126,18,161,102,18,

143,125,18,161,102,18,

142,124,18,159,102,18,

142,123,18,159,101,18,

141,123,18,158,100,18,

140,123,17,157,99,18,

140,122,18,156,99,18,

139,121,18,155,99,18,

139,121,17,154,99,18,

138,120,18,154,98,17,

137,120,18,153,98,18,

137,120,17,152,98,18,

136,119,17,151,97,17,

135,118,17,151,97,18,

135,118,18,150,96,17,

135,117,18,149,96,17,

134,116,17,148,96,17,

133,116,17,147,95,17,

132,115,17,147,94,17,

132,115,17,146,94,17,

131,114,18,145,93,17,

131,114,18,145,94,17,

130,113,17,143,94,18,

130,113,17,143,94,17,

129,113,18,142,94,17,

129,112,17,142,94,17,

128,111,17,141,93,17,

127,112,17,141,93,17,

127,111,17,140,92,16,

127,110,17,139,92,16,

126,109,17,139,91,16,

126,109,17,138,91,17,

125,109,17,137,90,17,

124,108,17,137,89,17,

124,108,17,135,89,17,

123,107,17,135,89,17,

123,107,17,135,89,17,

122,106,17,134,88,17,

122,106,17,134,88,17,

121,105,17,133,88,17,

121,104,16,131,87,16,

120,104,17,131,86,17,

120,103,16,131,87,16,

119,103,17,130,87,16,

118,103,16,130,86,17,

118,102,17,129,89,17,

117,102,16,128,88,17,

116,102,17,128,88,17,

116,101,17,127,87,17,

115,100,16,127,87,17,

115,101,16,126,86,17,

115,99,16,126,86,17,

114,99,16,125,86,17,

114,99,16,124,86,17,

135,99,17,124,85,17,

133,97,16,124,84,17,

133,99,17,123,85,16,

131,127,16,122,83,16,

131,127,17,122,83,16,

130,126,16,121,83,16,

130,125,16,120,82,16,

129,125,16,120,82,15,

128,124,16,120,82,17,

127,123,17,120,82,16,

127,123,17,119,82,16,

136,122,16,118,81,16,

135,121,16,118,81,16,

135,120,17,117,81,16,

134,120,16,117,80,16,

133,119,16,115,79,16,

133,119,16,115,79,17,

132,118,16,114,79,16,

131,117,16,114,79,16,

131,117,17,113,78,16,

130,115,15,113,78,16,

131,117,17,114,135,16,

128,115,16,112,135,15,

127,114,16,112,133,16,

127,114,16,111,132,15,

126,113,16,111,131,16,

126,113,16,110,131,15,

125,112,16,110,130,16,

125,112,17,109,129,16,

124,111,15,109,128,15,

124,111,16,108,127,16,

123,110,16,108,126,15,

123,109,17,108,126,16,

121,109,15,107,126,16,

121,108,16,107,125,15,

120,108,16,105,124,15,

120,107,16,105,124,16,

119,106,16,105,123,16,

119,106,15,103,122,15,

118,105,16,103,121,16,

118,106,16,103,214,17,

117,104,16,103,231,17,

117,103,16,103,229,16,

116,103,15,102,227,15,

115,103,16,102,225,15,

114,102,15,101,224,15,

114,102,15,101,223,15,

113,101,15,100,221,16,

113,101,16,99,220,15,

112,100,15,99,218,16,

112,101,16,99,219,16,

125,99,16,99,216,15,

124,99,16,98,216,15,

123,98,15,98,215,16,

123,99,16,97,213,15,

122,97,16,96,211,15,

121,97,16,97,211,16,

121,97,16,96,210,15,

121,96,15,96,209,15,

120,96,16,95,207,16,

120,95,15,95,206,15,

119,96,16,95,205,15,

118,95,16,94,204,16,

117,95,16,94,204,15,

117,94,16,94,203,16,

117,94,16,94,202,16,

116,142,15,92,199,16,

115,140,15,92,199,15,

114,139,15,91,198,15,

114,138,16,91,197,15,

114,137,16,91,196,15,

113,135,15,91,195,16,

114,135,16,91,195,15,

178,135,15,89,193,16,

177,135,15,89,192,15,

175,134,15,98,192,16,

175,132,15,116,191,16,

174,132,15,116,189,16,

172,131,15,115,188,15,

171,131,15,114,187,15,

171,130,15,114,187,17,

246,143,15,113,186,16,

243,158,15,112,184,15,

241,157,15,111,184,16,

240,156,16,112,184,15,

239,155,16,112,182,16,

237,154,16,111,182,16,

236,153,15,110,181,16,

235,153,15,110,180,16,

233,152,17,109,179,16,

231,152,18,110,243,17,

231,152,16,109,347,17,

229,150,17,108,342,16,

227,148,16,107,339,16,

227,148,17,107,336,16,

225,147,16,106,335,16,

224,147,16,105,332,17,

222,145,16,105,331,16,

222,144,17,105,327,17,

220,144,17,103,326,17,

219,143,17,103,324,16,

218,143,16,103,322,16,

216,142,16,102,319,17,

216,141,16,102,317,17,

214,140,17,102,316,17,

213,140,16,101,314,16,

211,139,17,100,312,17,

211,137,16,100,310,17,

209,137,17,99,308,17,

209,135,17,99,307,17,

207,135,17,98,305,17,

206,135,17,98,303,17,

205,135,17,97,302,17,

204,134,17,97,299,17,

203,134,17,97,297,17,

202,133,17,98,296,18,

201,131,17,111,295,17,

201,131,17,110,293,18,

199,131,17,110,291,17,

198,130,18,109,290,18,

197,129,17,108,288,17,

196,129,17,108,286,17,

195,127,17,107,285,17,

194,127,17,107,283,18,

193,127,18,106,281,18,

192,126,18,105,280,18,

191,125,18,105,279,18,

190,125,17,104,277,17,

189,124,17,103,275,18,

189,123,18,103,274,18,

188,151,18,103,274,19,

221,150,18,102,271,17,

220,149,18,102,270,18,

218,148,17,101,269,17,

217,147,17,101,267,18,

216,146,18,100,265,18,

215,145,18,99,263,17,

213,143,18,99,263,17,

211,143,18,99,262,18,

211,143,18,99,259,18,

210,142,18,98,259,18,

209,141,17,97,257,18,

207,140,17,97,255,18,

206,140,18,97,254,17,

206,139,18,96,253,18,

204,140,18,97,253,18,

204,139,18,96,251,19,

203,139,19,96,252,19,

203,138,19,158,249,19,

201,137,19,156,248,19,

199,135,18,155,246,19,

199,135,19,154,245,19,

198,135,19,153,244,19,

196,133,19,152,243,19,

195,133,19,152,241,19,

194,132,19,150,241,19,

193,131,20,150,239,20,

192,131,20,149,238,20,

192,131,21,149,238,22,

191,166,20,148,236,19,

190,164,21,147,234,21,

189,163,21,146,233,21,

187,163,21,145,231,21,

187,162,21,143,231,21,

185,160,21,144,230,21,

185,161,21,143,229,22,

184,159,22,143,227,21,

183,158,22,141,227,22,

182,157,22,141,225,22,

181,156,21,140,224,22,

180,156,22,140,223,22,

180,154,22,139,222,22,

178,153,22,138,220,22,

177,153,22,137,220,22,

176,152,22,135,219,22,

176,152,22,163,217,22,

176,151,23,162,216,22,

174,150,23,161,215,22,

173,149,24,159,214,22,

173,148,22,158,213,22,

174,148,22,159,213,23,

173,147,22,157,211,23,

172,146,22,156,210,22,

171,145,22,155,209,23,

170,144,22,155,207,22,

169,143,22,154,207,22,

167,143,22,153,206,22,

167,142,22,152,205,23,

167,145,23,152,204,23,

167,143,22,150,203,22,

165,143,22,150,202,22,

164,142,22,149,201,24,

163,141,22,149,199,22,

163,141,22,147,199,23,

162,140,22,147,199,23,

161,140,22,146,198,22,

160,139,22,146,196,22,

159,138,22,145,195,22,

159,135,22,144,194,22,

158,137,21,143,194,22,

158,135,22,142,193,22,

157,135,22,142,192,22,

156,134,22,141,192,21,

156,134,22,140,190,22,

155,133,21,139,188,21,

153,131,21,139,188,21,

153,131,20,137,186,21,

152,131,21,137,185,21,

152,130,20,135,185,21,

150,129,21,135,184,21,

150,127,20,135,184,20,

149,127,20,134,182,21,

148,127,21,134,182,20,

147,126,20,133,180,21,

147,126,20,133,180,20,

146,125,20,131,179,20,

146,125,20,131,178,20,

145,124,19,131,177,19,

143,123,19,130,176,19,

143,122,21,129,176,20,

162,123,22,130,177,21,

240,124,20,127,174,20,

239,123,19,127,174,19,

237,122,19,126,172,19,

235,121,20,126,172,20,

233,120,19,126,171,20,

231,120,19,125,170,19,

231,120,19,124,169,19,

230,119,19,124,168,19,

228,119,20,124,167,19,

227,118,19,122,167,19,

225,117,19,122,167,19,

224,117,19,121,166,19,

223,116,20,121,165,19,

222,115,19,120,165,19,

221,115,19,120,163,19,

219,114,19,119,162,19,

218,114,19,119,162,19,

217,113,18,118,161,19,

216,112,19,117,159,18,

216,153,19,117,159,19,

213,151,19,115,159,19,

212,153,19,115,159,19,

211,152,19,115,158,19,

210,151,19,115,156,19,

207,150,19,114,156,19,

207,148,18,113,156,18,

207,148,19,113,155,18,

205,147,18,113,154,19,

204,146,19,112,153,19,

203,146,19,112,152,19,

202,145,19,111,152,18,

201,143,18,110,152,19,

199,143,19,110,152,18,

199,142,19,109,150,19,

198,142,18,109,150,19,

197,141,18,108,149,18,

195,140,18,109,148,18,

195,139,18,108,147,19,

194,139,18,107,147,18,

193,138,18,107,146,18,

192,137,18,106,145,18,

191,137,18,105,145,18,

190,135,18,105,143,18,

189,135,18,103,143,18,

188,135,18,103,143,18,

187,134,18,103,143,18,

186,134,18,103,142,19,

185,132,18,103,141,18,

184,131,18,103,141,18,

183,131,18,102,140,18,

182,130,17,101,139,18,

181,130,18,101,138,18,

180,129,18,100,139,18,

179,128,17,99,137,18,

179,127,18,99,137,18,

178,127,18,99,137,18,

177,126,17,99,135,17,

176,126,17,99,135,17,

175,126,17,98,135,18,

175,125,18,98,134,18,

174,124,18,99,134,17,

173,123,17,99,133,18,

172,123,17,98,133,17,

171,122,18,97,132,17,

170,121,18,97,131,18,

169,121,18,97,131,17,

169,120,17,96,130,17,

167,120,18,97,130,18,

167,119,18,97,130,17,

167,119,17,97,128,18,

165,119,18,97,127,17,

164,118,17,96,127,17,

163,117,18,96,127,17,

163,118,17,95,126,17,

162,116,17,94,126,17,

162,115,17,94,125,17,

161,115,17,93,125,17,

160,115,17,94,125,17,

186,114,17,93,124,17,

185,114,17,93,124,17,

184,113,17,92,123,17,

184,114,18,135,159,18,

182,113,17,137,158,17,

181,112,17,135,156,17,

179,111,17,135,156,17,

179,111,17,135,155,17,

177,110,17,134,154,16,

176,110,17,133,153,17,

176,109,16,132,152,17,

175,108,17,131,152,16,

174,108,17,131,151,17,

173,107,17,130,150,18,

172,107,17,130,149,17,

171,107,16,128,147,17,

171,105,17,128,147,17,

169,105,17,127,147,17,

167,105,16,127,146,17,

167,103,16,126,145,17,

167,103,16,125,144,17,

166,103,16,125,143,17,

165,103,16,125,143,17,

165,103,17,123,142,17,

163,102,15,123,141,16,

161,100,16,121,140,16,

161,100,16,121,139,17,

159,100,16,120,138,15,

159,99,16,120,137,15,

158,99,16,120,137,16,

158,98,15,119,135,16,

157,98,16,119,135,15,

156,97,16,118,135,16,

155,97,16,117,135,16,

155,97,15,116,134,16,

154,96,16,115,133,16,

153,95,15,115,132,16,

152,95,15,115,132,15,

152,95,16,114,131,15,

152,95,15,113,131,16,

151,94,15,113,129,15,

150,93,16,112,129,15,

149,93,16,112,128,16,

148,92,15,111,128,15,

147,92,15,112,127,15,

147,92,16,111,126,15,

146,92,16,110,126,16,

145,92,16,110,126,15,

145,90,16,109,125,15,

143,91,15,108,125,15,

143,90,15,108,124,16,

143,89,15,108,123,16,

142,89,15,107,123,16,

142,88,15,107,122,15,

141,88,16,106,122,16,

140,88,15,105,121,15,

140,87,16,105,121,16,

139,87,15,105,120,15,

139,88,15,103,120,16,

138,86,16,103,120,16,

137,86,15,103,119,16,

137,86,15,103,118,15,

136,86,15,103,118,16,

135,85,15,102,117,16,

135,85,16,101,116,15,

135,83,16,101,116,16,

134,84,15,101,115,15,

133,83,16,99,115,16,

132,83,15,99,115,16,

132,83,15,99,115,15,

131,83,15,99,114,15,

131,83,16,98,113,16,

130,81,16,98,112,16,

130,81,15,97,113,16,

129,81,16,97,112,15,

128,80,15,96,111,15,

127,80,15,96,111,16,

127,80,16,96,112,15,

127,80,15,95,110,16,

127,79,15,95,110,16,

127,79,16,95,109,16,

125,79,15,95,109,15,

125,78,15,94,109,15,

124,79,15,93,108,15,

124,78,16,93,108,16,

124,77,16,93,107,15,

123,77,15,92,107,15,

123,77,16,92,107,16,

122,76,15,91,106,15,

121,77,15,91,105,15,

121,76,15,90,105,15,

121,76,15,90,105,15,

120,76,16,90,103,16,

120,75,15,89,103,16,

119,75,15,89,103,15,

118,74,15,88,103,15,

118,75,15,88,103,15,

118,74,15,88,103,15,

117,73,16,88,102,15,

116,73,15,87,102,15,

115,73,15,87,101,15,

115,73,16,87,101,15,

115,71,16,86,101,15,

115,71,15,86,100,16,

114,71,15,85,99,15,

114,71,15,85,99,15,

113,71,15,84,99,15,

113,71,15,84,99,15,

112,71,15,84,98,15,

112,71,15,84,98,15,

112,71,15,83,97,15,

111,71,16,83,96,15,

111,70,15,83,97,16,

111,70,15,83,97,16,

111,121,16,82,96,15,

109,121,15,82,95,15,

109,120,15,81,95,15,

109,119,15,81,95,15,

108,119,15,81,94,15,

107,118,15,81,94,15,

107,117,16,80,94,15,

107,117,16,79,94,15,

106,116,16,79,93,15,

106,115,15,79,92,15,

105,115,16,80,92,15,

105,114,15,78,92,15,

103,114,15,78,92,16,

105,113,16,78,91,15,

103,113,15,78,91,15,

103,112,16,78,90,15,

103,111,15,77,91,16,

103,111,15,77,90,16,

102,110,16,77,90,15,

102,111,15,77,115,16,

101,110,15,76,115,15,

101,109,15,76,114,15,

144,110,17,76,115,15,

212,148,15,75,112,16,

211,147,16,79,138,16,

209,146,16,79,137,15,

207,145,15,78,135,15,

207,145,15,78,135,15,

205,143,15,77,134,15,

204,143,16,77,134,15,

203,142,15,76,133,15,

202,141,16,77,131,15,

200,140,15,76,131,16,

199,140,15,75,131,15,

199,139,16,76,130,15,

198,138,15,75,130,15,

196,137,15,74,129,15,

195,135,15,75,127,15,

194,135,16,75,127,15,

193,135,16,73,127,15,

192,134,15,73,126,16,

192,134,15,73,125,15,

190,133,15,73,125,15,

189,133,16,72,124,15,

188,132,15,71,124,15,

187,131,15,71,123,15,

187,130,16,71,123,15,

185,130,15,71,122,15,

184,129,15,71,121,15,

183,129,15,71,120,15,

183,127,16,71,120,15,

182,127,16,71,121,16,

246,126,15,70,119,15,

243,126,15,69,119,15,

241,126,15,70,118,15,

240,124,15,69,117,15,

239,124,15,68,117,15,

237,124,15,69,116,15,

236,123,15,67,115,15,

235,123,16,68,115,15,

234,123,15,68,115,16,

233,121,15,67,115,16,

231,121,17,68,114,16,

230,121,15,67,114,16,

229,120,15,67,113,16,

227,120,16,67,112,15,

226,119,15,67,111,15,

225,119,15,66,111,15,

224,118,15,66,111,16,

223,117,15,66,110,15,

222,117,16,65,110,15,

220,116,16,65,110,16,

219,115,16,65,109,15,

218,115,17,65,108,16,

217,114,16,64,108,15,

216,114,15,64,107,15,

216,113,16,64,107,15,

214,113,16,63,106,16,

213,112,16,63,105,16,

211,112,16,63,105,16,

210,111,15,63,103,16,

209,111,15,63,103,15,

209,111,16,62,103,16,

207,110,16,62,103,15,

206,109,16,62,103,16,

205,108,16,61,102,15,

204,108,16,61,102,16,

203,108,15,61,101,16,

202,107,16,61,101,15,

201,107,15,61,100,16,

199,107,16,60,100,15,

199,106,16,60,99,16,

198,105,15,60,98,17,

197,103,16,60,99,16,

196,103,15,59,98,15,

195,103,16,60,98,16,

194,103,16,60,98,16,

194,103,15,96,97,16,

193,102,15,95,96,15,

192,102,16,95,97,17,

191,174,16,93,96,16,

190,172,16,93,95,15,

189,171,16,92,95,16,

188,169,16,92,94,15,

187,169,16,92,94,15,

186,167,15,92,94,16,

185,167,15,91,93,15,

184,167,15,90,93,16,

184,165,16,89,93,16,

183,165,15,89,92,16,

183,163,15,89,92,16,

181,163,16,89,92,16,

180,162,15,88,91,15,

180,161,16,88,91,16,

179,161,16,87,90,15,

178,159,16,87,90,15,

177,159,16,87,89,15,

176,158,15,86,89,15,

175,157,15,86,88,15,

175,156,15,85,89,16,

174,156,17,85,88,16,

173,155,15,85,88,16,

172,154,16,84,88,16,

171,153,16,83,87,16,

171,153,16,84,87,15,

170,152,16,83,87,16,

169,152,15,82,86,16,

167,150,16,82,86,16,

167,150,16,82,86,15,

167,149,16,82,85,15,

167,148,16,81,84,16,

165,147,16,81,84,15,

164,147,16,81,84,16,

164,146,15,80,83,15,

163,145,16,79,83,16,

163,144,16,80,83,15,

162,144,16,79,83,16,

161,143,16,79,83,16,

160,143,15,78,82,16,

159,142,16,78,82,16,

159,141,17,78,82,15,

159,140,15,77,81,16,

158,140,16,77,81,16,

157,140,16,77,81,16,

156,140,16,77,80,15,

156,138,16,76,80,15,

155,137,16,76,80,17,

154,137,15,76,79,15,

153,135,15,76,79,15,

152,135,15,74,79,15,

152,135,15,73,78,15,

152,134,15,74,78,15,

150,133,15,73,77,15,

149,132,15,73,77,15,

149,132,15,71,76,15,

148,131,15,71,76,15,

147,131,15,72,76,15,

147,130,15,71,76,15,

146,129,15,71,76,15,

145,128,16,71,76,15,

145,127,15,71,75,15,

143,127,15,71,75,15,

143,127,15,70,74,15,

143,126,15,70,74,16,

143,126,15,70,73,15,

142,125,15,69,73,15,

141,125,15,69,73,15,

141,125,15,71,73,15,

140,123,15,71,73,15,

139,123,15,71,71,15,

139,123,15,71,71,15,

139,122,15,71,71,16,

138,121,15,71,71,15,

137,121,15,70,71,15,

137,121,15,70,71,15,

135,120,15,70,71,15,

135,120,15,70,71,15,

135,119,15,69,70,15,

135,118,15,68,70,15,

134,118,15,68,70,15,

133,117,15,68,69,15,

132,117,15,67,70,14,

131,116,15,67,69,15,

131,115,15,67,69,15,

131,115,15,66,68,15,

130,114,15,67,68,14,

130,114,15,66,69,15,

129,114,15,66,68,16,

128,113,15,65,67,15,

127,112,15,65,67,15,

127,112,15,65,67,16,

127,112,15,65,66,15,

126,111,15,65,67,15,

126,111,15,65,67,15,

126,110,15,64,66,15,

125,110,15,63,66,15,

125,109,15,63,66,15,

124,108,14,63,65,15,

123,108,15,63,65,15,

123,108,16,62,65,15,

122,107,15,62,65,15,

122,106,15,62,64,15,

121,106,15,62,64,15,

121,105,15,92,65,15,

121,105,15,131,63,15,

119,105,15,131,63,15,

119,103,15,130,63,15,

118,103,15,129,63,15,

118,103,15,128,63,15,

118,103,15,127,63,15,

117,102,15,127,62,15,

117,102,15,126,62,15,

116,102,15,126,62,15,

115,101,15,125,61,15,

115,101,15,124,61,15,

114,100,15,123,61,15,

114,99,15,123,61,15,

113,99,15,123,61,15,

114,99,15,122,61,15,

113,99,16,121,60,15,

112,98,15,121,60,15,

112,98,15,120,60,15,

111,98,15,120,59,15,

110,97,15,119,59,15,

110,96,15,118,59,15,

110,96,16,117,59,15,

110,96,15,117,59,15,

109,95,15,117,59,15,

109,95,15,116,58,15,

108,94,15,115,58,15,

137,95,16,116,58,15,

165,93,14,115,57,15,

163,93,15,114,57,15,

163,93,15,113,57,15,

162,93,15,113,57,15,

161,92,15,112,56,15,

159,91,15,112,56,15,

159,91,15,111,56,16,

158,91,15,112,56,15,

157,90,15,111,56,15,

157,90,15,110,56,15,

156,89,15,110,56,15,

155,89,15,110,55,15,

155,88,15,109,56,15,

155,89,16,110,55,15,

199,157,15,108,56,15,

198,156,15,107,55,15,

197,155,15,108,54,16,

195,153,15,107,54,15,

195,152,15,106,54,15,

193,152,15,106,54,16,

193,152,15,105,53,15,

192,149,15,103,54,16,

190,149,14,103,53,15,

190,147,15,103,52,15,

188,147,15,103,53,15,

187,147,15,103,52,15,

186,146,15,103,53,15,

185,145,15,102,51,15,

184,144,15,101,51,15,

184,143,15,101,52,15,

182,143,15,101,51,15,

182,142,15,99,51,15,

181,142,15,99,51,15,

179,141,15,99,51,15,

179,140,15,99,50,15,

178,139,15,97,50,16,

177,139,15,98,50,15,

176,138,15,97,50,15,

176,137,15,97,51,15,

175,137,15,97,49,15,

174,135,15,96,50,15,

173,135,15,95,50,15,

173,135,16,96,131,16,

172,135,16,96,249,16,

171,134,15,95,284,15,

169,133,15,94,281,15,

169,132,15,94,279,15,

167,131,15,93,277,15,

167,131,15,92,274,15,

166,130,15,92,273,15,

166,129,15,92,271,15,

165,129,15,92,270,15,

164,129,15,91,268,15,

163,127,15,92,267,15,

162,127,15,90,264,15,

162,126,15,90,263,15,

161,126,15,89,262,15,

159,125,15,89,261,15,

159,124,15,89,259,15,

158,124,15,88,258,15,

157,124,15,88,255,15,

156,123,15,88,254,15,

156,123,15,87,253,16,

155,121,15,87,251,16,

155,121,15,86,250,15,

154,121,15,86,249,15,

153,120,15,86,248,15,

152,120,15,85,246,15,

152,120,15,85,245,16,

151,118,15,84,243,16,

150,118,15,84,242,15,

149,117,15,83,241,15,

149,116,15,83,240,15,

147,115,15,83,239,15,

147,115,15,83,238,15,

147,115,15,83,236,15,

146,114,15,82,235,15,

146,157,16,82,233,15,

144,169,15,81,231,15,

143,167,15,81,231,16,

143,167,15,81,230,15,

143,166,15,79,229,15,

142,165,15,79,228,15,

141,164,16,79,226,15,

140,163,14,79,226,15,

140,163,15,78,225,15,

139,162,15,78,223,15,

139,160,15,78,222,15,

137,159,15,78,221,15,

137,159,15,77,220,15,

137,158,15,77,220,15,

135,157,15,77,217,15,

135,156,15,77,217,15,

135,155,15,76,216,15,

134,154,15,76,215,15,

133,154,15,76,214,15,

133,153,15,76,212,15,

132,153,15,75,211,15,

131,152,15,75,211,16,

131,152,16,75,211,16,

131,151,16,74,209,16,

130,150,16,74,207,15,

130,149,16,73,207,15,

129,148,15,74,207,16,

129,147,16,73,205,16,

128,147,16,71,201,13,

125,143,13,70,199,13,

124,142,12,69,198,12,

124,141,12,69,197,12,

122,140,12,68,196,12,

121,140,12,67,195,12,

121,139,12,67,194,12,

120,138,12,67,193,12,

119,137,12,66,192,12,

119,136,12,66,192,12,

118,135,12,66,190,12,

118,135,12,65,190,12,

118,135,12,65,188,12,

116,134,12,65,187,12,

116,133,12,65,186,11,

115,132,12,63,186,12,

115,131,11,63,185,12,

115,131,12,63,184,12,

114,130,12,63,183,12,

113,129,11,63,182,11,

113,129,12,62,181,12,

112,129,12,62,180,12,

112,127,11,62,179,12,

111,127,11,62,179,11,

110,126,11,61,178,12,

111,126,12,61,177,11,

110,125,11,61,176,12,

109,124,11,61,175,11,

109,124,11,61,175,11,

108,123,11,60,174,12,

108,122,11,60,173,12,

107,121,12,60,172,12,

107,121,12,59,171,12,

106,120,12,59,170,12,

105,120,12,59,169,11,

105,120,11,59,167,12,

103,119,11,58,167,12,

104,118,12,58,167,11,

103,118,12,57,166,11,

103,117,11,57,166,11,

103,116,11,57,164,12,

103,115,11,57,164,11,

102,115,11,57,163,11,

101,115,11,56,163,11,

