
36,14,7,41,25,6,

37,14,7,41,26,6,

36,12,6,41,26,7,

36,13,6,41,25,6,

36,13,6,41,24,7,

36,13,7,41,24,7,

35,13,7,41,24,7,

35,12,7,39,25,6,

35,13,6,39,25,7,

35,12,7,39,24,7,

35,13,7,41,24,7,

35,12,6,39,24,7,

35,12,6,39,25,7,

35,12,6,39,24,6,

34,13,6,39,24,7,

34,13,7,39,24,7,

34,12,7,39,24,6,

34,12,7,39,24,6,

34,12,6,38,23,7,

33,12,7,39,24,7,

33,13,7,38,24,7,

33,12,6,38,24,7,

33,12,7,39,23,6,

33,12,7,38,24,7,

33,12,7,38,23,7,

33,12,7,37,23,7,

33,12,7,38,23,6,

33,11,6,37,22,6,

32,12,6,37,22,7,

32,11,6,37,23,7,

33,11,7,36,22,7,

31,12,7,37,22,7,

32,11,6,35,22,6,

31,11,6,37,23,6,

32,12,7,37,23,7,

31,11,7,43,23,6,

31,11,7,44,21,7,

31,12,7,44,22,7,

31,11,6,44,22,7,

31,11,6,43,21,6,

31,11,6,43,22,7,

31,11,6,43,21,7,

30,11,6,43,21,7,

30,12,7,42,21,7,

30,11,6,43,21,7,

30,12,7,43,22,6,

30,12,7,43,20,6,

30,11,7,42,20,7,

30,12,6,42,21,7,

30,11,7,41,21,7,

30,12,7,42,21,7,

30,11,6,41,21,7,

30,11,6,39,20,7,

30,11,7,41,20,6,

30,11,7,40,29,6,

29,11,6,41,34,6,

29,11,6,41,34,6,

29,11,6,39,33,6,

29,11,6,39,32,7,

29,11,7,41,32,6,

29,11,7,39,33,7,

28,11,6,39,31,7,

29,11,6,39,31,6,

28,11,7,39,31,7,

28,10,7,39,31,6,

28,11,7,39,31,6,

28,10,6,38,34,7,

28,11,6,39,34,7,

28,11,7,38,34,7,

28,10,6,38,33,6,

28,11,7,38,33,6,

28,10,7,38,33,6,

27,11,6,38,33,7,

27,10,7,38,32,7,

27,10,7,39,32,7,

27,11,7,47,32,6,

27,10,7,46,32,6,

27,10,7,46,31,6,

27,11,6,46,31,7,

27,10,7,45,31,6,

27,10,7,46,31,6,

26,10,7,45,31,7,

26,10,7,45,31,7,

25,10,6,44,31,7,

26,10,7,45,31,7,

26,10,6,44,31,6,

26,9,6,44,31,6,

26,10,7,44,30,7,

25,10,6,44,30,7,

25,10,7,44,30,6,

26,10,7,44,30,6,

25,9,7,43,29,6,

25,10,7,43,29,7,

25,10,6,44,30,7,

25,10,7,43,30,7,

25,10,7,43,30,6,

25,10,7,43,29,7,

25,9,7,42,29,7,

24,9,6,42,29,6,

24,10,6,42,30,7,

25,9,7,41,29,7,

25,10,7,42,28,6,

25,10,6,42,29,6,

24,10,6,41,29,6,

25,9,7,41,28,6,

24,9,6,42,29,6,

24,9,7,41,28,6,

25,9,6,39,28,7,

24,10,7,41,28,6,

24,9,7,41,28,7,

24,9,6,39,27,7,

24,9,6,41,27,6,

24,10,6,39,28,6,

24,9,6,39,28,6,

24,9,6,39,27,7,

25,9,7,39,27,6,

25,9,6,39,28,7,

25,10,7,39,27,7,

24,9,6,39,27,6,

25,9,7,39,26,6,

24,9,7,39,26,6,

24,9,6,39,30,7,

24,9,6,38,30,6,

25,9,6,37,29,7,

24,9,7,38,28,6,

24,9,6,39,29,7,

24,10,6,37,28,6,

24,9,6,37,28,6,

30,9,7,38,28,7,

30,9,6,38,28,6,

29,9,6,37,28,6,

29,9,7,36,27,7,

30,8,6,36,28,6,

29,9,7,35,28,6,

30,8,6,36,28,6,

29,9,7,36,27,7,

28,8,6,35,27,6,

29,9,6,37,27,6,

29,8,7,35,28,7,

28,7,7,35,26,7,

29,8,6,35,26,6,

28,7,6,35,27,6,

28,8,6,35,26,6,

28,7,6,34,26,6,

28,8,6,34,26,6,

27,8,7,35,25,6,

28,8,6,34,25,6,

28,8,6,35,26,6,

28,7,7,34,26,6,

27,7,6,34,25,6,

27,9,7,34,25,6,

27,9,7,33,25,6,

27,9,6,33,25,7,

27,9,6,34,26,6,

26,8,6,34,25,7,

27,7,6,33,25,6,

26,8,7,33,24,6,

26,8,7,34,25,6,

26,7,6,33,24,6,

26,7,6,32,25,7,

26,7,7,33,25,6,

26,7,6,33,26,7,

26,7,7,31,26,6,

25,7,6,31,26,6,

26,7,6,32,25,6,

25,7,6,31,25,7,

25,8,6,31,26,6,

24,7,7,31,25,6,

25,7,6,31,25,6,

24,9,6,32,25,7,

24,7,6,31,25,6,

25,7,6,31,25,6,

25,7,6,31,25,6,

25,7,6,31,25,6,

24,9,6,31,25,7,

25,7,7,31,25,6,

24,7,6,31,25,6,

25,7,6,30,25,7,

24,7,6,31,24,7,

24,7,7,30,25,6,

24,7,6,30,24,6,

23,8,7,30,24,6,

24,9,6,30,24,6,

24,7,6,30,24,6,

24,7,6,30,24,7,

24,7,6,30,24,7,

24,7,6,30,24,7,

24,7,6,29,24,6,

24,7,6,29,24,7,

24,7,6,29,24,6,

24,8,6,29,34,6,

23,7,6,29,34,6,

23,7,6,30,34,6,

23,7,6,28,34,7,

23,7,6,28,34,7,

24,7,7,29,33,6,

23,7,6,29,33,6,

23,7,7,29,34,6,

23,7,6,29,33,7,

22,9,6,28,32,6,

23,7,6,28,33,7,

22,7,6,28,32,7,

23,7,6,28,33,6,

23,7,6,28,31,6,

22,8,6,28,32,6,

22,7,7,27,31,7,

22,7,7,27,31,6,

22,7,6,28,31,6,

22,8,6,27,31,6,

22,7,6,27,31,6,

22,7,6,27,31,7,

22,7,6,27,31,6,

21,7,6,27,31,6,

21,7,7,27,31,6,

21,7,6,27,31,6,

21,7,6,27,30,6,

21,7,6,27,30,7,

21,7,6,27,30,6,

21,7,7,27,30,6,

21,7,6,26,30,7,

21,7,6,25,30,7,

20,7,6,26,30,7,

21,7,6,27,29,7,

20,7,7,25,30,7,

20,7,6,25,29,7,

28,9,6,26,29,6,

45,7,6,26,30,6,

45,7,6,26,29,7,

45,7,6,26,29,6,

45,7,7,25,29,7,

44,7,6,25,29,7,

44,7,7,25,29,6,

44,7,7,26,29,6,

43,11,6,25,29,7,

43,13,6,25,28,6,

43,13,6,25,28,6,

43,12,6,25,28,7,

43,12,6,25,28,6,

43,12,6,25,28,6,

41,12,6,26,28,7,

42,12,7,25,28,7,

43,12,6,25,28,6,

41,11,7,25,28,6,

41,12,6,25,27,6,

41,12,7,25,27,6,

41,12,6,24,27,7,

41,12,6,24,27,6,

41,12,6,24,27,6,

41,12,7,25,27,6,

41,11,6,24,27,6,

39,12,7,24,26,6,

39,11,6,35,27,7,

39,11,6,85,27,7,

39,11,6,83,26,7,

39,12,7,83,26,7,

39,11,6,83,26,7,

39,12,7,82,26,7,

39,12,6,81,26,7,

39,12,7,81,25,6,

38,12,6,81,25,6,

39,11,6,80,26,7,

38,11,6,81,25,7,

38,12,6,79,25,6,

38,11,6,79,24,6,

38,11,6,78,25,6,

38,11,7,79,25,6,

37,10,6,78,24,6,

38,11,6,77,24,6,

38,11,6,77,24,6,

37,11,7,77,24,6,

36,11,6,77,25,6,

36,11,6,76,24,6,

37,11,6,76,24,6,

36,11,7,76,24,6,

36,10,6,75,24,6,

36,11,6,76,24,6,

37,10,6,75,24,7,

36,10,6,75,24,6,

36,11,6,75,24,7,

37,11,7,74,24,6,

35,10,7,74,24,7,

35,11,6,73,24,7,

35,11,7,73,24,7,

35,10,7,73,24,6,

34,10,7,71,23,7,

35,11,6,73,23,6,

34,11,6,71,23,6,

34,11,7,71,23,6,

34,11,7,71,23,7,

34,10,6,71,22,7,

34,10,6,71,23,6,

34,10,6,71,22,7,

35,10,7,70,23,7,

35,10,7,71,22,7,

35,10,6,71,23,7,

34,11,6,69,23,6,

35,11,7,69,22,6,

35,10,6,69,23,7,

34,11,7,68,22,6,

34,10,6,68,23,6,

34,9,6,69,23,7,

34,10,6,68,22,7,

34,10,7,67,22,7,

33,9,7,67,22,6,

33,11,7,67,22,7,

33,10,6,66,22,7,

33,10,6,66,21,6,

32,9,6,66,21,6,

32,10,6,65,23,6,

31,9,6,66,24,6,

33,9,6,65,24,6,

31,9,6,65,23,7,

31,9,7,65,24,6,

32,9,6,65,27,7,

32,9,6,63,28,7,

31,10,6,63,28,6,

31,10,6,63,28,6,

31,10,6,64,28,7,

31,10,7,63,28,6,

31,9,6,63,27,6,

31,10,7,62,27,6,

31,10,6,63,27,6,

31,9,6,62,27,6,

30,9,6,62,27,6,

31,9,6,61,26,6,

30,9,7,62,27,6,

30,9,6,62,27,6,

30,9,6,61,26,6,

30,9,6,61,26,6,

29,9,6,60,26,6,

29,9,7,60,27,6,

29,9,6,60,27,6,

29,10,6,60,26,7,

29,12,7,60,25,7,

29,12,7,60,25,6,

29,12,6,59,25,6,

29,12,6,59,25,7,

29,11,7,59,27,6,

29,12,6,57,57,6,

28,12,7,58,56,6,

29,11,6,57,56,7,

28,12,6,58,56,6,

28,12,6,57,55,6,

28,12,6,57,54,6,

28,12,7,57,54,6,

28,12,6,57,55,6,

28,12,6,57,54,6,

28,12,6,56,54,7,

28,11,6,56,53,7,

27,12,7,56,53,6,

27,11,7,56,52,6,

27,11,6,55,56,6,

27,11,7,56,71,6,

27,11,6,56,71,6,

27,11,6,55,71,6,

27,11,6,54,70,6,

27,12,6,54,70,6,

26,11,6,54,69,6,

26,11,6,54,69,6,

26,11,7,54,69,6,

26,12,6,54,68,6,

26,11,6,53,68,6,

27,11,6,53,69,7,

26,11,7,53,68,6,

26,11,6,53,67,6,

25,11,6,52,67,6,

25,26,7,52,67,6,

26,50,7,53,67,6,

25,56,7,52,66,7,

25,55,7,51,67,7,

26,54,7,51,66,7,

29,55,7,51,66,7,

31,53,7,51,65,7,

31,54,6,51,65,7,

31,54,7,51,65,7,

31,53,6,51,64,7,

31,53,7,51,64,7,

31,51,7,51,65,7,

31,52,7,50,63,7,

31,51,6,50,63,7,

30,51,6,50,63,6,

30,51,7,50,63,7,

31,51,6,50,62,7,

30,51,6,50,63,7,

30,51,7,51,62,7,

29,51,7,51,62,6,

29,50,7,51,61,6,

30,49,6,51,62,7,

29,50,7,50,61,7,

29,50,7,50,60,6,

29,49,6,50,61,6,

29,49,6,49,60,7,

29,49,6,49,61,6,

28,48,6,49,60,7,

29,49,7,49,60,6,

28,48,6,48,59,6,

28,48,6,49,60,6,

28,48,6,48,59,6,

28,47,6,48,58,6,

29,48,6,48,59,7,

28,47,7,47,58,7,

28,46,7,48,57,7,

28,47,7,47,57,7,

28,46,7,47,57,6,

27,47,6,47,57,6,

28,46,7,46,56,7,

28,46,7,76,57,6,

27,46,7,78,56,6,

26,46,7,78,56,7,

27,45,7,77,56,7,

27,45,6,77,56,7,

26,45,7,77,56,6,

26,44,7,76,55,7,

26,45,7,76,56,7,

26,44,7,76,55,7,

26,44,7,76,55,7,

27,46,7,75,55,6,

25,46,7,74,54,7,

26,46,6,74,53,7,

26,45,7,74,54,7,

26,45,6,73,53,7,

25,45,7,73,53,7,

26,44,7,73,54,7,

25,44,7,73,53,6,

25,44,7,73,53,7,

25,44,7,71,52,7,

25,44,6,71,52,6,

25,44,7,71,51,7,

24,43,7,71,52,6,

24,43,7,71,51,7,

25,44,6,71,51,7,

24,82,7,70,51,7,

24,85,7,70,50,7,

24,85,7,70,51,7,

25,89,7,70,50,7,

24,88,7,69,50,7,

25,88,7,69,50,7,

24,88,7,69,50,6,

24,88,7,68,50,6,

24,87,6,68,49,6,

24,86,7,69,49,6,

24,86,7,67,49,6,

23,86,6,67,48,7,

23,86,7,67,48,7,

24,85,7,67,56,6,

24,85,7,67,56,7,

23,85,6,66,56,6,

23,84,7,66,56,7,

23,83,7,66,56,7,

23,83,7,65,56,7,

25,83,6,65,54,6,

24,83,7,65,55,7,

24,82,7,65,54,7,

24,81,6,64,55,7,

25,81,7,64,54,7,

24,81,6,63,54,6,

25,80,7,63,53,7,

24,80,7,63,54,7,

24,79,7,63,53,6,

24,79,7,63,53,7,

24,79,6,63,52,6,

24,78,7,62,53,7,

24,78,7,62,52,7,

24,78,7,63,52,6,

24,77,7,63,52,6,

23,77,7,63,52,7,

24,77,7,62,51,7,

24,77,7,62,51,7,

23,76,7,63,51,7,

23,76,6,62,50,7,

23,76,7,61,50,6,

23,75,6,61,51,6,

23,75,6,62,50,7,

23,75,7,60,50,6,

22,74,7,60,49,6,

25,74,7,60,50,7,

34,74,7,60,50,7,

36,74,7,61,49,7,

36,73,7,60,49,7,

36,71,6,59,49,7,

35,72,6,59,48,6,

36,73,6,58,48,7,

35,71,6,59,48,7,

35,71,6,58,48,6,

35,71,7,58,48,7,

35,71,6,58,47,6,

35,71,6,58,48,7,

35,71,7,57,47,7,

34,70,7,57,47,7,

34,70,7,57,46,6,

34,69,7,57,48,7,

36,69,6,56,46,7,

36,69,7,56,46,6,

35,68,7,57,54,7,

35,69,6,56,77,7,

35,68,7,56,77,7,

35,68,7,56,76,7,

35,68,7,55,76,7,

34,68,7,55,75,7,

34,68,7,55,74,6,

34,67,7,54,75,7,

34,67,7,55,75,7,

37,66,7,54,74,6,

37,67,7,54,73,7,

37,66,6,53,73,6,

37,75,7,54,73,7,

37,78,6,53,72,7,

37,77,6,53,71,7,

36,77,7,53,71,6,

36,76,7,52,71,7,

36,76,6,52,71,7,

35,76,6,52,71,7,

35,76,7,53,71,7,

36,75,7,51,70,6,

35,75,7,52,70,7,

37,75,7,75,70,7,

39,75,7,74,69,7,

39,73,7,73,70,7,

39,73,6,73,69,7,

38,73,7,73,69,6,

38,73,7,71,68,7,

37,72,7,71,67,7,

38,71,6,71,68,7,

37,71,7,71,67,6,

37,71,7,71,67,7,

37,71,7,71,67,7,

37,138,7,71,67,7,

37,137,7,70,66,7,

37,135,7,70,66,7,

36,135,7,70,66,7,

36,135,7,70,65,7,

35,134,7,69,65,7,

36,133,7,69,65,6,

35,133,7,68,65,7,

35,132,7,67,64,7,

35,131,7,67,64,7,

35,130,7,67,63,6,

35,130,7,67,63,6,

35,129,7,67,63,6,

35,128,6,67,63,7,

41,127,7,66,62,6,

51,127,7,66,62,7,

50,126,6,65,62,7,

49,126,7,65,62,7,

49,125,7,65,61,6,

49,125,6,65,60,7,

48,125,6,65,60,6,

48,123,7,65,60,7,

48,123,7,64,60,7,

48,124,7,64,60,6,

48,122,7,63,59,6,

47,121,7,63,59,6,

47,121,7,63,59,7,

47,120,7,63,59,6,

47,120,7,62,59,6,

47,119,7,62,58,7,

47,119,6,62,58,7,

46,118,7,62,58,7,

46,118,7,62,59,7,

46,131,6,61,58,6,

46,130,6,61,58,7,

46,129,7,61,58,6,

45,128,7,60,57,7,

45,129,6,59,58,7,

45,127,7,60,57,7,

44,127,7,60,57,7,

45,126,6,59,57,7,

45,125,7,59,56,7,

45,125,7,59,56,7,

44,125,7,59,56,7,

44,125,7,57,55,7,

44,123,7,57,56,6,

44,123,6,57,56,6,

44,123,7,57,56,7,

44,122,7,57,55,7,

44,122,6,57,54,6,

43,121,7,56,55,7,

43,121,6,56,54,7,

47,120,7,56,54,7,

46,119,7,56,53,7,

46,118,6,56,53,7,

46,118,7,56,60,6,

46,118,7,56,71,7,

46,117,7,55,71,7,

45,117,7,56,71,7,

45,116,7,55,71,7,

45,116,6,55,70,7,

44,115,7,53,70,6,

45,114,6,54,69,7,

44,114,7,54,69,7,

61,114,7,54,70,7,

91,112,7,53,69,7,

89,112,7,54,69,7,

89,112,7,53,68,7,

88,112,7,53,68,6,

88,111,7,52,67,6,

88,121,7,52,67,7,

88,123,6,52,67,7,

86,122,7,52,67,7,

86,122,7,51,67,7,

85,120,7,51,66,7,

86,120,7,51,65,7,

85,120,7,51,66,7,

85,119,7,53,65,7,

84,119,7,52,64,6,

85,118,7,53,64,7,

83,117,7,52,64,7,

83,116,7,52,63,7,

83,116,7,51,63,7,

83,115,6,51,63,7,

82,115,7,51,62,6,

81,115,7,53,62,7,

81,113,7,52,63,6,

80,113,6,51,62,6,

80,113,7,51,62,6,

81,113,7,51,61,7,

80,112,7,51,61,6,

79,112,7,51,61,7,

79,111,6,50,61,7,

79,111,7,51,61,6,

78,110,7,51,60,7,

78,109,7,49,60,7,

78,109,6,49,60,7,

77,109,6,49,60,7,

77,108,7,50,59,7,

76,108,7,48,60,7,

76,107,7,49,59,7,

76,107,7,48,59,7,

76,106,7,48,58,7,

75,106,7,48,58,7,

76,113,7,48,57,6,

75,113,6,48,57,7,

74,112,7,48,57,6,

74,112,7,47,57,6,

74,111,7,47,56,6,

74,111,7,47,57,7,

73,109,7,47,56,6,

71,110,7,47,56,7,

73,109,6,46,56,7,

71,108,7,46,56,7,

71,108,7,46,55,7,

71,108,6,45,55,7,

71,107,6,45,54,7,

71,106,7,45,54,7,

71,105,7,46,54,6,

70,105,7,45,54,7,

71,105,6,44,54,7,

69,105,6,45,53,7,

70,103,7,44,53,7,

69,103,7,45,53,7,

69,103,7,45,53,7,

68,103,7,44,52,6,

69,103,7,45,52,7,

68,102,6,45,51,7,

67,101,7,44,51,7,

67,101,7,44,51,7,

67,100,7,44,51,6,

67,100,6,44,51,6,

66,100,7,43,51,7,

66,99,7,43,51,7,

66,99,7,43,51,7,

66,98,7,43,50,6,

66,98,7,42,51,7,

65,98,6,42,50,7,

64,98,7,42,49,7,

65,97,7,42,49,7,

64,96,7,42,49,7,

63,96,7,42,49,7,

63,96,7,41,49,6,

63,96,7,41,48,6,

63,96,7,41,49,7,

63,95,7,42,48,7,

62,95,7,41,48,7,

62,94,7,41,48,7,

62,94,7,41,48,7,

62,93,7,41,47,7,

62,93,6,41,47,6,

61,92,6,41,47,7,

61,92,6,39,46,7,

61,92,7,39,46,6,

61,91,7,41,47,7,

61,91,7,41,47,7,

61,91,7,41,46,7,

61,90,6,39,46,6,

61,90,6,41,46,6,

60,90,7,39,46,6,

60,90,7,39,45,6,

60,88,6,39,45,7,

59,89,7,39,45,7,

59,88,7,39,45,7,

62,88,7,39,45,7,

77,88,7,39,45,7,

76,87,7,39,44,7,

76,87,7,39,44,7,

76,86,6,38,44,6,

74,86,7,39,44,7,

74,86,7,39,43,7,

74,86,7,38,43,7,

74,120,7,38,43,6,

73,124,7,38,43,7,

71,124,7,38,42,7,

71,123,6,37,42,6,

71,122,6,38,43,7,

71,121,7,37,42,7,

71,121,7,37,42,7,

71,120,6,37,41,7,

71,120,7,37,41,7,

70,120,7,36,41,7,

71,118,7,37,42,7,

70,119,7,36,41,7,

70,117,7,35,41,7,

69,117,7,36,42,7,

68,116,7,35,41,7,

68,115,7,35,41,7,

69,115,6,35,40,7,

68,114,6,35,39,7,

68,114,7,43,40,7,

67,114,7,42,40,7,

67,113,7,41,39,7,

67,113,6,41,39,6,

67,112,7,42,39,7,

66,112,7,41,39,6,

66,111,7,41,39,7,

66,111,7,41,39,7,

66,110,7,41,39,6,

65,110,7,40,39,7,

65,109,7,39,38,7,

64,109,7,39,39,7,

63,109,7,39,39,7,

64,108,6,39,38,7,

63,107,7,39,38,7,

63,107,7,39,38,7,

63,107,6,39,38,6,

63,106,6,39,38,7,

63,106,6,39,37,6,

63,105,6,38,37,7,

62,105,7,38,37,6,

62,103,6,39,37,7,

62,103,7,38,36,7,

61,103,6,38,37,6,

60,103,6,39,36,7,

60,102,7,41,36,7,

61,102,6,56,36,6,

60,101,7,56,36,6,

60,101,7,56,35,6,

60,101,7,54,35,6,

59,101,6,55,35,7,

59,99,7,54,35,6,

58,99,7,54,35,7,

59,99,7,54,35,6,

58,98,6,53,35,7,

58,98,7,53,35,7,

57,98,7,57,35,7,

58,97,7,56,34,7,

57,97,7,56,34,7,

57,96,7,56,34,7,

57,96,7,56,34,7,

56,96,7,55,34,6,

56,96,6,55,34,7,

56,96,7,54,34,7,

56,95,7,54,33,7,

56,94,7,54,32,7,

56,95,7,54,34,7,

56,94,7,54,33,7,

55,94,7,54,33,6,

55,92,7,53,33,7,

54,93,6,52,32,7,

54,92,7,53,33,7,

54,91,6,62,32,7,

54,91,7,62,46,7,

54,91,7,61,61,7,

54,91,7,61,63,6,

54,90,6,61,63,7,

53,89,7,61,63,7,

54,90,7,61,62,7,

53,89,6,60,61,7,

52,88,7,60,61,7,

52,89,7,60,62,7,

51,88,7,60,61,6,

54,88,7,59,61,7,

53,88,7,59,61,6,

53,87,7,59,61,7,

53,87,7,58,59,7,

51,87,7,58,59,6,

51,86,7,58,60,7,

52,86,7,58,60,7,

51,86,6,57,58,7,

51,85,7,57,59,7,

51,84,7,56,58,7,

51,84,7,57,59,7,

51,83,7,56,59,7,

50,84,6,56,57,6,

50,83,7,56,57,7,

71,83,7,56,57,7,

78,83,7,56,57,7,

77,83,7,56,56,7,

77,83,7,56,56,7,

76,83,7,54,56,7,

76,83,7,54,60,7,

76,82,7,54,62,7,

75,82,7,54,62,7,

76,81,6,54,61,6,

75,81,7,53,61,7,

74,81,7,53,61,7,

74,80,7,54,60,7,

74,88,7,96,61,7,

74,122,7,95,61,6,

73,121,6,94,60,7,

73,121,7,94,59,7,

71,120,6,93,58,7,

71,119,6,92,59,7,

71,119,7,92,58,7,

71,118,7,92,59,6,

71,118,7,91,58,7,

70,117,7,91,57,7,

70,117,7,91,58,7,

70,115,6,89,57,7,

70,115,7,90,57,6,

69,115,7,89,57,6,

70,115,7,88,56,7,

69,115,6,88,56,7,

69,113,7,88,56,7,

68,113,6,88,55,7,

68,112,7,87,56,7,

67,112,7,87,55,7,

67,112,7,86,56,7,

67,118,7,86,54,7,

67,117,6,86,56,7,

67,117,6,85,54,7,

66,116,7,84,54,6,

65,115,7,84,54,7,

66,115,7,83,54,7,

65,115,7,83,53,6,

66,114,6,83,53,7,

65,113,7,83,53,7,

64,113,7,82,52,6,

64,112,7,82,51,6,

64,112,7,82,52,7,

63,111,6,81,51,6,

63,111,7,81,51,7,

63,110,6,80,51,7,

63,110,7,81,51,7,

63,109,6,79,50,7,

63,109,7,79,50,6,

63,109,7,80,50,7,

63,108,7,79,50,7,

63,108,7,78,49,7,

62,106,6,78,50,7,

62,107,6,78,50,7,

61,107,7,78,49,6,

62,105,7,77,49,7,

61,105,6,77,48,6,

61,103,7,77,48,7,

61,103,7,76,48,7,

61,103,7,76,48,6,

60,103,7,76,48,7,

60,103,6,75,48,7,

60,102,7,75,47,7,

60,102,7,75,47,7,

60,102,7,74,47,6,

59,100,7,73,47,7,

58,100,7,73,47,6,

58,100,7,73,47,6,

57,100,7,73,45,6,

57,99,7,73,46,7,

57,99,7,73,46,7,

58,98,6,71,46,6,

57,99,7,71,45,7,

57,98,7,71,45,7,

56,97,7,71,45,7,

56,97,7,71,45,7,

56,96,6,71,44,7,

56,96,7,71,45,6,

56,96,7,70,44,7,

56,96,7,70,44,7,

56,95,7,71,45,7,

55,121,6,70,44,7,

55,120,7,70,44,6,

54,120,7,69,43,7,

54,118,7,68,43,7,

54,118,7,69,43,7,

55,118,7,68,43,7,

88,116,7,68,43,6,

88,117,7,67,42,7,

87,115,7,67,42,7,

86,115,7,67,42,6,

86,114,7,67,44,6,

85,115,7,66,44,7,

85,114,7,66,44,7,

83,114,7,65,44,7,

83,112,6,65,43,7,

83,112,6,65,43,6,

83,112,6,65,43,7,

82,111,7,64,42,7,

82,111,6,65,43,7,

82,110,7,64,42,7,

81,109,7,65,42,7,

81,109,6,63,42,7,

80,108,6,63,41,7,

80,108,7,63,41,6,

79,108,7,63,41,7,

79,107,7,63,42,7,

79,107,7,63,41,6,

79,107,6,62,40,6,

79,105,7,62,40,7,

78,106,7,62,39,6,

78,105,7,62,39,7,

78,104,7,61,39,6,

77,103,7,62,41,7,

77,103,7,61,102,6,

76,103,7,60,101,6,

76,103,6,60,100,6,

75,102,7,60,99,7,

75,101,7,60,99,7,

74,101,7,60,98,6,

75,100,7,60,98,7,

74,99,7,59,98,7,

75,99,7,59,97,6,

74,99,6,59,97,7,

73,99,6,58,96,6,

73,99,7,58,96,7,

73,98,7,58,95,7,

73,98,6,58,95,7,

71,97,7,58,94,7,

71,97,7,57,94,6,

71,97,7,57,94,6,

71,96,7,57,93,7,

71,96,7,56,93,7,

71,96,7,57,92,7,

71,96,6,56,92,7,

70,94,7,56,91,7,

69,94,7,56,91,6,

70,94,7,56,91,6,

69,93,7,55,90,7,

69,93,6,55,90,7,

68,92,7,56,89,7,

69,92,7,54,89,7,

68,92,6,54,88,7,

67,92,7,55,89,7,

67,91,7,54,88,6,

76,91,7,53,88,6,

76,91,7,54,87,6,

76,90,7,53,87,7,

76,89,6,53,86,7,

76,90,6,53,86,7,

75,89,6,52,86,7,

75,89,7,52,85,7,

74,88,7,52,85,7,

74,88,7,51,85,7,

74,88,7,52,83,7,

73,88,6,52,84,7,

73,88,7,51,84,7,

74,87,6,51,83,7,

72,87,6,51,83,6,

72,86,7,51,82,7,

71,86,6,50,82,6,

71,85,6,50,81,6,

71,85,6,77,82,7,

71,85,7,83,81,6,

71,84,7,83,81,7,

71,85,7,83,81,7,

70,84,7,82,81,7,

70,84,7,81,80,7,

69,83,7,82,79,6,

69,83,6,81,79,6,

69,82,7,81,79,6,

69,81,6,80,78,6,

68,82,7,79,79,7,

68,81,7,79,78,7,

68,81,7,79,78,7,

86,81,7,79,78,7,

86,80,7,78,77,7,

86,80,7,79,77,7,

85,79,7,78,76,7,

85,79,7,78,76,6,

84,79,7,78,76,7,

83,79,7,77,76,7,

83,79,6,77,75,6,

83,78,6,77,75,7,

83,78,7,76,75,7,

83,77,7,76,73,6,

82,77,7,75,74,7,

81,77,6,75,74,7,

82,77,7,75,73,7,

82,76,6,75,73,6,

81,76,7,74,73,7,

81,76,6,74,72,6,

80,76,7,74,71,7,

79,75,7,74,71,6,

79,75,7,73,71,7,

79,75,6,71,71,7,

79,75,7,73,71,7,

78,74,7,71,71,6,

78,74,7,71,70,7,

78,73,7,71,71,6,

78,73,7,71,70,7,

77,73,7,71,70,7,

77,73,6,71,69,7,

76,71,6,71,69,7,

76,71,7,70,69,7,

76,71,6,70,68,7,

76,71,6,69,68,7,

75,71,7,69,67,7,

75,71,6,70,67,7,

75,71,6,69,68,7,

75,85,7,69,67,7,

74,85,6,68,67,6,

73,83,7,67,66,6,

74,83,7,106,67,7,

73,84,7,107,66,7,

73,83,7,105,66,7,

71,83,6,106,65,6,

71,82,6,103,65,6,

71,81,6,103,65,6,

71,81,6,103,63,6,

71,81,7,103,65,7,

71,80,7,103,63,7,

70,80,7,102,64,7,

71,79,6,101,63,7,

71,79,7,101,63,7,

69,79,7,101,63,7,

69,79,6,100,62,7,

69,79,6,99,62,7,

69,78,6,99,62,7,

69,78,7,99,62,6,

68,78,7,99,99,7,

68,77,7,99,121,7,

67,76,7,98,182,7,

67,77,7,98,263,6,

67,76,7,97,263,7,

67,76,6,96,261,7,

66,76,7,96,259,6,

67,75,7,95,259,7,

65,75,6,96,257,6,

66,74,7,95,255,7,

65,74,7,95,254,6,

65,74,6,94,253,7,

65,74,6,94,251,7,

65,73,6,94,249,7,

64,71,7,92,249,7,

63,71,7,93,248,6,

63,71,7,92,247,7,

63,71,7,92,245,7,

63,71,7,91,244,7,

62,71,7,91,243,7,

62,71,6,90,241,7,

62,71,6,89,240,7,

62,70,7,90,240,6,

62,69,7,89,239,7,

61,70,7,89,237,6,

62,69,7,88,236,7,

61,69,7,88,235,7,

60,70,7,88,234,7,

60,69,6,88,231,7,

60,69,7,87,231,6,

59,69,6,87,231,7,

59,68,7,87,230,7,

60,67,7,86,229,6,

59,68,7,86,227,6,

59,67,7,85,227,7,

59,67,6,85,226,7,

58,67,7,84,224,6,

58,66,7,84,224,7,

58,66,7,84,223,7,

58,66,7,83,222,7,

57,66,7,83,221,7,

57,65,7,83,220,7,

57,65,7,83,220,7,

57,66,7,83,219,7,

57,65,6,82,217,7,

57,64,7,81,216,7,

57,63,7,82,216,7,

56,64,7,81,215,7,

56,63,7,81,213,7,

55,63,7,81,212,7,

55,63,6,80,211,7,

55,63,7,79,211,7,

56,63,7,79,210,7,

55,62,7,79,209,7,

55,63,7,79,207,7,

54,62,7,78,207,7,

54,62,7,78,206,6,

54,61,7,78,205,7,

54,61,7,78,205,7,

65,67,7,77,204,7,

79,67,7,77,203,7,

79,66,7,77,201,7,

78,66,7,76,200,7,

77,65,7,76,199,6,

77,65,7,76,199,7,

77,65,7,75,198,7,

77,64,7,75,197,7,

77,64,7,74,196,7,

76,64,7,74,195,7,

76,63,7,74,195,7,

76,63,7,92,195,7,

96,87,7,89,194,7,

95,86,7,89,193,7,

94,84,7,89,192,7,

94,84,7,89,191,7,

94,85,7,88,191,7,

93,84,8,88,190,7,

93,83,7,88,189,7,

92,83,7,88,188,7,

92,83,7,87,187,7,

91,82,7,86,186,7,

91,82,7,86,185,7,

91,82,7,86,185,8,

91,81,7,85,184,7,

90,80,7,85,184,7,

89,79,7,84,183,7,

90,79,7,84,181,7,

89,79,7,83,181,7,

89,79,7,83,180,7,

88,79,7,83,180,7,

88,78,7,82,179,7,

88,78,7,82,178,7,

87,77,7,82,177,9,

87,78,7,81,177,7,

87,77,7,82,176,7,

85,77,9,81,175,7,

86,77,7,80,175,7,

85,76,9,80,174,7,

84,76,7,79,173,7,

84,76,7,79,173,7,

84,75,7,80,172,7,

83,74,7,78,171,9,

83,75,8,79,170,7,

82,74,7,78,170,7,

82,75,8,78,169,7,

82,74,7,78,167,7,

81,71,7,77,167,7,

81,73,7,76,167,7,

81,73,9,77,167,7,

81,71,7,76,166,7,

79,71,7,76,164,7,

79,71,7,76,165,7,

79,71,7,76,163,7,

79,71,7,74,163,7,

78,71,7,75,162,7,

78,70,7,74,162,7,

78,70,7,74,161,7,

78,70,8,73,160,7,

78,69,7,73,159,7,

77,69,7,73,159,7,

76,69,7,71,158,7,

76,69,7,105,159,7,

76,67,7,105,157,8,

76,67,7,103,157,7,

76,67,7,103,156,7,

75,67,7,102,156,7,

75,67,7,102,155,7,

75,67,7,102,154,7,

74,67,7,101,153,7,

73,66,7,101,152,7,

73,65,7,99,152,7,

73,65,7,99,151,7,

71,64,7,99,151,7,

71,64,7,99,150,7,

71,64,7,98,150,7,

71,63,7,98,148,7,

71,68,7,97,149,7,

71,67,7,97,148,7,

70,68,8,96,147,7,

70,67,7,96,147,7,

70,67,7,95,146,7,

69,66,7,95,146,7,

69,66,7,95,145,7,

69,65,7,94,144,7,

69,65,7,94,143,7,

68,65,7,94,143,7,

67,65,7,93,143,7,

67,64,7,92,142,7,

67,63,7,92,142,7,

67,63,7,92,141,7,

67,63,7,92,140,7,

67,63,7,91,140,7,

67,63,7,91,140,7,

66,62,8,91,138,7,

66,62,7,90,139,7,

65,62,7,89,138,7,

66,62,7,89,138,7,

64,62,7,88,135,7,

67,61,7,88,135,7,

67,62,7,88,135,7,

66,61,7,88,135,7,

66,61,7,88,135,7,

66,60,7,88,135,7,

66,60,7,86,134,7,

66,60,7,86,134,7,

65,60,7,86,132,7,

64,59,7,85,131,6,

63,59,7,85,131,7,

64,59,7,85,131,7,

64,58,7,84,131,7,

63,59,7,84,130,7,

63,58,7,83,129,7,

63,58,7,83,129,7,

63,58,7,83,128,7,

62,57,7,82,127,7,

63,57,7,82,127,7,

62,57,7,82,127,6,

62,57,7,81,127,7,

61,56,7,82,126,7,

62,56,7,81,126,7,

61,56,7,79,125,7,

61,56,7,80,125,7,

61,56,7,79,124,7,

60,56,7,79,124,7,

59,55,7,79,123,7,

60,54,7,78,123,7,

59,54,7,78,123,7,

59,54,7,79,121,7,

59,54,7,78,121,7,

59,54,7,77,121,7,

59,54,7,77,121,7,

58,54,7,77,120,7,

59,53,7,77,120,7,

57,52,7,77,119,7,

57,54,7,76,119,7,

58,52,7,76,118,7,

57,52,7,75,118,7,

57,52,7,75,117,7,

57,52,7,75,117,7,

56,52,7,74,116,7,

56,51,7,74,116,7,

57,51,6,74,115,7,

56,51,7,73,115,7,

56,51,7,73,115,7,

55,51,7,73,114,7,

56,50,7,72,114,7,

54,51,7,71,113,7,

54,50,7,71,113,7,

55,49,7,71,112,7,

55,49,7,71,112,7,

54,49,7,71,112,7,

54,49,7,71,111,7,

54,51,6,71,111,7,

53,51,7,70,112,6,

54,51,7,70,110,7,

53,50,7,70,110,7,

53,50,7,69,109,7,

52,50,7,69,109,6,

53,50,7,69,109,7,

51,50,7,69,108,7,

51,49,7,68,108,7,

51,49,7,68,107,7,

51,49,7,67,107,7,

51,48,7,67,106,7,

51,48,7,67,106,6,

50,50,7,66,106,7,

50,50,7,67,105,7,

51,49,7,66,105,7,

50,49,7,65,103,7,

50,49,6,65,103,7,

49,49,6,66,103,6,

49,48,7,65,103,7,

49,49,7,65,103,7,

48,49,7,64,102,7,

49,47,7,64,102,7,

49,48,6,63,102,7,

49,48,7,63,101,7,

48,47,7,64,101,7,

48,47,7,63,100,7,

48,48,7,63,100,7,

48,47,7,68,100,7,

47,47,7,92,99,7,

47,46,6,91,99,7,

48,46,7,91,99,7,

56,46,7,91,98,7,

71,46,7,90,98,6,

71,45,7,90,98,7,

71,46,7,90,97,7,

70,45,6,89,97,7,

70,45,6,88,97,7,

70,45,7,88,96,7,

69,45,7,88,96,6,

69,44,7,87,95,6,

68,45,6,88,95,7,

69,44,7,87,95,6,

69,44,6,86,95,7,

68,44,7,86,94,7,

68,44,7,86,93,7,

67,44,7,85,94,7,

67,43,7,84,93,7,

67,43,7,85,92,7,

66,44,6,85,93,7,

66,43,7,84,92,6,

66,43,7,83,92,7,

66,42,7,83,92,7,

65,42,6,83,92,7,

65,43,7,82,92,6,

64,42,7,82,91,7,

65,42,7,82,91,6,

64,41,7,81,90,6,

65,41,7,81,89,6,

64,42,6,81,90,7,

63,41,7,79,89,7,

63,41,7,80,89,6,

63,41,6,79,89,6,

63,41,6,79,88,7,

62,41,7,79,88,7,

62,39,6,79,88,6,

62,41,6,79,88,7,

62,39,7,79,87,7,

62,39,7,78,86,7,

61,39,6,77,86,6,

61,39,7,78,86,6,

60,39,7,77,86,6,

61,39,7,77,86,7,

60,39,6,76,86,7,

60,39,7,77,85,6,

59,39,6,76,84,7,

59,39,7,75,83,6,

59,38,7,75,85,7,

59,39,7,76,96,7,

58,38,7,75,95,7,

58,38,7,75,95,7,

58,38,6,75,95,7,

58,37,6,74,93,7,

57,38,7,74,93,7,

57,38,6,74,93,6,

57,38,6,73,92,7,

57,37,6,73,92,7,

56,37,7,73,91,7,

56,37,7,73,91,7,

56,36,6,71,91,7,

56,37,6,71,90,7,

56,37,7,71,90,7,

55,36,7,71,89,6,

56,36,7,71,89,7,

55,36,7,71,89,7,

55,36,7,71,88,7,

54,35,7,70,88,7,

55,36,7,70,88,7,

54,35,7,70,88,6,

54,35,7,76,87,7,

53,35,6,76,87,7,

53,35,7,75,87,7,

53,35,7,76,87,7,

53,35,7,75,86,7,

53,34,7,75,85,6,

52,35,7,75,85,7,

52,41,7,74,85,6,

52,41,6,73,84,6,

51,41,6,73,84,6,

51,41,7,73,83,7,

57,39,7,72,83,7,

58,39,7,71,83,7,

57,39,6,71,83,7,

57,39,7,71,83,7,

57,40,7,71,82,7,

57,39,7,71,82,6,

57,39,6,71,82,7,

56,39,6,70,81,6,

56,39,6,71,113,7,

57,39,7,70,112,7,

55,39,7,71,111,6,

56,39,7,70,111,6,

56,38,7,70,110,7,

58,39,7,69,110,6,

57,38,6,68,109,6,

57,39,6,68,108,7,

56,38,7,68,108,7,

56,37,6,67,108,7,

56,37,7,67,107,7,

56,37,7,67,107,7,

55,37,7,67,105,7,

55,36,7,67,105,7,

56,36,6,66,105,7,

55,36,7,67,103,7,

55,36,7,65,103,7,

54,35,6,65,103,6,

54,36,7,66,103,7,

53,35,7,64,102,7,

54,36,7,64,102,7,

54,35,6,64,102,7,

53,35,7,64,101,7,

53,35,7,65,101,6,

52,35,6,63,101,7,

53,35,7,63,99,6,

52,35,7,62,99,7,

53,34,7,63,99,6,

51,35,6,62,98,6,

52,34,7,62,98,7,

51,34,7,63,98,6,

51,34,7,62,98,6,

51,33,7,61,96,6,

50,34,6,62,97,7,

50,34,7,61,96,6,

50,33,7,61,96,7,

50,33,7,61,99,7,

50,34,7,112,123,7,

49,34,7,110,121,6,

50,34,6,110,120,7,

49,34,6,109,119,6,

49,34,6,108,119,7,

48,33,7,109,119,7,

48,34,7,108,117,6,

48,33,7,107,117,7,

48,32,6,107,116,7,

47,32,6,105,115,6,

47,31,7,105,115,7,

48,32,7,105,115,6,

47,31,7,103,114,6,

47,50,7,103,114,6,

47,50,7,103,113,6,

46,50,7,103,113,6,

46,49,7,102,112,6,

46,49,7,102,111,7,

48,49,7,102,111,7,

71,48,6,101,110,6,

71,49,7,101,109,6,

71,48,6,100,109,6,

71,48,7,99,109,6,

70,48,6,99,108,7,

70,47,6,99,108,7,

70,47,7,98,108,7,

69,47,7,98,138,7,

68,47,7,97,135,7,

69,47,7,98,135,6,

68,47,7,97,135,6,

67,46,7,96,135,7,

67,46,6,96,134,7,

67,45,7,96,134,7,

67,45,6,96,135,7,

67,45,7,117,155,6,

66,45,7,116,154,7,

66,45,6,115,153,6,

65,45,7,115,152,7,

65,45,7,114,152,7,

65,44,7,114,151,7,

65,43,6,113,150,7,

63,44,7,112,150,6,

63,43,6,112,149,7,

63,44,7,112,147,6,

63,43,7,111,147,7,

63,43,6,110,147,6,

62,43,7,110,146,6,

62,42,6,110,145,6,

62,42,7,109,144,7,

62,41,6,109,143,6,

61,41,6,108,143,6,

61,42,7,108,142,6,

61,41,7,108,142,6,

61,42,6,106,141,7,

60,41,6,106,140,6,

60,41,7,105,140,7,

59,39,7,105,139,6,

60,41,7,105,139,6,

60,39,6,103,138,6,

59,39,6,103,137,6,

59,39,6,103,137,7,

58,39,7,103,135,7,

58,39,6,102,135,6,

57,39,7,103,134,7,

58,39,7,101,134,7,

57,39,7,101,133,7,

58,39,7,129,133,7,

57,38,6,145,133,7,

56,39,7,145,131,7,

56,38,6,144,131,6,

56,38,7,143,131,6,

56,37,7,142,129,6,

55,38,6,142,129,7,

56,37,7,141,127,7,

55,38,6,140,127,6,

55,37,6,139,127,7,

54,37,7,139,126,7,

54,37,7,138,126,7,

54,37,6,137,126,7,

54,36,7,137,125,6,

54,37,7,135,125,7,

54,35,7,135,124,7,

54,35,7,135,124,6,

53,36,7,134,123,7,

53,35,7,133,123,6,

51,35,7,133,121,7,

52,35,7,132,121,7,

51,36,7,131,121,7,

51,35,7,131,120,6,

51,35,7,131,120,6,

51,34,7,131,120,6,

51,34,7,130,118,7,

51,34,6,129,119,7,

50,34,7,128,117,7,

51,34,7,127,117,6,

50,33,7,127,116,7,

49,34,7,126,116,7,

50,33,6,126,115,6,

49,33,7,125,115,6,

49,33,7,124,114,7,

49,33,7,124,114,7,

48,33,7,124,113,7,

49,33,6,123,113,6,

48,31,6,123,112,6,

48,32,6,121,112,7,

48,32,6,121,112,6,

48,32,7,121,111,6,

47,32,7,121,110,6,

47,31,7,120,110,7,

47,31,7,120,109,6,

46,31,7,118,109,6,

47,31,7,119,109,7,

46,31,6,118,109,7,

46,31,7,118,107,6,

46,30,6,117,107,6,

46,38,6,116,107,6,

46,37,7,116,106,6,

45,37,7,115,106,7,

45,37,6,115,106,6,

45,36,7,114,103,6,

44,37,7,114,105,6,

45,36,6,115,106,7,

45,36,7,114,105,7,

45,35,7,113,105,7,

44,35,6,112,103,7,

44,35,7,112,103,6,

43,34,7,112,103,7,

44,34,7,112,103,7,

43,34,7,111,103,6,

43,34,6,110,103,6,

43,35,7,110,101,7,

42,34,7,110,102,6,

42,34,7,109,101,6,

43,52,7,108,100,7,

41,52,6,108,100,7,

42,51,6,107,99,6,

42,51,7,107,99,7,

41,51,7,107,98,7,

42,51,6,107,99,7,

41,50,7,106,98,6,

41,50,6,105,97,7,

41,50,7,105,97,7,

39,50,7,103,96,6,

39,49,6,105,96,6,

40,49,7,103,96,7,

39,49,7,103,96,6,

39,49,7,103,95,7,

39,48,7,102,95,6,

39,48,6,102,95,6,

39,48,6,102,95,7,

39,48,7,101,93,7,

39,48,6,101,93,6,

39,47,7,101,93,6,

39,47,6,100,93,6,

39,47,6,100,92,6,

39,47,7,99,92,6,

38,46,7,99,92,7,

37,47,7,98,91,6,

38,46,7,98,91,7,

38,45,6,97,90,6,

39,46,6,97,91,6,

39,46,7,97,89,6,

38,45,6,96,89,7,

38,45,6,96,89,6,

38,45,6,96,89,7,

37,45,6,96,88,6,

38,44,7,96,88,7,

37,44,7,95,88,6,

37,43,7,95,88,7,

37,44,7,94,87,7,

37,44,7,94,87,6,

37,44,7,93,87,7,

36,43,6,94,86,7,

35,43,7,93,86,6,

38,43,7,93,85,6,

38,43,6,92,84,7,

38,43,7,91,84,6,

37,43,6,92,85,7,

38,42,7,91,83,7,

38,43,7,90,83,7,

37,42,7,90,83,7,

38,41,6,89,83,7,

38,41,7,90,83,6,

37,41,7,89,83,6,

37,41,7,90,83,7,

37,41,6,89,82,6,

37,41,6,89,81,7,

36,39,7,89,81,7,

36,40,7,88,80,6,

36,39,7,88,80,7,

36,39,7,88,80,6,

35,39,7,88,80,6,

35,39,7,87,79,6,

35,39,6,86,79,6,

35,39,6,86,79,6,

35,39,7,85,79,7,

35,39,7,85,79,7,

35,39,7,84,78,6,

35,39,6,84,78,6,

35,38,7,85,78,6,

34,38,7,83,77,7,

34,38,6,84,77,7,

35,38,7,83,77,6,

34,38,7,83,77,7,

34,37,6,82,77,6,

34,37,7,83,77,7,

34,38,6,82,76,7,

34,37,6,81,75,6,

33,37,7,82,75,6,

33,36,7,81,76,6,

33,37,7,81,75,7,

33,37,6,80,74,7,

33,37,7,79,74,7,

33,36,6,79,73,6,

57,36,6,80,73,7,

57,36,6,79,74,7,

56,35,6,79,73,7,

56,36,6,79,71,6,

56,35,7,78,72,6,

55,35,7,78,73,7,

55,35,6,78,71,6,

55,35,7,78,71,7,

55,35,6,77,71,6,

54,35,7,78,71,6,

54,34,6,77,71,7,

54,34,6,76,71,7,

53,34,6,76,70,7,

54,34,6,77,70,6,

53,34,6,75,70,6,

53,35,7,76,70,7,

53,34,6,75,70,7,

53,34,7,75,69,7,

53,34,7,75,69,6,

51,34,6,74,69,7,

52,34,6,74,68,6,

51,36,7,73,69,7,

51,35,7,73,68,7,

51,35,6,73,68,6,

51,35,7,73,67,6,

51,34,6,73,67,6,

50,35,7,71,67,7,

50,34,7,71,67,7,

49,34,7,71,67,7,

49,35,6,71,67,7,

50,34,7,71,66,7,

49,34,7,71,66,7,

49,34,7,70,66,7,

49,36,7,70,66,7,

49,43,7,71,65,7,

48,44,7,70,65,7,

48,43,6,69,64,7,

49,43,7,70,65,7,

48,42,6,70,65,7,

48,43,7,69,63,7,

49,42,6,69,63,6,

49,41,7,68,63,6,

48,41,6,69,63,7,

48,41,6,68,63,6,

47,41,7,68,63,7,

48,42,7,68,63,6,

48,41,7,67,62,6,

48,41,6,67,62,6,

47,39,6,67,62,7,

47,39,6,66,62,7,

48,39,7,67,62,7,

46,39,7,66,61,7,

46,39,7,72,61,7,

46,39,7,71,61,7,

46,39,7,71,61,7,

46,39,7,71,60,6,

45,39,7,71,61,7,

46,39,7,71,60,7,

45,38,6,70,60,6,

45,38,6,70,60,6,

45,39,6,70,60,7,

45,38,7,69,60,7,

44,38,6,70,59,7,

44,38,6,69,60,7,

44,38,6,69,59,7,

44,38,7,68,59,7,

44,37,7,69,59,6,

44,38,7,67,58,7,

44,38,7,68,58,7,

43,39,6,67,57,7,

43,39,7,67,57,7,

43,39,6,66,57,6,

43,39,7,66,58,7,

43,39,7,66,57,6,

43,39,7,66,56,7,

42,38,7,66,57,6,

41,39,7,65,56,7,

42,38,7,65,56,7,

56,38,7,65,56,7,

67,38,6,64,56,7,

66,38,7,63,56,7,

92,73,7,64,55,6,

92,71,6,63,56,6,

91,71,7,63,56,7,

90,71,6,63,55,7,

90,71,6,63,54,7,

89,70,7,62,55,7,

88,69,6,63,55,6,

88,70,7,62,54,7,

88,68,6,62,54,6,

88,69,7,62,53,7,

87,68,7,62,54,6,

87,68,7,62,53,7,

87,67,7,61,54,7,

86,67,7,61,54,6,

86,67,7,60,52,6,

86,69,7,61,53,7,

85,103,7,61,52,7,

84,103,6,60,53,7,

84,102,6,60,51,7,

84,101,6,60,51,7,

83,100,6,59,51,6,

83,100,7,59,51,7,

83,100,7,59,51,7,

83,99,6,59,51,7,

81,99,7,59,50,7,

81,98,7,58,51,6,

81,98,7,58,50,6,

81,97,7,58,69,7,

80,97,6,58,71,7,

80,97,7,57,70,7,

79,96,7,56,69,7,

79,95,7,57,70,6,

79,95,7,57,69,7,

79,95,6,57,68,7,

78,94,7,57,69,6,

78,94,7,56,68,7,

77,120,7,56,67,6,

78,118,7,56,67,7,

77,117,7,63,79,7,

77,117,7,73,112,7,

77,115,6,71,111,7,

76,115,6,71,110,6,

76,115,7,71,110,7,

75,114,7,71,109,7,

75,113,7,70,109,7,

75,113,7,70,108,6,

74,113,7,70,107,7,

75,112,7,69,107,7,

89,111,7,69,106,7,

97,111,7,69,105,7,

96,110,7,68,166,7,

96,110,7,68,229,6,

96,109,6,67,227,7,

94,108,7,67,226,6,

94,108,6,67,224,6,

93,107,7,67,223,6,

93,107,7,66,222,6,

93,107,6,66,221,7,

92,106,6,66,220,7,

92,105,7,65,218,7,

92,105,7,69,217,7,

103,103,6,70,216,7,

103,108,7,69,215,6,

103,108,7,69,273,7,

102,108,7,73,399,7,

102,107,6,71,409,6,

101,106,7,71,406,7,

100,106,7,71,402,7,

100,105,6,71,399,7,

99,103,7,70,397,7,

99,103,7,70,395,7,

98,103,7,71,391,6,

97,103,7,69,389,7,

97,102,7,69,388,7,

96,102,7,69,385,7,

97,102,7,69,384,7,

96,101,7,67,380,6,

95,100,6,67,378,7,

95,99,7,67,376,7,

95,100,7,67,374,6,

94,99,7,66,372,6,

94,99,6,67,370,7,

93,98,6,66,369,7,

92,98,6,66,366,7,

92,97,6,66,365,7,

92,97,7,65,363,6,

91,96,7,65,361,7,

91,96,6,65,359,7,

91,95,6,64,357,6,

90,96,6,64,355,7,

89,96,7,64,354,6,

91,96,7,63,352,7,

89,96,7,63,350,7,

89,95,7,63,349,7,

89,96,7,63,347,7,

89,94,7,63,345,7,

88,94,7,63,344,7,

91,94,7,63,342,7,

90,93,7,62,340,7,

89,93,7,62,338,7,

89,93,7,62,337,7,

89,92,7,61,335,7,

88,92,7,61,334,7,

88,92,7,61,332,7,

88,91,7,61,331,7,

88,91,7,61,329,7,

88,90,7,61,327,7,

87,90,7,116,326,7,

87,89,7,115,325,7,

86,88,7,115,323,7,

85,88,7,114,321,7,

85,88,7,113,319,7,

84,88,7,112,318,7,

84,88,7,112,316,7,

84,87,7,111,315,7,

83,87,7,110,313,7,

83,86,7,110,312,7,

82,86,7,110,311,7,

82,86,7,109,309,7,

82,85,7,108,308,7,

89,85,8,192,306,7,

88,84,7,199,305,7,

86,85,7,199,304,7,

87,83,7,197,302,7,

86,83,7,195,301,7,

85,82,8,195,299,7,

84,83,7,194,297,7,

85,82,8,193,295,7,

85,82,9,193,294,7,

84,81,9,192,294,7,

83,81,7,190,292,7,

83,81,8,190,291,8,

82,80,8,188,290,8,

82,79,8,188,287,7,

81,79,7,187,286,8,

81,78,9,185,286,7,

81,78,7,185,284,7,

80,78,9,184,283,9,

81,78,9,183,281,7,

80,78,9,182,280,9,

79,77,7,182,279,8,

79,77,9,180,277,9,

79,77,7,179,277,8,

79,76,9,179,275,7,

109,76,9,178,274,7,

108,77,9,177,271,9,

108,76,7,176,271,7,

107,76,9,175,270,7,

107,75,9,174,268,9,

105,75,8,174,267,8,

105,75,9,173,266,9,

105,75,7,172,265,9,

104,75,8,172,263,9,

103,74,9,171,262,8,

106,74,9,169,262,9,

106,74,9,169,260,7,

103,73,9,169,259,7,

103,72,9,167,257,9,

103,71,9,167,257,9,

103,71,9,166,255,7,

103,71,7,166,254,9,

102,71,9,165,253,9,

102,71,9,164,252,9,

102,71,9,163,251,9,

101,70,7,162,249,9,

100,69,9,161,248,9,

99,70,9,161,248,9,

100,69,8,160,247,9,

98,69,9,159,245,9,

99,69,9,159,243,9,

98,68,9,158,243,9,

97,68,9,158,241,9,

97,68,9,157,241,9,

96,68,9,156,240,9,

97,67,9,156,238,9,

96,66,9,155,238,10,

95,66,9,154,236,9,

94,67,9,153,236,9,

94,66,9,153,235,9,

93,65,9,153,233,9,

94,66,9,152,233,9,

93,65,9,150,231,9,

92,76,9,150,231,8,

92,74,9,149,230,9,

92,73,9,149,228,9,

91,74,9,147,228,9,

90,74,8,147,227,9,

90,73,9,147,226,8,

90,73,9,145,225,9,

89,71,7,146,224,7,

89,71,8,145,223,9,

88,71,8,143,222,9,

88,71,8,143,221,8,

88,71,8,143,220,9,

88,71,7,142,219,9,

87,70,7,141,219,8,

86,70,9,142,217,9,

86,70,7,141,216,7,

110,132,9,140,216,8,

108,132,7,139,215,7,

108,131,8,139,213,8,

106,130,9,138,213,7,

106,129,9,137,211,7,

105,128,9,137,210,7,

105,127,7,135,210,7,

103,127,7,135,208,7,

103,126,7,135,207,7,

103,126,7,134,206,7,

103,125,7,133,206,7,

102,125,8,133,205,7,

102,124,7,132,204,7,

101,124,7,132,203,7,

