
28,44,10,28,19,9,

28,44,11,27,19,10,

27,43,10,29,19,10,

28,44,10,28,19,11,

28,43,9,28,19,10,

28,43,10,28,19,10,

28,43,10,28,19,10,

27,43,10,28,20,10,

28,43,10,28,19,10,

27,43,10,28,19,10,

27,43,10,28,19,10,

27,42,10,28,19,11,

27,41,10,27,18,10,

27,41,10,28,19,9,

27,41,11,27,19,11,

39,41,10,27,18,10,

38,41,10,27,18,10,

38,41,10,27,18,9,

38,41,10,27,18,10,

38,41,10,27,19,10,

38,39,10,27,18,10,

37,39,10,27,18,10,

37,39,10,26,18,10,

37,39,10,27,18,10,

36,39,10,26,18,10,

37,39,9,26,18,10,

36,39,10,26,18,10,

36,39,10,26,18,10,

37,39,10,26,19,10,

35,39,10,26,18,10,

35,38,9,25,18,10,

36,39,9,26,19,10,

35,39,10,25,18,10,

35,39,10,25,18,10,

35,39,10,25,18,10,

35,38,10,48,18,10,

35,38,9,48,18,10,

35,38,10,47,18,10,

35,38,10,47,18,10,

35,37,9,46,18,10,

34,37,10,46,19,10,

34,37,10,46,18,10,

34,37,10,45,18,10,

34,38,11,46,17,10,

34,39,10,45,17,10,

34,39,10,45,17,10,

33,38,10,45,17,10,

33,38,10,45,17,11,

33,38,10,44,17,10,

32,37,10,44,17,10,

32,38,10,44,17,10,

37,37,10,44,17,10,

37,37,9,44,17,10,

37,37,10,44,17,11,

36,37,10,43,17,10,

36,37,10,43,17,10,

36,37,10,44,17,10,

35,37,10,43,17,10,

36,36,10,43,16,10,

35,35,10,42,17,9,

35,37,9,42,17,10,

35,35,10,42,16,10,

35,35,10,42,17,10,

51,35,10,41,17,11,

57,35,10,41,16,11,

56,35,10,41,16,10,

57,35,10,41,16,10,

56,35,11,39,15,10,

56,35,10,40,15,10,

56,34,10,39,16,11,

56,34,10,39,17,10,

56,34,10,39,15,10,

55,34,10,39,15,10,

55,34,10,39,15,10,

54,34,10,39,16,10,

54,34,11,39,16,10,

56,33,10,39,15,10,

56,33,11,39,15,11,

55,33,10,39,15,10,

55,41,10,38,15,11,

54,41,10,38,15,10,

54,39,10,38,15,10,

54,41,11,38,15,10,

54,39,9,38,15,10,

53,39,9,38,15,9,

53,39,10,38,15,10,

53,39,10,37,15,9,

53,39,9,38,15,10,

53,39,10,38,25,10,

52,39,10,37,25,10,

53,39,10,42,26,10,

52,43,9,41,25,10,

51,43,11,41,25,10,

51,43,10,41,24,10,

51,43,10,41,25,10,

51,42,10,41,25,11,

51,42,10,40,24,10,

51,42,9,40,24,10,

50,42,10,39,24,10,

50,41,10,39,24,10,

50,41,10,39,24,10,

49,41,10,39,24,9,

49,41,10,39,24,10,

50,41,11,39,24,10,

49,41,10,39,24,10,

49,39,10,39,23,11,

48,40,10,39,24,10,

48,40,10,38,24,11,

48,39,10,38,24,10,

48,40,10,38,22,10,

48,39,10,39,24,10,

47,39,10,38,23,10,

47,39,10,38,23,9,

46,39,10,38,22,10,

47,39,10,38,22,10,

46,39,10,37,22,11,

46,41,10,37,23,11,

46,39,11,37,22,10,

46,39,10,37,22,11,

45,40,9,36,22,10,

46,39,10,36,23,10,

45,39,10,37,22,10,

45,39,10,37,21,10,

45,39,9,36,22,10,

44,39,10,35,21,10,

44,39,10,36,21,11,

44,39,10,35,21,10,

44,39,10,36,21,10,

44,39,10,35,21,9,

44,39,10,35,21,9,

43,39,11,35,20,11,

43,39,10,35,21,9,

43,39,10,34,20,9,

43,39,10,34,20,11,

43,39,10,34,20,10,

43,39,11,34,20,9,

42,38,10,34,20,10,

42,38,11,34,21,10,

42,39,10,34,19,10,

42,39,10,34,20,10,

41,38,11,33,19,10,

41,38,10,33,20,10,

41,38,10,33,20,11,

41,38,10,33,19,10,

41,37,10,32,19,10,

39,37,10,33,20,10,

40,37,10,32,19,11,

41,37,10,32,19,10,

39,37,10,32,19,10,

39,37,10,31,19,9,

39,37,10,37,19,11,

39,37,10,48,19,10,

39,38,10,47,18,10,

39,37,10,47,19,10,

39,37,10,47,19,10,

39,37,10,46,18,10,

39,37,9,46,19,10,

39,36,10,45,19,10,

38,36,10,45,19,10,

39,37,10,45,19,10,

38,36,10,45,20,10,

38,36,11,45,20,10,

38,79,11,45,19,10,

38,79,10,45,20,10,

38,79,10,44,19,10,

37,79,10,44,19,10,

37,78,11,66,20,10,

37,77,11,75,19,10,

37,77,11,73,19,10,

37,76,11,74,19,10,

36,76,10,73,19,10,

37,77,10,73,20,10,

36,75,10,71,20,10,

36,75,11,71,20,10,

36,78,9,71,19,10,

35,77,10,71,20,10,

36,76,10,71,19,10,

36,76,10,70,19,10,

35,76,10,70,19,10,

35,75,10,70,19,9,

35,75,10,70,19,10,

35,75,11,69,21,10,

34,75,11,69,20,10,

35,74,9,68,20,10,

35,73,10,68,21,10,

34,73,10,68,19,10,

34,73,9,67,19,10,

34,73,10,67,20,9,

34,71,10,67,20,10,

34,71,10,66,20,10,

34,71,10,67,20,10,

33,71,10,67,19,10,

33,71,10,65,19,10,

33,71,10,65,19,10,

33,70,10,65,21,9,

33,70,10,65,24,10,

33,70,10,65,24,10,

32,69,11,65,24,10,

31,69,10,64,24,10,

32,69,10,64,24,9,

32,68,10,63,24,10,

32,67,10,63,24,9,

31,68,10,63,24,10,

31,67,10,63,24,10,

31,67,10,63,24,10,

32,67,10,63,24,10,

32,67,10,62,23,10,

32,67,10,62,24,10,

31,66,10,62,24,10,

32,66,10,61,23,10,

31,65,10,61,23,10,

31,65,10,61,23,10,

31,65,10,60,22,10,

31,65,9,60,22,10,

30,64,10,60,23,11,

31,63,9,60,22,11,

30,63,10,59,23,10,

30,63,10,59,22,10,

30,63,10,59,22,10,

31,63,10,59,22,10,

30,63,10,58,22,10,

30,63,10,59,22,9,

30,62,10,57,22,10,

30,62,10,58,22,10,

30,61,10,57,22,10,

29,61,10,57,21,9,

30,62,10,57,21,10,

30,61,10,57,21,10,

29,60,10,56,21,10,

30,60,9,56,21,10,

29,60,10,56,22,10,

29,60,10,56,22,10,

30,59,9,56,21,10,

29,60,10,56,21,10,

29,59,10,55,21,10,

29,59,9,55,21,10,

28,58,10,54,21,10,

28,58,10,54,21,10,

29,57,10,54,21,10,

30,57,11,54,21,9,

63,57,10,54,21,10,

63,57,10,54,21,10,

63,58,10,101,22,10,

62,57,10,101,21,11,

62,56,10,99,21,11,

62,101,10,99,21,10,

61,102,10,98,21,10,

61,101,10,98,20,10,

60,101,10,97,21,10,

60,99,10,97,21,10,

60,99,10,97,20,10,

60,99,9,96,21,9,

59,98,10,96,21,11,

96,97,10,95,21,10,

95,97,9,95,21,10,

95,96,10,95,20,10,

94,96,10,94,20,11,

93,99,10,94,21,10,

93,98,11,93,21,10,

93,97,10,92,20,10,

92,97,10,92,19,10,

92,96,10,92,20,10,

91,96,9,91,20,10,

90,96,10,91,19,10,

91,95,10,91,19,10,

89,95,11,91,20,10,

89,94,10,90,20,10,

89,94,11,89,19,10,

88,93,10,89,20,10,

89,99,10,88,20,10,

88,99,10,88,19,10,

88,98,10,88,19,10,

87,97,9,88,19,11,

87,97,10,88,19,10,

86,96,10,86,19,11,

86,96,11,87,19,10,

85,95,10,86,19,10,

85,95,10,85,19,10,

84,95,10,85,20,10,

84,94,11,85,19,11,

85,96,10,85,19,10,

84,117,11,85,20,11,

83,116,11,84,19,10,

83,116,10,83,19,11,

82,115,11,83,19,11,

82,114,11,83,19,10,

82,113,11,82,19,11,

82,113,10,82,19,11,

81,113,11,82,19,11,

81,112,11,81,19,11,

81,112,12,81,19,10,

79,112,11,81,19,11,

79,110,10,79,19,10,

79,110,10,79,18,10,

79,110,11,79,18,11,

79,109,10,79,18,11,

78,108,11,79,18,11,

78,108,11,78,18,11,

77,108,11,78,18,10,

77,107,11,78,18,11,

77,106,11,77,19,11,

76,106,11,78,19,11,

76,105,11,77,19,11,

76,104,10,77,18,11,

76,104,11,76,19,11,

75,103,11,76,19,11,

75,103,11,76,19,11,

74,103,11,75,19,11,

74,102,10,75,18,11,

73,102,11,75,19,11,

73,101,11,74,18,11,

73,101,10,73,18,11,

71,100,11,73,18,11,

72,99,11,73,18,11,

71,99,11,73,18,11,

71,99,11,71,18,10,

71,99,11,72,18,10,

71,98,11,71,17,10,

71,97,11,71,18,12,

71,97,11,71,18,11,

70,97,11,71,17,12,

70,96,11,71,19,10,

70,96,11,71,20,10,

69,95,12,71,19,11,

69,95,11,71,19,11,

69,94,11,70,20,11,

69,94,11,69,19,10,

67,94,10,69,19,10,

67,93,11,69,19,11,

67,93,11,69,19,11,

68,92,11,68,19,11,

67,92,12,68,21,11,

67,92,11,67,28,12,

67,92,11,67,30,11,

66,91,11,67,30,11,

66,91,11,67,29,11,

66,90,11,66,29,11,

66,90,11,66,29,11,

65,89,12,66,29,11,

64,89,12,66,29,11,

65,88,11,65,29,11,

65,88,12,65,29,11,

64,87,11,65,28,10,

63,88,11,65,29,11,

63,87,11,63,29,12,

96,87,12,64,30,11,

122,86,11,63,29,11,

121,86,12,63,29,11,

121,86,12,63,29,11,

120,86,11,63,29,11,

119,85,11,63,30,12,

118,84,11,63,29,11,

118,83,11,63,29,11,

117,83,11,62,29,12,

117,83,11,62,29,11,

115,83,11,62,28,11,

115,83,11,62,28,11,

115,82,12,61,28,12,

114,82,12,61,27,12,

114,82,11,61,28,11,

113,81,12,60,28,12,

112,142,12,60,28,11,

112,143,12,61,28,12,

111,142,12,61,27,11,

111,141,12,61,27,11,

110,140,12,69,27,12,

110,140,12,68,27,12,

109,139,12,69,27,11,

109,138,12,68,27,12,

108,137,13,67,27,12,

108,137,12,68,27,12,

108,137,12,67,27,12,

107,135,12,67,26,12,

106,135,13,66,27,13,

106,134,13,66,26,12,

106,133,13,66,26,13,

105,132,13,66,26,13,

104,132,13,66,27,13,

103,131,13,65,28,13,

103,131,13,65,28,13,

103,130,14,65,28,13,

102,169,13,64,28,13,

102,169,14,64,28,13,

102,167,13,63,27,14,

101,166,13,63,28,14,

100,166,14,63,27,13,

99,164,14,62,27,14,

99,163,14,63,27,14,

99,163,14,63,27,14,

98,162,14,62,27,14,

98,161,14,62,26,14,

98,159,15,62,27,14,

97,159,14,61,27,14,

97,159,14,61,26,15,

96,158,14,60,26,15,

96,158,15,61,34,15,

96,157,15,60,45,15,

95,156,15,73,45,15,

95,155,15,71,44,15,

101,155,15,71,44,15,

103,153,15,71,44,15,

103,153,15,71,44,15,

102,152,16,71,43,15,

101,151,15,70,43,15,

101,152,15,71,43,16,

100,150,15,70,43,16,

99,148,15,70,42,15,

99,148,16,69,42,15,

98,147,15,69,43,16,

98,147,15,68,42,15,

97,147,16,68,42,16,

97,146,15,68,42,16,

97,145,15,67,41,16,

97,143,16,67,41,15,

96,143,16,67,41,15,

95,143,16,67,41,16,

95,142,15,66,41,16,

95,142,16,66,40,16,

94,141,16,66,41,15,

94,140,16,65,39,16,

94,140,16,66,73,16,

90,135,12,71,92,12,

89,135,15,76,97,17,

94,139,15,75,95,15,

92,136,15,76,95,16,

92,135,15,74,94,15,

91,134,15,73,93,16,

90,134,15,73,93,15,

90,133,14,73,93,15,

89,132,14,72,91,15,

89,132,14,72,91,15,

89,131,14,71,91,14,

89,131,14,71,90,15,

88,130,14,71,89,14,

88,129,14,70,89,15,

87,129,14,71,89,15,

87,131,14,70,88,15,

86,130,13,70,88,14,

86,129,14,69,88,14,

86,129,14,69,87,14,

85,128,14,69,87,14,

85,127,14,67,86,14,

84,127,14,68,86,14,

83,126,14,67,85,14,

83,126,14,67,85,14,

83,125,13,67,85,14,

83,125,13,67,83,14,

82,124,13,66,83,14,

82,124,13,66,83,14,

81,123,13,66,83,14,

81,123,13,65,82,14,

81,121,13,65,82,14,

80,121,13,65,81,14,

80,121,13,64,81,13,

79,120,13,64,81,13,

79,120,13,64,80,13,

79,119,13,63,80,13,

79,119,13,63,79,13,

78,118,13,63,79,13,

78,118,13,63,79,13,

78,117,13,62,79,13,

77,117,13,62,78,14,

77,115,13,62,78,13,

77,115,13,61,77,13,

77,114,13,61,77,13,

76,114,12,61,77,12,

76,113,12,61,77,13,

76,113,13,60,76,13,

75,112,13,60,76,13,

75,112,13,60,75,13,

74,112,12,59,75,13,

73,112,12,60,75,12,

73,111,12,59,74,12,

73,110,12,59,73,13,

73,110,13,58,73,13,

72,110,12,59,73,12,

71,109,13,57,73,13,

71,109,12,58,73,12,

71,108,12,58,73,13,

71,108,13,58,73,13,

71,107,12,57,71,13,

71,107,13,57,71,13,

71,106,12,57,71,12,

70,105,12,56,71,12,

70,105,12,56,71,12,

69,105,12,56,70,12,

69,103,12,56,70,12,

69,103,12,55,70,12,

68,103,12,55,70,12,

68,103,12,55,70,12,

67,102,12,55,69,12,

67,102,12,54,69,12,

67,101,12,54,69,12,

67,101,12,54,68,12,

67,101,12,54,67,12,

66,124,12,53,67,12,

66,122,12,53,67,13,

66,121,12,53,67,12,

65,121,12,52,67,12,

65,120,12,53,66,12,

65,120,12,52,66,12,

65,119,11,51,66,11,

64,119,12,51,65,12,

64,118,12,52,65,12,

64,162,12,51,65,11,

63,181,12,51,64,11,

63,179,11,51,64,11,

63,178,11,51,63,12,

63,176,12,50,63,12,

62,175,12,51,63,11,

62,176,12,50,63,12,

62,174,12,50,63,11,

61,173,11,49,62,12,

61,172,11,49,62,11,

61,171,12,49,61,11,

61,171,11,49,62,12,

61,169,11,49,62,11,

60,169,11,49,61,11,

60,167,12,48,60,11,

59,167,11,48,60,11,

59,167,11,48,60,12,

60,165,11,48,60,11,

59,164,11,48,60,11,

59,163,11,47,59,11,

59,162,11,47,60,12,

58,162,11,47,59,11,

57,161,11,48,59,11,

58,161,11,46,59,11,

57,159,11,47,59,12,

57,159,11,47,58,11,

57,158,11,45,57,11,

56,158,11,45,57,11,

57,156,11,45,57,12,

56,156,11,45,57,11,

57,155,12,45,56,12,

60,154,11,45,56,11,

60,153,11,45,56,11,

59,153,11,44,56,12,

59,152,11,45,56,11,

59,173,11,45,56,11,

58,172,11,44,55,10,

58,171,11,44,55,11,

57,170,10,44,54,11,

57,169,10,44,54,11,

57,167,11,43,54,11,

57,167,11,43,54,11,

56,167,11,43,54,11,

56,165,11,42,54,11,

56,164,11,43,53,11,

56,170,11,43,53,11,

55,169,11,42,53,11,

56,167,10,42,53,11,

55,167,10,42,51,11,

55,166,10,41,52,11,

54,166,10,41,51,10,

54,165,10,41,51,11,

54,163,10,41,51,11,

54,163,11,42,51,10,

54,162,10,42,51,10,

53,161,11,42,50,11,

53,161,11,41,51,11,

53,161,11,56,50,10,

53,159,11,55,50,11,

52,159,11,55,49,11,

52,158,10,54,49,11,

51,157,10,54,49,10,

51,156,10,54,49,10,

51,156,11,56,49,10,

52,155,11,63,49,11,

51,154,10,62,48,11,

51,153,10,62,48,10,

50,153,10,62,48,11,

50,152,11,61,48,11,

50,151,10,61,48,11,

50,151,11,61,48,11,

49,150,10,60,47,11,

49,149,9,60,46,9,

49,148,9,59,46,9,

49,147,9,59,45,10,

48,146,10,59,47,9,

48,146,9,58,48,9,

48,145,9,58,48,10,

48,144,9,58,48,9,

47,144,9,58,48,9,

47,143,10,57,47,10,

47,142,9,57,47,9,

47,142,9,56,46,9,

46,141,10,56,46,9,

46,141,9,57,46,9,

46,140,9,56,46,9,

46,139,9,56,46,10,

46,139,9,56,46,9,

46,138,9,56,46,10,

45,137,9,56,45,9,

45,137,9,55,45,9,

45,137,9,55,45,9,

45,135,9,55,45,9,

45,135,9,54,44,9,

45,135,9,54,44,10,

45,135,9,54,45,9,

44,134,9,53,44,9,

45,133,9,53,44,9,

44,132,9,53,44,9,

44,132,9,53,44,9,

44,131,9,52,43,9,

43,131,9,52,44,9,

43,130,9,52,43,9,

43,130,9,51,42,9,

43,129,9,52,43,9,

43,128,9,51,43,9,

43,128,9,51,42,9,

42,127,9,51,42,9,

42,127,9,51,42,9,

42,127,9,50,42,9,

42,127,9,50,41,9,

42,126,9,51,42,9,

42,126,9,52,44,9,

41,124,9,52,44,10,

41,124,9,52,44,9,

41,124,9,51,44,9,

41,124,9,51,44,9,

41,122,9,51,43,9,

39,122,9,51,43,9,

41,121,9,51,43,9,

39,121,9,51,42,9,

39,120,9,51,43,9,

39,120,9,50,43,9,

39,119,9,51,42,9,

39,119,9,50,42,9,

39,119,8,49,41,9,

39,118,9,50,42,9,

39,118,10,49,41,9,

39,117,9,49,41,9,

39,117,9,49,41,9,

38,116,9,48,39,9,

38,115,9,48,40,9,

38,115,9,48,41,9,

38,115,9,48,40,9,

38,114,9,48,39,9,

38,114,9,47,39,9,

37,113,9,47,39,9,

37,113,9,47,39,9,

37,112,9,47,39,9,

37,112,9,47,39,9,

38,112,10,46,39,9,

37,113,9,46,39,9,

37,113,9,46,39,9,

36,112,9,45,39,9,

37,112,9,46,39,9,

36,112,9,45,39,9,

36,111,9,45,38,9,

37,110,9,45,38,9,

36,110,9,45,38,9,

35,109,9,44,38,8,

35,109,9,45,38,9,

35,109,9,45,38,9,

35,108,9,76,37,9,

35,107,9,76,37,9,

35,107,9,75,37,9,

35,106,9,75,37,9,

35,106,9,75,37,9,

35,106,9,74,37,9,

35,105,9,73,36,9,

34,105,9,73,36,9,

34,104,9,73,35,9,

34,103,9,71,36,9,

34,103,9,71,36,9,

34,103,9,71,35,9,

34,103,9,71,35,9,

33,103,9,71,35,9,

33,102,8,71,35,9,

33,102,9,70,35,9,

33,101,9,70,35,9,

33,101,9,70,35,9,

33,101,9,70,35,9,

33,99,9,70,34,9,

33,99,9,69,34,9,

32,99,9,69,34,9,

33,99,9,69,35,9,

32,99,9,68,34,9,

32,98,9,68,34,9,

32,98,9,67,34,9,

32,98,9,67,34,9,

31,98,9,67,34,9,

31,98,9,67,33,9,

31,97,9,66,33,9,

31,97,8,66,33,9,

31,97,8,66,34,9,

31,96,8,66,33,9,

31,96,9,66,33,9,

31,96,9,66,33,9,

31,95,9,65,32,9,

31,95,9,65,33,9,

30,95,9,65,32,9,

30,94,9,64,32,9,

30,94,9,64,31,9,

30,94,9,63,31,9,

30,93,9,63,31,9,

30,93,9,63,31,9,

30,92,9,63,31,9,

30,92,9,62,31,9,

30,92,9,63,31,9,

29,91,9,62,31,9,

29,91,9,62,31,9,

30,91,9,61,31,9,

29,90,9,62,31,9,

29,90,9,61,30,9,

29,90,9,61,31,9,

29,89,9,61,31,9,

30,89,9,126,31,9,

29,89,9,125,30,9,

28,88,9,124,30,9,

28,88,9,123,30,9,

28,88,9,123,30,9,

29,88,9,122,30,9,

28,87,9,121,30,9,

28,86,9,121,29,9,

28,87,9,121,29,9,

27,86,9,120,29,9,

28,86,9,119,29,9,

27,85,9,118,29,9,

27,88,9,118,29,9,

28,88,9,118,29,9,

27,86,8,117,28,9,

28,87,9,117,28,9,

28,86,9,116,28,9,

27,86,9,115,28,9,

28,86,9,115,28,9,

27,86,9,114,28,9,

27,84,9,114,29,9,

27,84,9,114,28,9,

31,84,9,113,28,9,

31,84,9,113,27,9,

31,85,9,113,27,8,

31,83,9,112,28,8,

31,83,9,111,28,7,

31,83,9,111,27,9,

31,83,9,111,27,9,

31,82,7,110,27,9,

31,82,9,110,27,9,

30,81,9,109,27,9,

30,81,9,109,26,8,

30,81,9,108,26,9,

30,81,9,108,27,9,

30,79,8,107,27,9,

30,80,9,107,27,9,

29,80,9,106,26,9,

30,79,9,106,26,9,

30,79,9,105,26,9,

29,79,9,105,26,8,

29,79,9,104,26,9,

29,78,7,103,26,9,

29,78,9,103,26,9,

29,78,9,103,25,9,

28,78,9,103,25,8,

28,77,9,102,25,9,

28,87,9,103,25,9,

28,152,9,102,25,9,

28,150,9,101,25,9,

28,149,7,101,25,9,

28,147,9,100,25,9,

28,147,9,99,25,9,

28,146,9,99,25,9,

28,146,9,99,24,9,

27,145,9,98,25,9,

27,144,7,99,25,9,

27,143,9,98,25,9,

27,143,9,98,24,8,

27,142,9,97,24,9,

27,141,8,97,24,9,

27,141,9,96,24,8,

27,140,9,96,24,9,

26,140,9,96,24,9,

27,139,9,96,24,9,

25,139,7,95,24,9,

26,137,9,94,24,8,

26,137,9,94,24,8,

26,137,8,94,24,9,

26,135,9,93,24,7,

25,135,9,93,24,9,

25,134,9,93,24,9,

25,134,9,92,23,9,

25,133,9,92,23,9,

25,133,9,91,23,7,

25,132,9,91,23,9,

25,131,9,91,23,8,

24,131,9,90,23,9,

25,131,9,90,23,8,

25,130,8,89,22,9,

24,130,9,89,22,9,

24,128,7,88,23,9,

25,127,7,88,23,9,

24,127,9,88,22,9,

24,127,9,88,22,8,

24,126,9,88,22,9,

24,126,9,87,23,9,

24,125,9,87,22,9,

24,125,7,87,21,7,

24,124,9,86,22,9,

24,123,9,86,22,9,

24,123,8,85,22,7,

24,123,9,85,26,9,

24,123,9,84,28,9,

23,121,9,84,27,9,

23,121,9,83,27,7,

23,121,9,83,27,9,

23,120,9,83,27,9,

23,119,7,83,27,9,

23,119,9,83,27,9,

23,119,9,82,26,9,

23,118,7,82,27,9,

24,118,9,81,27,9,

23,117,7,81,26,8,

22,117,9,81,25,9,

23,115,9,81,25,9,

22,116,9,81,31,9,

22,115,8,79,32,9,

22,114,9,79,31,7,

22,114,9,79,31,9,

21,113,9,79,31,9,

22,113,9,79,31,9,

22,113,7,79,30,9,

22,112,9,78,30,9,

21,112,8,78,30,9,

22,111,7,78,30,9,

21,111,9,78,30,9,

22,110,9,77,29,9,

21,109,9,77,30,8,

21,109,9,76,29,9,

21,109,9,77,30,9,

21,108,9,76,29,9,

20,108,9,76,29,9,

21,108,9,76,28,9,

21,107,9,75,29,7,

21,107,9,75,29,8,

20,107,8,75,29,8,

21,105,7,75,29,9,

20,106,9,74,29,8,

21,104,9,73,28,9,

19,103,8,73,28,9,

21,103,9,71,28,9,

20,103,8,73,27,9,

20,103,9,73,28,9,

20,103,7,71,28,7,

20,102,9,71,27,8,

20,102,9,71,28,9,

20,102,9,71,27,9,

20,101,9,71,27,8,

19,101,7,70,27,9,

19,100,9,71,27,9,

20,100,9,71,27,9,

20,99,8,70,27,8,

19,99,9,70,27,9,

19,99,8,69,26,9,

19,98,9,69,26,7,

19,98,9,69,26,7,

19,98,8,68,26,9,

19,97,9,69,26,9,

19,101,9,68,26,9,

19,99,9,68,26,8,

19,99,9,67,25,9,

19,99,7,67,25,9,

19,99,7,67,26,9,

19,98,9,67,27,8,

19,98,8,67,26,9,

18,97,8,66,26,9,

19,97,7,66,27,9,

19,97,9,66,26,8,

19,97,9,66,26,9,

19,96,8,65,25,8,

18,96,9,65,25,8,

18,95,9,65,25,9,

18,95,9,64,25,9,

18,95,9,65,25,9,

18,94,9,64,25,9,

18,94,9,64,25,9,

18,94,8,63,25,7,

18,93,7,63,27,9,

18,93,9,63,29,9,

18,92,9,63,64,9,

17,92,9,63,63,9,

18,92,9,62,63,9,

17,92,9,62,63,9,

18,126,9,62,63,9,

18,147,9,62,62,8,

17,147,9,61,62,9,

17,147,9,61,61,9,

17,146,9,61,61,9,

18,145,9,61,61,7,

17,145,9,61,61,9,

17,143,9,61,61,7,

17,143,9,61,61,7,

17,142,9,60,60,9,

18,141,9,60,60,8,

17,141,9,60,60,8,

18,140,9,60,60,8,

17,139,9,59,59,9,

18,139,9,59,58,9,

18,138,9,59,59,9,

17,138,9,58,58,8,

17,137,9,58,58,9,

17,135,9,58,58,9,

17,135,9,58,57,7,

16,135,7,58,57,9,

17,135,9,71,57,9,

17,134,9,76,56,9,

17,134,9,75,56,9,

18,150,9,76,56,9,

17,186,9,75,56,7,

17,185,8,74,56,7,

17,184,9,74,56,8,

17,183,9,74,55,9,

16,182,9,73,55,9,

17,181,8,73,55,9,

17,179,8,71,54,9,

17,179,9,72,55,9,

17,179,8,71,55,9,

16,177,9,71,56,9,

16,176,8,71,56,9,

17,176,7,71,56,7,

16,175,7,71,54,8,

16,174,9,71,54,9,

17,173,9,71,53,9,

16,172,9,70,53,9,

15,172,9,70,53,9,

16,171,9,70,53,8,

15,170,9,69,53,9,

16,169,9,69,53,9,

16,167,9,68,52,9,

15,167,9,67,54,9,

15,167,9,67,53,8,

15,166,9,67,54,9,

15,166,8,67,54,9,

15,165,9,67,53,9,

15,163,9,67,53,9,

15,163,9,66,53,9,

16,163,10,78,127,9,

16,162,9,83,125,9,

15,161,9,82,124,7,

15,161,9,82,124,9,

16,159,9,82,124,9,

15,159,9,82,122,9,

15,158,9,81,121,9,

15,158,9,80,121,9,

15,157,9,81,121,9,

15,156,9,79,120,9,

15,156,9,79,120,9,

16,155,9,79,119,9,

15,154,9,79,118,9,

15,153,9,78,118,9,

15,153,9,79,118,9,

15,152,9,79,117,9,

15,152,9,79,116,9,

15,151,9,79,115,9,

15,150,9,78,115,9,

15,150,9,78,114,9,

15,149,9,78,114,9,

15,148,10,77,113,9,

15,147,9,102,113,9,

15,147,9,103,112,9,

14,147,9,102,112,9,

14,145,9,101,111,9,

14,145,9,101,111,9,

15,143,9,100,110,9,

15,143,9,100,109,9,

14,143,9,99,109,9,

14,143,9,99,108,9,

14,142,9,99,108,9,

15,141,9,99,108,9,

15,141,9,99,107,9,

14,140,9,99,106,9,

14,139,9,98,105,9,

14,138,9,97,105,9,

14,137,9,97,105,9,

14,137,9,96,103,9,

14,135,9,96,103,9,

14,135,9,95,103,8,

14,135,9,95,103,7,

14,135,9,94,102,9,

14,134,9,94,102,8,

13,133,9,93,101,7,

14,133,9,93,101,9,

14,132,8,93,100,9,

14,131,9,93,100,8,

14,131,9,109,99,8,

13,131,9,108,102,9,

14,130,9,108,103,9,

13,129,9,107,103,9,

13,129,9,106,103,9,

14,129,9,106,103,9,

15,172,9,105,102,9,

15,171,9,103,101,9,

15,169,9,103,100,9,

15,167,9,103,101,9,

15,167,9,103,99,8,

14,167,8,102,99,7,

15,167,9,102,99,9,

15,165,9,102,98,9,

15,165,9,101,98,9,

15,163,9,101,98,9,

15,163,9,99,97,9,

15,162,9,99,96,9,

14,161,9,100,96,9,

15,160,8,99,96,9,

14,159,8,99,96,9,

14,159,7,98,95,7,

14,158,9,98,94,8,

14,158,8,97,94,9,

14,157,9,99,94,9,

14,156,9,99,93,9,

14,156,7,98,93,9,

13,155,9,97,93,9,

14,154,8,97,92,9,

14,153,9,97,92,9,

14,153,9,97,92,9,

13,152,9,96,92,8,

13,152,9,96,92,9,

14,151,9,95,91,8,

14,150,9,94,90,9,

13,150,9,94,89,7,

14,148,9,93,89,9,

14,147,9,94,90,9,

13,147,9,93,89,8,

14,147,9,92,89,9,

14,146,8,92,88,9,

14,145,9,92,88,9,

13,145,7,91,88,9,

27,144,9,91,88,9,

27,143,9,90,87,9,

27,143,7,91,87,9,

27,142,9,90,87,9,

27,142,7,98,87,9,

26,142,9,187,101,9,

26,141,9,194,154,9,

26,140,9,192,153,8,

25,139,9,190,152,9,

26,139,9,189,150,9,

25,138,9,188,150,9,

25,137,9,188,148,9,

25,137,9,187,148,9,

25,135,9,185,147,9,

25,135,9,185,146,9,

25,135,9,183,145,9,

25,134,8,183,144,9,

25,134,9,182,143,9,

24,133,9,181,143,8,

24,132,9,179,142,9,

24,131,9,179,142,9,

25,131,9,178,141,9,

24,130,9,178,141,9,

24,130,9,176,140,9,

24,129,9,176,139,9,

24,129,9,174,138,9,

23,127,8,174,137,9,

24,127,7,173,135,8,

23,127,9,173,135,9,

24,127,9,171,135,9,

23,126,9,171,135,9,

23,125,9,169,134,9,

23,125,9,169,134,9,

23,125,9,167,133,9,

23,127,9,167,132,7,

23,135,9,167,131,9,

23,133,9,166,131,9,

22,133,9,165,130,9,

23,132,9,164,130,9,

22,131,9,163,129,9,

22,131,9,163,129,9,

22,131,9,162,127,8,

22,130,9,161,127,9,

22,129,9,161,127,9,

22,128,9,159,126,8,

21,127,9,159,126,9,

21,127,9,158,125,7,

21,127,9,157,125,9,

21,126,9,156,124,9,

22,125,9,156,123,9,

21,124,8,156,123,9,

21,124,9,155,122,9,

21,123,9,154,121,7,

20,123,9,153,121,9,

20,122,9,152,120,9,

21,122,7,152,120,9,

20,121,9,152,120,9,

20,121,9,152,118,9,

20,120,9,150,119,7,

20,120,9,149,117,9,

20,119,9,149,117,9,

19,119,9,148,117,9,

19,118,8,147,116,9,

19,118,9,147,115,7,

19,117,8,146,115,9,

19,116,9,145,114,9,

19,116,9,145,114,9,

19,115,8,143,113,9,

19,115,9,143,113,7,

19,114,8,143,113,8,

19,114,9,142,112,9,

19,113,8,142,111,8,

19,112,9,141,110,9,

18,112,8,140,111,8,

19,112,8,140,110,9,

66,112,9,139,110,9,

66,111,9,139,109,9,

65,111,9,138,109,9,

65,110,9,137,108,9,

64,109,9,137,108,9,

64,109,9,135,110,9,

63,109,9,135,109,9,

63,108,9,135,108,7,

62,108,9,134,108,9,

62,107,9,135,108,9,

62,107,9,134,107,9,

62,107,9,133,106,9,

62,106,9,132,106,9,

61,105,9,132,105,9,

61,103,9,131,105,9,

60,106,9,131,103,9,

61,106,9,130,103,9,

60,106,9,135,106,9,

60,105,9,135,105,9,

60,104,9,135,103,9,

60,103,9,135,105,9,

59,103,9,134,103,9,

59,103,9,133,103,9,

58,103,9,133,103,8,

58,102,9,132,103,9,

57,101,9,131,102,9,

57,101,9,131,102,9,

57,101,9,130,102,8,

56,101,9,130,100,9,

56,100,9,129,100,9,

56,99,9,128,99,9,

56,99,9,127,99,9,

56,99,9,127,99,9,

56,98,9,127,99,7,

56,98,8,126,99,9,

56,97,9,126,99,9,

55,97,9,126,99,9,

54,96,8,124,98,9,

55,115,9,124,98,9,

54,133,9,124,97,9,

55,131,9,124,97,9,

53,131,9,123,96,9,

54,131,9,122,96,8,

53,130,9,122,95,9,

52,129,8,121,95,8,

52,128,7,121,95,9,

52,128,9,121,94,9,

53,127,8,120,94,9,

51,127,9,120,93,9,

51,126,9,120,93,9,

51,125,9,118,93,9,

51,125,9,118,92,9,

51,124,9,118,92,8,

51,123,9,117,92,8,

50,124,8,117,90,9,

50,123,9,115,91,9,

50,122,9,116,90,9,

49,121,9,115,90,9,

63,121,9,115,90,9,

62,120,9,115,89,9,

62,120,9,114,89,9,

62,120,10,113,88,8,

61,127,9,113,88,9,

61,127,7,112,88,9,

61,126,9,112,88,9,

61,126,9,112,88,9,

62,125,9,112,87,8,

63,124,8,111,86,9,

62,124,9,111,86,9,

62,123,9,110,86,9,

61,122,9,109,85,9,

61,121,8,109,84,9,

61,121,9,108,85,9,

61,121,9,108,85,9,

60,120,9,108,83,9,

60,120,9,108,83,9,

60,120,9,107,83,9,

59,120,9,106,83,9,

59,118,9,106,82,8,

59,118,8,105,82,9,

59,117,9,105,82,9,

58,116,9,103,81,8,

57,115,8,104,80,9,

58,115,9,103,80,8,

57,115,8,103,81,9,

57,115,8,103,80,9,

57,114,9,103,80,9,

56,113,9,105,79,9,

56,113,9,105,79,9,

56,112,9,104,79,9,

56,112,9,103,78,9,

56,111,9,104,78,9,

56,111,9,103,78,9,

55,110,9,103,77,9,

55,110,9,102,77,9,

55,110,9,102,77,9,

55,109,9,102,77,9,

54,108,9,102,76,9,

53,108,9,101,76,9,

53,107,8,101,76,9,

53,107,9,99,76,9,

53,107,9,100,76,9,

52,106,9,99,75,9,

52,105,8,99,74,9,

53,105,9,99,74,9,

52,104,9,98,77,9,

51,105,9,98,143,9,

51,103,9,98,143,9,

51,103,9,97,142,8,

51,103,9,97,142,9,

51,103,9,96,140,9,

51,102,9,96,140,9,

53,102,9,96,139,9,

52,101,9,95,138,9,

52,101,9,95,137,9,

52,100,9,94,137,9,

51,99,9,94,135,9,

51,99,9,94,135,9,

54,99,9,93,135,9,

55,99,10,149,135,9,

54,98,9,168,134,9,

54,98,9,167,133,9,

53,97,9,166,132,8,

52,97,9,165,133,9,

53,96,9,165,131,9,

52,96,9,163,131,9,

52,96,8,163,130,9,

52,95,8,162,129,7,

51,95,9,161,129,9,

51,94,9,161,128,9,

51,94,9,159,127,9,

51,93,9,159,127,9,

51,94,9,159,126,9,

50,93,9,157,126,9,

50,92,9,157,125,7,

50,92,9,156,125,9,

66,92,9,155,124,8,

66,92,9,155,124,9,

66,92,9,155,123,9,

64,91,9,153,122,9,

65,90,9,152,122,9,

64,90,9,152,121,9,

63,89,9,151,121,9,

63,89,9,150,120,9,

63,89,9,150,120,7,

63,88,9,149,120,9,

63,88,9,148,119,9,

62,88,9,147,118,9,

62,88,9,147,118,9,

61,88,9,146,117,9,

61,87,9,146,116,9,

61,86,8,145,115,9,

61,86,9,145,115,9,

61,86,9,143,115,9,

60,85,9,143,115,9,

60,85,9,143,114,9,

60,85,9,142,113,9,

60,84,7,141,113,9,

59,84,9,141,112,9,

59,84,9,140,112,9,

59,83,9,140,111,9,

58,83,8,139,111,9,

58,82,9,139,110,9,

58,82,9,137,110,9,

57,82,8,137,109,9,

57,82,9,137,109,9,

57,81,9,135,108,8,

57,80,9,135,108,9,

57,81,9,135,108,8,

56,79,9,135,107,9,

56,79,9,134,107,9,

56,79,9,133,106,9,

55,79,9,133,106,8,

55,79,9,131,105,9,

55,79,9,131,105,9,

55,79,9,131,103,9,

55,78,9,142,103,9,

54,78,9,141,103,8,

54,77,8,140,103,8,

53,77,9,141,103,9,

53,79,9,139,102,9,

53,79,9,139,102,9,

53,79,9,138,102,9,

53,78,9,137,102,9,

52,78,9,135,101,9,

52,77,9,135,100,9,

51,77,9,135,100,9,

51,77,8,135,99,9,

51,77,9,135,99,7,

51,76,9,134,99,9,

51,76,9,134,98,9,

51,76,7,133,98,9,

51,77,9,133,98,9,

51,117,9,131,97,9,

50,117,9,131,96,8,

50,115,9,131,96,9,

49,115,9,130,96,9,

49,114,9,129,95,8,

49,113,9,128,95,9,

49,113,9,128,94,9,

49,113,9,127,94,9,

49,112,9,127,94,9,

48,112,9,126,94,9,

48,111,9,126,93,9,

48,110,9,126,93,9,

47,110,9,125,93,9,

48,110,9,125,92,9,

47,109,9,124,92,9,

47,109,9,147,92,9,

48,108,9,243,91,9,

46,108,8,241,90,9,

46,107,9,239,90,9,

46,106,9,238,89,9,

46,106,9,237,90,9,

46,105,9,235,88,9,

46,105,9,234,89,9,

45,103,9,232,88,7,

45,103,9,231,88,9,

45,103,9,230,88,9,

45,103,9,229,88,9,

45,102,9,227,87,9,

44,102,9,227,86,8,

44,102,9,225,86,9,

44,101,9,225,86,9,

43,101,9,224,85,9,

43,99,9,222,85,9,

44,99,8,221,84,9,

43,99,9,221,84,9,

43,99,9,220,83,9,

44,98,9,220,83,9,

43,98,9,219,99,9,

43,97,9,217,111,9,

42,97,8,216,110,9,

42,97,8,215,109,7,

42,96,9,214,109,9,

42,96,9,213,108,9,

41,96,9,211,107,9,

41,95,8,211,108,9,

41,94,10,210,108,9,

41,185,9,209,106,9,

41,184,9,207,105,9,

39,182,8,207,105,9,

40,180,9,206,103,9,

39,179,9,205,103,7,

39,178,9,204,103,9,

39,178,9,203,103,9,

39,176,8,202,102,9,

39,176,8,201,101,9,

39,175,9,199,101,9,

39,174,9,199,100,7,

39,173,9,198,100,9,

39,172,8,197,99,9,

38,171,9,197,99,9,

39,170,9,195,99,9,

38,169,8,195,98,9,

38,167,8,194,98,8,

38,167,9,193,98,9,

38,167,9,193,97,9,

37,166,9,192,98,9,

38,166,9,191,97,9,

37,165,9,191,97,9,

38,164,9,190,97,9,

38,163,9,189,97,9,

37,163,9,187,96,9,

37,162,9,187,96,9,

37,161,9,187,96,9,

37,161,9,186,96,9,

37,159,9,185,95,9,

37,159,9,184,95,9,

36,159,9,184,95,9,

46,158,9,183,93,9,

46,157,9,182,93,9,

45,156,9,181,92,9,

45,155,9,180,93,9,

45,155,9,179,92,9,

44,154,9,179,92,9,

45,153,9,178,91,9,

45,152,9,177,92,9,

45,152,9,177,90,10,

45,152,9,176,90,9,

45,151,10,175,90,9,

44,149,9,174,89,9,

44,149,9,173,88,9,

44,149,9,173,88,9,

43,147,9,172,88,9,

43,147,9,172,87,9,

43,146,9,171,88,9,

43,146,9,169,87,9,

42,145,9,169,87,9,

43,144,9,167,86,9,

42,143,9,167,86,9,

42,143,9,167,85,9,

42,143,9,167,85,9,

41,142,9,166,85,9,

41,142,9,165,84,9,

41,141,9,164,83,9,

43,167,9,163,83,9,

43,166,9,163,83,9,

43,187,10,163,83,9,

43,186,9,161,82,9,

42,185,9,161,82,9,

42,184,9,160,82,9,

42,183,9,159,81,10,

41,183,9,159,81,9,

41,181,9,158,80,9,

41,180,9,158,80,10,

41,179,9,157,80,9,

39,178,9,156,79,9,

41,177,9,156,79,9,

41,176,9,156,79,10,

56,175,9,154,79,9,

56,175,9,153,78,9,

56,175,9,153,78,9,

54,173,9,153,78,9,

54,172,9,152,78,9,

54,172,9,151,78,9,

54,171,9,151,77,9,

53,169,9,150,77,9,

53,169,9,150,76,9,

53,167,9,149,76,9,

53,167,9,148,75,9,

52,167,9,147,75,9,

51,165,9,147,74,9,

51,165,8,146,74,9,

51,164,9,145,73,9,

51,163,9,145,73,9,

51,162,9,144,73,7,

51,161,9,143,73,9,

50,161,9,143,72,7,

50,161,9,143,73,9,

50,159,9,142,71,9,

50,159,9,142,71,8,

50,158,9,141,71,7,

49,157,7,141,71,9,

49,156,9,140,71,9,

48,156,9,140,70,7,

48,155,9,139,70,9,

56,155,8,138,70,9,

56,153,9,138,70,9,

56,153,9,138,140,9,

56,152,9,137,150,7,

55,152,9,135,148,7,

55,152,9,135,147,9,

55,150,9,135,147,9,

54,165,7,135,145,9,

54,164,9,134,145,9,

53,163,9,133,144,9,

53,163,9,132,143,9,

53,162,9,131,143,9,

52,161,9,131,141,9,

53,160,9,131,141,9,

52,159,8,131,140,9,

52,159,10,130,140,9,

51,158,9,129,139,9,

51,157,9,129,137,9,

51,156,9,128,137,9,

51,183,10,127,137,9,

50,183,9,138,135,9,

50,183,9,137,135,9,

50,181,8,135,135,9,

50,179,9,135,134,7,

49,179,9,135,133,8,

49,178,8,135,133,9,

49,177,9,134,132,8,

49,177,8,134,131,9,

49,176,9,133,131,9,

49,174,9,132,131,9,

48,174,7,131,130,9,

48,173,9,131,129,8,

47,172,9,130,129,9,

48,171,9,130,127,9,

48,170,9,129,127,9,

47,169,9,128,126,9,

47,167,9,127,126,9,

47,167,9,127,125,8,

46,167,8,127,125,9,

46,166,9,127,125,10,

80,228,9,126,123,9,

79,227,9,125,123,9,

78,224,9,125,122,9,

78,223,9,124,122,9,

78,222,7,124,121,9,

77,221,9,123,121,8,

76,220,9,122,120,8,

76,218,9,122,120,9,

75,217,9,122,119,8,

75,216,9,121,119,9,

76,215,9,121,118,9,

75,214,9,121,118,9,

74,212,9,120,117,7,

73,212,9,120,116,9,

73,211,9,119,116,9,

73,209,9,118,115,9,

73,208,9,117,114,7,

71,207,9,117,114,9,

71,206,9,117,113,7,

71,206,9,115,113,9,

71,204,9,115,113,9,

71,203,9,115,112,9,

71,202,8,115,112,9,

70,201,9,114,112,7,

70,199,9,114,111,9,

70,199,8,114,111,9,

69,198,9,113,110,9,

68,198,9,113,109,9,

68,196,9,113,109,9,

69,195,9,114,129,9,

69,195,10,145,211,10,

68,195,9,222,329,9,

67,192,8,220,326,9,

67,192,9,217,324,9,

66,191,9,216,321,9,

66,190,9,215,319,7,

66,189,9,214,318,9,

66,188,9,213,316,9,

66,187,9,212,314,9,

65,187,10,211,312,9,

64,185,9,209,310,9,

65,185,10,208,309,9,

65,184,9,207,307,9,

64,184,9,206,305,9,

63,183,9,205,304,9,

63,181,9,205,302,9,

63,180,9,204,300,9,

63,179,9,203,299,9,

63,179,9,201,295,9,

62,178,9,199,295,9,

62,177,9,199,294,9,

62,176,9,199,293,9,

62,175,9,198,291,9,

61,175,9,196,289,9,

60,174,9,195,287,9,

61,173,9,195,286,9,

60,172,9,194,285,9,

60,171,9,193,283,9,

59,171,9,192,282,9,

59,170,9,191,280,9,

59,169,9,190,280,9,

59,167,9,189,278,9,

59,167,9,189,276,9,

58,167,9,188,275,9,

58,166,9,187,273,9,

58,165,9,186,271,9,

57,165,9,185,271,9,

57,164,9,185,269,9,

56,163,9,184,268,9,

57,163,10,183,267,10,

57,162,10,183,266,10,

57,161,10,182,263,10,

56,160,9,180,263,11,

56,160,10,180,262,10,

56,159,10,179,260,10,

56,158,10,178,259,11,

56,158,10,177,258,10,

55,157,10,176,256,10,

56,157,11,176,255,11,

55,155,11,175,254,11,

55,155,11,174,252,10,

54,153,11,173,251,10,

53,153,11,172,249,11,

54,153,11,171,248,11,

54,152,12,171,247,12,

53,152,12,169,245,12,

54,150,13,169,244,12,

53,150,13,167,243,12,

52,149,13,167,242,12,

51,148,12,166,241,12,

51,147,13,165,240,13,

51,147,13,165,238,13,

51,146,13,164,237,13,

51,145,13,163,236,13,

50,145,14,162,235,13,

50,143,14,161,233,13,

50,142,13,161,231,13,

50,145,14,161,231,13,

50,196,14,159,230,14,

49,193,13,158,227,13,

49,192,13,157,226,13,

48,191,13,156,225,13,

48,190,13,156,224,12,

48,189,13,155,224,12,

48,188,13,154,223,14,

67,187,13,153,221,13,

66,186,13,153,220,12,

66,185,13,152,219,13,

65,184,13,152,217,13,

65,184,13,150,217,13,

64,182,13,150,216,13,

64,180,12,149,215,12,

63,179,13,148,214,13,

63,179,13,147,213,12,

63,178,12,147,211,12,

63,177,13,146,211,13,

62,176,13,145,209,13,

62,176,12,145,209,12,

62,175,13,144,207,12,

61,177,12,143,206,12,

61,175,12,143,205,12,

61,174,12,142,205,12,

61,174,12,142,204,12,

63,173,12,141,202,12,

63,172,12,140,201,12,

63,171,12,140,201,12,

62,170,13,149,199,13,

62,169,12,238,199,12,

61,167,12,236,197,11,

61,167,13,235,198,13,

62,167,13,233,197,13,

61,167,13,231,196,13,

61,166,13,231,195,13,

61,165,13,229,194,13,

62,164,13,227,193,13,

60,163,13,226,192,13,

60,162,13,225,192,13,

79,163,13,224,191,13,

96,161,13,223,190,13,

95,160,13,222,189,13,

95,159,13,221,188,13,

94,158,14,220,187,13,

93,158,14,218,187,14,

93,157,14,217,185,14,

93,156,14,216,185,13,

92,156,14,216,184,14,

92,155,14,214,183,14,

92,154,14,213,182,14,

91,153,14,211,181,14,

91,179,15,211,180,15,

90,195,15,209,179,15,

89,193,15,207,178,15,

89,192,15,207,177,15,

88,190,15,206,177,15,

88,189,15,205,176,15,

88,188,15,204,176,15,

87,188,16,203,175,16,

88,187,16,202,174,15,

86,185,16,201,173,16,

86,185,17,199,172,16,

85,184,16,199,171,16,

85,182,17,198,171,17,

85,182,16,197,170,17,

83,180,17,196,169,17,

83,179,17,195,171,17,

83,178,17,194,170,16,

82,177,17,193,167,17,

82,176,17,193,167,17,

115,175,17,191,167,17,

114,175,17,190,166,17,

113,175,17,190,166,18,

115,224,17,188,164,17,

115,222,17,187,164,17,

114,220,18,186,163,17,

113,220,17,185,162,17,

113,217,17,184,163,18,

113,216,17,184,201,17,

112,215,17,183,199,17,

111,213,17,182,198,17,

110,212,17,180,197,17,

109,213,17,179,195,17,

109,212,17,179,195,17,

108,211,17,178,193,17,

107,209,17,177,192,17,

107,207,17,176,191,16,

107,207,17,175,190,17,

105,205,17,174,189,17,

105,205,16,173,188,17,

105,203,17,172,187,17,

103,202,17,172,186,17,

103,201,16,171,185,17,

103,199,17,170,184,17,

103,199,16,169,183,17,

102,198,16,167,182,16,

101,196,16,167,180,16,

101,195,17,167,180,16,

101,194,16,166,179,16,

99,194,16,166,178,16,

99,193,17,164,177,16,

98,192,16,163,176,16,

98,191,16,163,175,16,

98,190,16,162,174,16,

97,189,16,161,173,15,

97,188,16,159,172,16,

96,187,16,159,172,16,

96,185,16,159,170,16,

95,185,16,158,170,16,

95,184,15,158,169,16,

94,183,15,157,168,16,

94,182,15,157,167,16,

93,181,15,156,166,16,

93,179,15,155,165,15,

92,179,16,154,164,15,

92,178,15,153,163,15,

91,177,15,152,163,16,

91,176,15,152,162,15,

91,175,15,151,161,15,

90,174,15,151,161,15,

89,174,15,150,159,15,

89,173,15,149,159,16,

89,172,15,148,159,15,

88,171,14,147,157,15,

88,169,15,146,156,15,

87,167,14,146,156,15,

86,167,15,145,155,15,

86,167,15,144,154,14,

86,166,14,143,153,14,

86,165,14,143,153,14,

84,164,14,143,152,15,

84,163,14,142,152,15,

84,163,14,141,151,14,

83,162,14,141,151,14,

83,161,14,140,150,14,

83,160,14,139,149,13,

82,159,13,139,148,13,

82,159,14,139,193,15,

82,158,14,138,254,14,

81,157,14,137,252,14,

80,156,14,135,250,14,

80,156,13,135,249,14,

81,158,13,135,247,14,

79,158,14,134,246,14,

79,156,14,134,243,14,

79,156,13,133,243,13,

78,155,13,132,241,13,

78,154,14,131,240,14,

78,153,13,131,239,13,

77,153,13,131,237,14,

77,152,13,130,236,13,

76,151,13,130,235,13,

76,150,14,129,233,13,

76,152,12,128,231,12,

74,150,13,127,230,13,

