
21,17,7,41,39,7,

21,17,7,41,39,7,

20,17,7,41,39,7,

21,17,7,39,39,7,

20,17,7,41,41,7,

20,17,7,41,41,7,

20,17,7,48,40,7,

27,17,7,47,39,7,

26,17,7,47,39,7,

26,17,7,47,39,7,

25,17,7,46,39,6,

25,17,7,46,39,7,

25,16,7,46,39,7,

25,17,7,46,38,7,

25,17,7,46,39,7,

25,17,7,45,39,7,

24,16,7,45,38,7,

24,16,7,45,38,7,

24,16,7,45,38,7,

25,17,7,44,37,7,

31,17,7,45,38,7,

30,16,7,44,38,7,

30,16,7,45,37,7,

30,16,7,44,37,7,

30,16,7,44,37,7,

30,17,7,44,37,7,

30,47,7,43,37,7,

29,50,7,43,36,7,

30,49,7,43,35,7,

29,49,7,43,36,6,

30,48,7,43,36,7,

29,48,7,43,35,7,

29,48,6,42,35,7,

29,48,7,44,35,7,

29,48,7,44,36,7,

28,48,7,45,35,7,

28,48,7,44,35,7,

28,47,7,44,35,7,

28,47,7,44,35,7,

28,46,7,43,36,7,

28,47,7,44,37,7,

28,46,7,44,37,7,

28,46,7,43,36,7,

27,46,7,43,36,7,

28,45,7,42,36,7,

27,46,7,42,37,7,

27,46,7,42,35,7,

26,46,7,42,35,7,

28,45,7,41,35,7,

27,44,7,41,35,6,

27,45,7,42,35,7,

26,44,7,41,35,7,

26,44,7,41,35,7,

26,44,7,40,35,7,

26,43,7,41,34,7,

26,44,7,41,35,7,

26,44,7,40,34,7,

26,44,7,39,34,7,

27,43,7,44,34,7,

26,43,7,46,34,7,

26,43,7,46,34,7,

25,42,7,45,33,7,

26,42,7,46,34,7,

25,42,7,45,33,7,

25,42,7,45,33,7,

25,41,7,45,33,7,

26,41,7,45,33,7,

25,41,7,45,33,7,

25,41,7,44,32,7,

25,41,7,44,33,7,

25,40,7,44,32,7,

25,41,7,44,32,7,

38,39,7,44,31,7,

38,41,7,44,31,6,

37,39,7,44,31,7,

37,41,7,43,31,7,

37,39,7,43,31,7,

36,39,7,43,31,7,

37,39,7,43,31,7,

36,39,7,43,31,7,

37,39,7,42,31,7,

36,38,7,42,31,7,

36,38,7,41,31,7,

35,38,7,41,31,7,

36,38,7,41,30,7,

36,38,7,48,31,7,

50,38,7,60,30,7,

50,37,7,59,30,7,

49,38,7,58,30,7,

49,37,7,58,30,7,

48,37,7,57,30,7,

48,36,7,57,30,7,

49,38,7,57,30,7,

48,36,7,57,29,7,

47,36,7,57,30,7,

47,36,7,57,29,7,

47,37,7,56,30,7,

46,36,7,56,29,7,

48,36,7,56,29,7,

46,36,7,56,29,7,

47,35,7,56,29,7,

46,35,7,56,29,7,

47,35,7,55,29,7,

46,35,7,56,29,7,

46,35,7,54,28,6,

45,35,7,54,28,7,

45,35,7,54,29,7,

45,35,7,53,28,7,

45,35,7,54,28,6,

45,34,7,54,28,7,

44,34,7,53,27,7,

45,34,7,53,28,7,

44,34,7,52,28,7,

44,34,7,52,27,7,

44,33,7,52,27,7,

44,34,7,53,27,7,

43,33,7,52,27,7,

43,33,7,52,27,6,

43,33,7,51,27,7,

43,33,7,51,27,7,

43,33,7,51,26,7,

43,32,7,51,27,6,

42,31,7,51,26,7,

43,33,7,50,27,7,

41,32,7,50,26,7,

42,31,7,50,25,7,

41,31,7,50,26,7,

42,31,7,49,25,7,

42,31,7,50,25,7,

41,31,7,48,25,7,

41,31,7,49,25,7,

41,31,7,49,25,7,

39,31,7,48,25,7,

39,30,7,48,25,7,

39,30,7,48,25,6,

39,31,7,48,25,7,

39,31,7,48,25,7,

41,30,7,48,25,7,

42,30,7,48,25,7,

43,30,6,46,24,7,

42,30,7,46,25,7,

41,30,7,48,25,7,

41,30,6,47,24,7,

41,30,7,46,24,7,

41,29,7,45,24,7,

39,29,7,46,24,7,

41,29,7,46,24,7,

41,28,7,45,24,7,

41,29,7,45,24,7,

41,28,7,46,24,7,

43,29,7,89,24,7,

43,29,7,89,24,7,

43,28,7,88,23,7,

42,29,7,88,23,7,

42,29,7,88,24,7,

41,28,7,86,23,7,

41,28,7,86,23,7,

41,28,7,86,23,7,

41,28,7,85,23,7,

41,28,7,85,23,7,

41,27,7,84,23,7,

40,27,7,84,22,7,

41,28,7,83,22,6,

39,28,7,83,22,7,

40,27,7,83,23,7,

39,27,7,83,22,7,

39,27,7,82,22,6,

39,26,7,82,22,7,

39,26,7,81,22,7,

39,27,7,81,21,7,

39,27,7,82,24,7,

39,26,7,80,22,7,

39,27,7,79,23,7,

39,26,7,79,23,7,

39,25,7,79,22,7,

38,26,7,79,22,6,

38,27,7,79,22,7,

39,26,7,79,22,7,

38,25,7,79,22,7,

39,25,7,78,22,7,

38,25,7,77,23,7,

38,25,7,77,22,7,

39,25,7,77,23,7,

38,25,7,76,22,7,

37,25,7,77,22,7,

38,24,7,76,22,7,

37,24,7,76,22,7,

38,24,7,76,22,7,

37,24,7,76,22,7,

36,25,7,75,22,7,

37,25,7,75,22,7,

37,24,7,74,22,7,

36,24,7,74,22,7,

36,24,7,73,21,7,

36,24,7,73,21,7,

36,24,7,73,21,7,

35,24,7,73,21,7,

35,24,7,71,22,7,

35,24,7,72,20,7,

35,24,7,71,21,6,

35,22,7,71,21,7,

35,23,7,71,20,7,

35,23,7,71,20,6,

35,23,7,71,21,7,

35,23,7,71,21,7,

35,23,7,70,21,7,

35,22,7,70,20,7,

34,23,7,69,19,7,

35,23,7,70,20,7,

34,23,7,69,20,7,

34,22,7,69,19,7,

33,22,7,68,19,7,

34,22,7,68,19,7,

34,21,7,68,20,7,

33,22,7,68,19,7,

34,22,7,67,20,7,

34,22,7,67,19,7,

33,22,7,67,19,7,

32,21,7,67,19,6,

33,22,7,67,19,7,

33,21,7,66,19,7,

32,21,7,66,19,7,

33,21,7,65,19,7,

32,22,7,65,19,7,

32,21,7,65,19,7,

31,20,7,64,19,7,

32,21,7,65,19,7,

31,21,7,63,19,7,

31,20,7,64,18,7,

31,21,7,63,18,7,

32,21,7,63,18,7,

31,19,7,63,19,7,

31,20,7,62,18,7,

31,21,7,62,18,7,

32,20,7,63,18,7,

31,20,7,63,18,7,

31,20,7,62,18,7,

31,20,7,62,18,7,

31,19,7,62,18,7,

31,20,7,62,17,7,

31,20,7,61,17,7,

30,19,7,62,17,7,

31,19,7,60,17,7,

31,19,7,60,17,7,

30,19,7,61,17,7,

31,19,7,60,17,7,

31,20,7,60,18,7,

31,53,7,60,18,7,

31,53,6,59,17,7,

31,53,7,59,17,6,

30,51,7,59,18,7,

30,51,6,59,17,7,

30,51,7,58,17,7,

30,51,7,58,17,7,

29,51,7,58,17,7,

30,51,7,99,17,7,

29,50,7,98,17,7,

29,50,7,98,17,7,

30,49,7,96,16,7,

29,50,7,97,16,7,

29,49,7,96,17,7,

29,49,7,96,17,7,

29,50,7,96,16,7,

28,49,7,96,16,7,

29,48,7,94,16,7,

29,49,7,95,16,7,

29,48,7,94,16,7,

28,48,7,93,16,7,

28,48,7,93,16,7,

28,47,7,93,16,7,

28,48,7,92,16,7,

28,47,7,92,15,7,

27,47,7,91,17,7,

28,46,7,91,16,7,

28,46,7,91,16,7,

27,46,7,90,15,7,

27,46,7,89,15,7,

27,46,7,89,16,7,

27,46,7,89,15,7,

27,46,7,89,16,7,

27,45,7,88,15,7,

27,45,7,88,15,7,

26,45,7,88,15,7,

26,45,7,88,15,7,

27,45,7,87,15,7,

26,44,7,88,15,7,

26,44,7,87,15,6,

26,44,7,85,14,7,

25,44,7,86,15,7,

26,43,7,85,16,7,

25,43,6,85,14,7,

25,43,7,84,15,7,

26,43,7,84,15,7,

25,42,7,83,15,7,

25,43,7,83,14,6,

25,42,7,84,15,7,

25,42,7,83,15,7,

26,42,7,83,14,7,

25,41,7,82,15,7,

25,41,7,82,14,7,

25,42,7,81,16,7,

26,41,6,82,15,7,

25,41,6,82,15,7,

25,41,7,80,15,7,

25,41,7,79,15,6,

25,39,7,79,15,7,

25,39,7,79,15,7,

28,40,7,79,15,7,

41,39,7,79,15,7,

42,39,7,78,15,7,

41,39,7,78,15,7,

41,39,7,78,17,7,

41,61,7,78,15,7,

40,65,7,77,15,7,

40,64,7,77,15,7,

40,64,7,77,18,7,

39,63,7,77,18,7,

39,63,7,76,17,7,

39,62,7,76,18,7,

39,63,7,75,17,7,

39,63,7,75,17,7,

39,61,7,75,18,7,

39,63,7,119,60,7,

39,61,7,121,59,7,

39,61,7,120,58,7,

38,61,7,120,57,7,

38,64,7,119,58,7,

38,64,7,119,57,7,

38,64,7,118,56,7,

39,63,7,117,56,7,

37,63,7,116,56,7,

37,63,7,115,56,7,

37,63,7,115,56,7,

37,62,7,115,56,6,

37,62,6,114,56,7,

37,62,7,115,56,7,

37,62,7,115,56,7,

36,61,7,114,55,7,

37,61,7,114,54,7,

35,61,7,113,54,7,

36,60,7,113,54,7,

35,60,7,112,53,7,

35,59,7,112,54,7,

35,60,7,112,54,7,

35,59,7,111,53,7,

35,59,7,111,53,7,

36,58,7,110,53,7,

35,59,7,109,52,7,

35,58,7,109,52,7,

34,58,7,109,52,7,

34,59,7,109,53,7,

34,57,7,108,51,7,

34,58,7,107,51,7,

34,56,7,107,51,7,

33,57,7,107,51,7,

34,56,7,106,51,7,

34,56,7,105,51,7,

41,56,8,106,50,7,

88,56,7,105,50,7,

86,56,7,103,50,7,

86,56,7,103,49,7,

86,56,7,103,49,7,

84,56,7,103,49,7,

84,55,7,103,49,7,

84,54,7,102,49,7,

83,54,7,102,48,7,

83,53,7,101,48,7,

82,54,7,101,48,7,

82,54,7,99,48,7,

82,53,7,100,48,7,

89,54,7,99,47,7,

102,52,7,99,47,7,

102,52,7,98,47,7,

101,52,7,98,46,7,

100,54,7,97,46,7,

100,70,7,97,47,7,

99,68,7,97,46,7,

99,68,7,96,46,7,

98,68,7,96,46,7,

97,67,6,96,45,7,

97,67,7,95,46,7,

97,67,7,95,45,7,

97,67,7,96,45,7,

96,66,7,94,45,7,

96,65,7,95,44,7,

95,65,7,95,44,7,

95,65,7,95,44,7,

95,66,7,94,44,7,

94,66,7,94,51,7,

94,65,7,94,51,7,

93,65,7,93,51,7,

93,65,7,92,50,7,

92,64,7,92,50,7,

92,63,7,92,50,7,

92,63,7,92,49,7,

91,63,7,91,49,7,

91,62,7,91,49,7,

90,63,7,91,49,7,

90,62,7,90,49,7,

89,62,7,90,48,7,

90,62,7,90,54,7,

89,62,7,88,56,7,

88,62,7,89,55,7,

88,62,7,89,55,7,

88,66,7,88,55,7,

88,69,7,88,54,7,

87,68,7,88,54,7,

87,68,7,87,54,7,

87,68,7,87,53,7,

86,67,7,87,54,7,

85,67,7,86,53,7,

86,67,7,86,53,7,

85,67,7,85,53,7,

84,66,7,86,53,7,

84,66,7,85,51,7,

83,66,7,84,51,7,

83,65,7,84,52,7,

83,65,7,83,51,7,

83,65,7,83,51,7,

83,66,7,83,51,7,

82,65,7,83,51,7,

82,65,7,82,51,7,

82,65,7,82,50,7,

81,64,7,82,51,7,

81,64,7,81,50,7,

80,63,7,82,76,7,

81,63,7,80,85,7,

80,63,7,80,84,7,

79,63,7,81,83,7,

79,63,7,79,83,7,

78,63,7,79,83,7,

78,63,7,79,83,7,

78,63,7,79,83,7,

78,62,7,79,81,7,

78,62,7,79,81,7,

77,62,7,78,81,7,

77,62,7,78,81,7,

76,61,7,77,81,7,

76,61,7,78,79,7,

76,60,7,77,79,7,

76,61,7,77,79,7,

76,61,7,76,78,7,

75,61,8,77,79,7,

75,60,7,76,78,7,

75,60,7,75,77,7,

74,60,7,76,77,7,

74,59,7,76,77,7,

74,59,7,75,77,7,

74,58,7,75,77,7,

74,117,7,74,76,7,

74,115,7,74,76,7,

73,115,7,73,76,7,

73,113,7,73,75,6,

73,113,7,73,75,7,

72,113,7,73,75,7,

71,112,7,73,75,7,

71,112,7,71,74,7,

71,111,7,71,73,7,

71,110,7,71,73,7,

71,110,7,71,72,6,

71,109,7,71,72,7,

71,108,7,71,71,7,

70,108,7,70,71,7,

69,108,7,70,71,7,

70,108,7,70,71,7,

69,107,7,70,71,7,

68,107,7,69,71,7,

68,106,7,69,70,7,

68,103,7,69,71,7,

67,105,7,70,71,7,

67,103,7,69,70,7,

67,103,7,69,69,7,

67,103,7,68,69,7,

81,103,7,68,69,7,

83,103,7,68,69,7,

83,103,7,67,67,7,

82,101,7,67,67,7,

83,102,7,67,67,7,

81,101,7,66,67,7,

80,100,7,66,67,7,

79,100,7,66,66,7,

81,99,7,66,67,7,

80,99,7,66,65,7,

79,99,7,65,66,7,

79,98,7,64,66,7,

79,98,7,64,64,7,

78,97,7,65,64,7,

78,97,7,64,64,7,

77,97,7,63,64,7,

78,96,7,63,63,7,

77,95,7,63,64,7,

77,95,7,63,64,7,

77,96,7,63,63,7,

76,94,7,63,63,7,

76,94,7,63,63,7,

76,93,7,63,62,7,

75,94,7,62,63,7,

75,93,7,62,62,7,

76,93,7,62,61,7,

76,92,7,61,62,7,

76,92,7,62,61,7,

75,91,7,61,61,7,

75,91,7,60,61,7,

75,91,7,60,60,7,

74,90,7,60,61,7,

74,90,7,60,60,7,

74,90,7,60,60,7,

74,89,7,60,60,7,

73,89,7,59,59,7,

73,88,7,59,59,7,

73,88,7,59,59,7,

73,88,7,59,59,7,

83,88,7,59,59,6,

82,87,7,58,58,7,

82,87,7,59,59,7,

82,86,7,58,57,7,

81,86,7,57,57,7,

81,86,7,57,57,7,

79,86,7,57,59,7,

79,85,7,57,65,7,

80,85,7,57,65,7,

79,84,7,56,63,7,

79,84,7,56,63,7,

79,84,7,56,63,7,

78,83,7,56,63,7,

78,83,7,56,63,7,

78,82,7,56,62,7,

77,82,7,55,62,7,

77,82,7,56,62,7,

76,82,7,54,61,7,

77,81,7,54,61,7,

76,81,7,55,61,7,

75,81,7,55,61,7,

76,80,7,54,60,7,

75,80,7,54,60,7,

75,79,7,54,60,7,

75,79,7,54,60,7,

74,79,7,53,59,7,

74,78,7,54,60,7,

74,78,7,53,59,7,

73,78,7,53,59,7,

73,85,7,53,59,7,

72,84,7,52,59,7,

71,83,7,52,58,7,

71,83,7,52,58,7,

71,83,7,51,57,7,

71,83,7,52,58,7,

71,82,7,52,57,7,

71,82,7,52,57,7,

71,81,7,51,56,7,

81,81,7,51,56,7,

86,81,7,51,56,7,

85,80,7,50,56,7,

85,80,7,51,56,7,

85,80,7,50,55,7,

85,79,7,49,56,7,

83,80,7,49,55,7,

83,79,7,50,55,7,

83,79,7,50,55,7,

83,79,7,49,55,7,

83,78,7,49,54,7,

83,78,7,96,61,7,

81,77,7,95,61,7,

82,77,7,94,60,7,

81,76,7,94,60,7,

81,76,7,93,60,7,

79,76,7,93,59,7,

79,76,7,93,59,7,

80,76,7,92,59,7,

79,75,7,92,59,7,

79,76,7,92,58,7,

79,75,7,91,58,7,

78,75,7,90,57,7,

78,74,7,90,58,7,

77,74,7,90,57,7,

78,73,7,89,56,7,

77,73,7,89,56,7,

77,72,7,89,56,7,

76,71,7,88,56,7,

76,71,7,88,56,7,

75,71,7,88,56,7,

76,71,7,88,56,7,

75,71,7,87,56,7,

74,71,7,86,56,7,

75,71,7,86,55,7,

75,70,7,85,54,7,

75,70,7,85,54,7,

73,70,7,85,55,7,

73,69,7,84,54,7,

73,69,7,85,54,7,

72,84,7,84,53,7,

71,83,7,83,54,7,

71,83,7,83,53,7,

71,83,7,83,53,7,

71,83,7,82,52,7,

71,83,6,82,53,7,

71,83,7,82,52,7,

71,82,7,82,51,7,

71,82,7,81,51,7,

70,81,7,81,51,7,

69,80,7,81,51,7,

69,80,7,80,51,7,

69,91,7,80,51,7,

69,90,7,79,50,7,

69,89,7,79,50,7,

68,89,7,79,50,7,

69,88,7,79,50,7,

68,88,7,78,79,7,

67,88,7,78,91,7,

67,88,7,77,90,7,

67,88,7,77,90,7,

67,87,6,77,89,7,

67,86,7,77,88,7,

67,86,7,76,89,7,

66,87,7,76,88,7,

66,86,7,77,88,7,

129,84,7,76,87,7,

147,84,7,76,86,7,

146,84,7,74,86,7,

145,84,7,75,86,7,

143,83,7,74,85,7,

143,83,7,74,84,7,

142,83,7,74,84,7,

142,83,7,73,83,6,

141,82,7,73,83,7,

141,81,7,73,83,7,

140,81,7,71,82,7,

139,80,7,71,82,7,

138,81,7,71,81,7,

139,80,7,71,82,7,

135,81,7,71,81,7,

137,80,7,71,81,7,

135,79,7,71,81,7,

135,79,7,71,80,7,

135,133,7,70,79,7,

134,132,6,70,79,7,

133,133,7,69,79,7,

133,132,7,69,79,7,

133,147,7,69,79,7,

131,147,7,68,78,6,

131,146,7,69,77,7,

131,145,7,69,77,7,

130,144,7,69,76,7,

129,143,7,68,77,7,

129,143,7,67,76,7,

127,142,7,67,75,7,

127,141,7,67,76,7,

127,141,7,67,75,7,

126,140,7,66,75,7,

125,140,7,67,74,7,

124,139,7,66,74,7,

124,137,7,66,73,7,

124,137,7,66,73,7,

123,135,7,65,73,7,

133,135,7,64,73,7,

132,135,7,65,71,7,

131,135,7,65,71,7,

131,134,7,63,71,7,

131,133,7,63,71,7,

129,133,7,63,71,7,

129,132,7,63,71,7,

127,131,7,63,70,7,

127,131,7,63,70,7,

127,131,7,62,69,7,

126,129,7,62,69,7,

158,129,7,62,69,7,

156,129,7,61,69,7,

155,128,7,61,68,7,

154,127,7,60,68,7,

153,127,7,61,67,7,

152,126,7,60,68,6,

152,126,7,60,67,7,

152,125,7,60,67,7,

150,124,7,60,66,7,

150,124,7,60,67,7,

149,124,7,59,66,7,

149,123,7,59,65,7,

147,122,7,59,66,7,

147,121,7,58,65,7,

147,121,7,57,65,7,

145,121,7,58,64,7,

145,120,7,58,63,7,

145,120,7,57,63,7,

143,119,7,57,63,7,

143,118,7,57,63,7,

142,118,7,56,63,7,

141,117,7,57,63,7,

141,117,7,57,62,7,

141,116,7,64,62,7,

139,116,7,63,62,7,

140,114,7,63,61,7,

138,115,7,63,61,7,

137,114,7,63,61,7,

137,113,7,63,61,7,

136,113,7,62,60,7,

135,112,7,62,61,7,

135,112,7,62,61,7,

135,112,7,62,60,7,

134,111,7,62,60,7,

133,110,7,61,59,7,

133,110,7,60,59,7,

132,109,7,61,59,7,

131,109,7,60,59,7,

131,109,7,60,58,7,

130,108,7,59,57,7,

130,107,7,59,57,7,

129,108,7,59,57,7,

129,107,7,59,57,7,

129,106,7,58,57,7,

127,105,7,58,57,7,

127,105,7,57,56,7,

126,105,7,58,56,7,

125,105,7,57,56,7,

125,103,7,57,56,7,

125,103,6,56,56,7,

125,103,7,56,55,7,

123,103,7,56,55,7,

124,102,7,56,55,7,

122,102,7,56,55,6,

121,101,7,56,54,7,

121,101,7,55,54,7,

121,100,6,55,54,7,

120,99,7,55,53,7,

120,99,6,54,53,7,

119,99,7,54,53,7,

118,98,7,54,53,7,

118,98,7,54,52,7,

118,97,7,53,52,7,

117,98,7,54,52,7,

117,98,7,53,51,6,

115,97,7,54,51,7,

115,96,7,53,51,7,

116,96,7,53,51,7,

115,96,7,53,51,7,

114,95,6,52,51,7,

115,94,7,63,51,7,

114,95,7,67,50,7,

113,95,7,66,51,7,

112,93,7,66,51,7,

113,93,7,65,50,7,

111,93,7,65,51,7,

111,92,7,65,50,7,

111,92,7,64,50,7,

111,91,7,63,49,7,

110,92,7,64,49,7,

110,91,7,63,49,7,

109,91,7,63,48,7,

109,90,7,63,48,7,

109,91,7,63,49,7,

108,89,7,63,48,7,

107,89,7,62,48,7,

107,89,7,62,48,7,

105,89,7,62,48,7,

106,88,7,62,48,7,

105,88,7,62,47,7,

105,88,7,61,47,7,

103,87,7,61,46,7,

103,86,7,60,47,7,

103,86,7,60,46,7,

103,86,7,60,46,7,

103,86,6,59,46,7,

102,86,7,60,46,7,

102,84,7,59,45,7,

102,84,7,60,45,7,

101,84,7,59,46,7,

101,83,7,58,64,7,

100,83,7,58,63,7,

99,83,7,58,63,7,

100,83,7,59,63,7,

99,83,7,57,62,7,

99,81,7,56,62,7,

98,82,7,57,62,7,

98,82,7,57,62,7,

97,82,7,56,62,7,

97,81,7,57,62,7,

97,81,7,56,61,7,

96,80,7,56,60,7,

97,79,6,56,60,7,

96,79,7,56,60,7,

95,79,7,55,59,7,

95,79,7,55,60,7,

94,78,7,55,60,7,

94,78,7,54,60,7,

94,79,7,54,59,7,

93,78,7,54,59,7,

94,77,7,54,59,7,

93,77,7,53,57,7,

92,77,7,53,57,7,

92,76,7,53,57,7,

92,76,7,53,57,7,

92,75,7,53,57,7,

91,76,7,53,57,7,

91,76,7,52,56,7,

91,91,7,51,56,7,

89,90,7,52,57,7,

90,89,7,51,56,7,

89,90,7,51,56,6,

89,89,7,51,56,7,

89,89,7,51,56,7,

92,88,7,51,55,7,

90,88,7,59,56,7,

90,88,7,57,54,7,

90,87,7,59,54,7,

90,87,7,57,54,7,

89,86,7,57,53,7,

89,86,7,57,53,7,

89,85,7,56,54,7,

88,85,7,56,53,7,

88,85,7,56,52,7,

87,85,7,56,53,6,

88,84,7,56,52,7,

87,84,7,56,52,7,

86,83,7,55,51,7,

87,83,7,56,51,7,

86,82,7,54,51,7,

86,82,7,54,51,7,

85,82,7,55,51,7,

84,82,7,54,51,7,

85,81,6,54,51,7,

84,80,7,53,51,7,

84,80,7,54,50,7,

83,80,7,53,49,7,

83,79,7,53,50,7,

83,79,7,52,50,7,

83,79,7,52,50,7,

82,79,7,51,49,6,

82,78,7,51,49,7,

82,79,7,51,48,7,

81,78,7,51,48,7,

80,77,7,51,49,7,

80,78,7,51,48,7,

81,77,7,50,48,7,

80,107,7,51,48,7,

79,123,7,50,48,7,

79,121,7,57,47,7,

79,120,7,79,47,7,

79,119,7,79,47,7,

79,119,7,79,47,7,

100,121,7,79,47,7,

152,131,7,78,46,7,

150,130,7,78,46,7,

150,131,7,77,45,7,

149,129,7,77,45,7,

148,128,7,77,45,7,

147,127,7,76,45,7,

147,126,7,76,45,7,

146,126,7,76,45,7,

145,126,7,76,45,7,

145,125,6,75,45,7,

143,124,7,74,44,7,

143,124,7,73,44,7,

143,124,7,73,44,7,

142,123,7,74,44,6,

141,122,7,73,43,7,

141,121,7,73,43,7,

140,121,7,73,43,7,

139,120,7,71,43,7,

139,120,6,71,48,7,

137,120,7,71,48,7,

137,119,7,71,48,6,

136,118,7,71,47,7,

135,118,7,71,47,7,

135,116,7,70,47,7,

134,117,7,70,46,7,

134,116,7,69,46,7,

134,115,7,69,45,7,

132,115,7,69,45,7,

132,114,7,69,88,7,

131,113,7,69,94,7,

131,114,7,67,93,7,

130,113,7,79,93,7,

130,113,7,88,92,7,

129,112,7,87,92,7,

129,112,7,87,91,7,

127,112,7,85,91,7,

127,110,7,85,89,7,

127,110,7,84,90,7,

126,110,7,84,89,7,

126,109,7,83,89,7,

125,108,7,84,93,7,

124,108,7,83,92,7,

125,108,7,83,91,7,

124,107,7,82,90,7,

123,106,7,82,91,7,

123,106,7,81,89,7,

122,105,7,81,89,7,

121,103,7,81,88,7,

121,103,7,81,89,7,

120,105,7,79,88,7,

120,103,7,79,88,7,

120,103,7,79,87,7,

119,103,7,79,86,7,

118,102,7,79,86,7,

117,101,7,78,86,7,

117,101,7,78,86,7,

116,101,7,78,85,7,

116,99,7,77,84,7,

115,99,7,77,84,7,

115,99,7,77,83,7,

115,99,7,76,83,7,

115,98,7,76,83,7,

114,99,7,76,83,7,

113,98,7,75,85,7,

113,97,6,75,84,7,

112,96,7,75,85,7,

112,96,7,73,83,7,

111,96,7,73,83,7,

111,96,7,73,83,7,

111,96,7,73,83,7,

110,95,7,73,82,7,

110,94,7,71,82,7,

109,94,7,73,82,7,

109,93,7,71,81,7,

108,93,7,71,81,7,

108,93,7,71,80,7,

107,92,7,71,81,7,

107,92,7,71,79,7,

106,92,7,70,79,6,

106,91,7,71,79,7,

105,91,7,70,78,7,

105,91,7,69,78,7,

103,90,7,69,79,7,

104,89,7,69,78,7,

103,89,7,68,77,7,

103,89,7,69,77,7,

103,89,7,68,77,7,

103,88,7,68,76,7,

102,88,7,67,76,7,

101,88,7,67,76,7,

101,88,7,67,76,7,

100,86,7,67,76,7,

99,86,7,66,75,7,

100,86,7,66,74,7,

100,85,7,66,74,7,

99,85,7,65,73,7,

99,85,7,66,74,7,

98,85,7,65,73,6,

98,84,7,65,73,7,

99,84,7,65,73,7,

97,83,7,65,71,7,

98,83,7,65,71,7,

96,83,7,63,71,7,

96,83,7,63,71,7,

96,83,7,63,71,7,

95,88,7,63,71,7,

95,88,7,62,71,7,

95,87,7,62,71,7,

94,86,7,62,71,7,

94,86,7,62,69,7,

93,86,7,62,70,7,

94,86,7,61,69,7,

93,85,6,61,69,7,

92,85,7,61,69,7,

92,84,7,61,68,7,

93,83,7,61,68,7,

91,83,7,61,68,7,

92,83,7,60,68,7,

91,83,6,60,67,7,

91,82,7,59,67,7,

90,82,7,60,67,7,

89,81,7,59,66,6,

89,81,7,59,66,7,

89,81,7,59,65,7,

88,81,7,59,66,6,

89,79,7,59,65,7,

88,80,7,57,65,7,

88,80,7,57,65,7,

88,79,6,57,64,7,

88,79,7,57,64,7,

86,79,7,57,65,7,

86,79,7,57,63,6,

86,78,7,57,63,7,

86,77,7,57,63,7,

85,78,7,57,63,7,

85,78,7,62,63,7,

85,77,7,62,62,7,

85,76,7,61,63,7,

84,77,7,61,61,7,

84,77,7,60,61,7,

83,76,7,61,61,7,

83,75,7,61,62,7,

82,75,7,60,61,7,

82,75,7,60,61,7,

82,74,7,60,60,7,

82,74,7,60,60,6,

81,73,7,60,60,7,

81,73,7,60,61,7,

81,73,6,59,60,7,

80,73,7,59,59,7,

80,72,7,58,60,7,

80,73,7,58,59,7,

79,71,7,58,58,7,

79,71,7,58,58,7,

79,71,6,58,58,7,

79,71,7,56,57,7,

78,71,6,57,57,7,

78,71,7,57,57,7,

78,71,7,56,57,7,

78,71,7,56,57,7,

78,70,7,56,56,7,

78,70,7,56,56,7,

77,69,7,56,56,7,

76,69,7,56,56,7,

77,69,7,55,56,7,

76,68,7,55,56,7,

76,69,7,55,56,7,

75,69,7,54,55,7,

75,68,7,54,55,7,

75,67,7,54,55,6,

74,67,7,53,56,7,

74,67,7,54,54,7,

74,67,7,53,54,7,

73,67,7,53,54,7,

73,66,6,53,54,7,

73,66,7,53,54,6,

73,65,7,52,53,7,

73,65,7,52,54,6,

71,66,7,53,52,7,

71,65,7,52,53,7,

71,65,7,52,53,7,

71,65,7,51,52,7,

71,65,7,51,51,7,

70,64,7,50,51,7,

70,64,7,51,51,7,

70,63,7,50,51,7,

71,63,7,50,51,7,

74,63,7,50,51,7,

73,63,7,50,50,6,

73,63,7,50,50,6,

73,63,7,50,50,7,

73,71,7,49,50,6,

71,71,7,50,50,7,

72,71,7,49,50,7,

71,71,7,49,61,7,

71,70,7,50,61,7,

71,70,7,49,60,7,

71,70,7,49,61,7,

71,70,7,48,59,7,

71,69,7,48,60,7,

70,69,7,48,59,7,

70,69,7,48,59,7,

69,68,7,48,59,7,

69,67,7,47,59,7,

69,68,7,48,58,7,

68,67,7,47,57,7,

68,67,7,47,57,7,

68,66,7,47,57,7,

67,67,7,47,57,7,

67,66,7,47,57,6,

67,66,6,46,56,7,

67,67,7,46,57,7,

67,66,7,46,56,7,

67,65,7,46,56,7,

66,65,7,46,56,7,

67,65,7,46,55,7,

66,63,7,46,56,7,

66,63,7,45,56,7,

65,63,7,45,55,6,

65,63,7,44,56,7,

65,63,7,44,54,7,

65,62,7,45,54,7,

64,63,7,45,54,7,

65,62,7,44,54,7,

63,62,7,44,53,7,

64,62,7,44,53,7,

63,62,7,44,53,7,

63,61,7,44,53,7,

63,62,7,43,53,7,

63,61,7,44,54,7,

62,60,7,43,54,7,

63,60,7,43,53,7,

62,60,7,43,53,6,

62,60,7,42,53,7,

62,60,6,42,52,7,

62,60,7,42,51,7,

61,59,7,42,52,7,

61,60,7,42,52,7,

60,59,7,43,51,7,

69,58,7,41,52,7,

69,58,7,41,51,7,

69,59,7,42,51,7,

69,58,7,41,51,7,

68,57,7,41,51,7,

68,57,7,41,50,7,

67,57,7,41,50,6,

67,56,7,41,50,7,

67,57,7,41,50,7,

66,56,7,39,50,7,

67,56,7,39,49,7,

66,57,7,39,50,7,

66,56,7,39,49,6,

66,56,7,39,49,7,

95,56,7,39,48,7,

95,56,7,39,48,7,

94,55,7,39,48,7,

93,55,6,39,48,7,

92,55,7,39,48,7,

93,55,7,38,48,7,

92,54,7,39,48,7,

92,54,6,39,48,7,

91,54,7,38,48,7,

91,54,6,38,46,7,

90,53,7,38,47,7,

90,54,7,38,47,7,

89,53,7,38,46,7,

89,52,7,38,46,7,

89,52,7,38,46,7,

88,52,7,37,46,7,

88,53,7,38,67,7,

88,52,7,38,67,7,

88,51,7,37,67,7,

88,51,7,36,66,7,

86,51,7,36,66,6,

86,51,7,37,65,7,

86,51,7,36,66,7,

86,51,7,36,65,7,

85,50,7,36,65,7,

84,50,7,36,64,7,

84,50,7,36,63,7,

84,50,7,35,63,7,

84,50,7,35,63,7,

83,49,7,35,63,7,

84,49,7,35,63,7,

83,49,6,35,63,7,

83,48,6,35,63,7,

82,49,7,34,62,7,

82,49,7,35,62,7,

81,48,7,34,62,7,

82,48,7,35,62,7,

80,48,7,34,61,7,

80,48,7,35,61,7,

81,49,7,34,61,7,

79,48,6,37,61,7,

79,48,7,37,61,7,

79,48,7,36,61,7,

79,47,7,35,59,7,

78,56,7,37,60,7,

78,56,7,36,60,7,

78,56,7,36,58,7,

78,56,7,36,59,7,

78,56,7,101,59,7,

77,55,7,102,58,7,

77,55,7,100,58,7,

76,54,7,99,58,7,

76,54,6,99,58,7,

76,54,7,99,57,7,

76,54,6,98,56,7,

75,53,7,97,57,7,

75,54,7,97,56,7,

74,53,7,97,56,7,

75,52,7,96,57,7,

73,52,7,96,56,7,

74,52,7,96,55,6,

73,51,7,96,56,7,

73,51,7,96,55,7,

72,51,7,95,55,7,

72,51,7,94,55,7,

71,51,7,94,54,7,

71,51,7,93,54,7,

71,51,7,92,55,7,

71,50,7,92,54,7,

71,50,7,92,54,7,

71,50,7,91,53,7,

70,49,7,91,54,7,

70,50,7,90,53,7,

70,49,7,90,53,7,

70,49,7,90,52,7,

70,49,7,90,52,7,

69,49,7,89,51,7,

69,48,7,89,51,7,

68,48,7,88,51,7,

68,48,7,88,51,7,

68,48,7,88,51,7,

67,47,7,88,51,7,

67,48,7,87,50,7,

67,48,7,87,50,7,

67,47,7,86,49,7,

67,47,7,87,50,7,

66,47,7,86,49,7,

65,47,7,85,49,7,

66,47,7,85,50,7,

65,46,7,84,49,7,

65,46,7,84,48,7,

65,46,7,84,49,7,

65,46,7,83,48,7,

64,46,7,83,48,7,

63,45,7,83,48,7,

63,44,7,83,48,7,

64,44,7,82,48,7,

63,45,7,81,48,7,

63,44,7,81,48,7,

63,62,7,81,48,7,

62,62,7,81,48,7,

63,61,7,80,48,7,

62,61,7,81,48,7,

62,60,7,81,48,6,

61,60,7,86,47,7,

61,60,6,85,48,7,

61,60,7,85,47,7,

61,59,6,85,46,7,

61,60,7,83,47,7,

60,59,7,83,46,6,

60,59,7,83,46,6,

60,59,7,83,47,7,

60,58,7,83,46,7,

60,57,7,82,46,7,

60,57,7,82,45,7,

59,57,7,82,45,7,

62,57,7,82,46,7,

97,56,7,82,45,7,

96,56,7,81,44,7,

96,57,6,80,45,7,

95,56,7,79,45,6,

95,56,7,79,44,7,

94,56,7,79,44,7,

94,55,7,79,44,7,

94,55,7,79,43,7,

92,55,7,79,44,7,

93,54,7,78,43,7,

92,54,7,78,43,7,

91,55,7,78,43,7,

91,53,7,77,43,7,

91,54,7,76,43,7,

90,54,7,77,42,7,

89,53,7,76,42,7,

89,53,7,77,43,7,

89,53,7,76,42,7,

89,52,7,76,42,7,

88,52,7,75,41,7,

88,52,7,74,41,7,

88,51,7,75,41,6,

88,51,7,75,41,7,

87,51,7,74,41,7,

86,51,7,74,39,7,

86,51,7,74,40,7,

86,51,7,73,39,7,

85,50,7,73,39,7,

85,50,7,71,39,7,

85,49,7,71,39,7,

85,50,7,71,39,7,

84,50,7,71,39,7,

83,49,7,71,39,7,

83,49,6,71,39,7,

83,49,7,71,39,7,

82,49,7,71,39,7,

83,48,7,70,39,7,

82,49,7,70,38,7,

82,48,7,70,39,7,

81,48,7,70,38,6,

81,48,7,69,38,7,

81,48,7,69,38,7,

80,48,7,69,38,7,

79,48,7,69,37,7,

79,47,7,68,38,7,

79,47,7,67,38,7,

79,47,7,68,38,7,

78,46,7,67,37,7,

78,46,7,67,39,7,

78,46,7,127,84,7,

78,46,7,127,83,7,

78,46,7,126,83,7,

77,45,7,125,82,7,

77,45,7,124,82,7,

76,45,7,124,81,7,

76,44,7,123,82,7,

76,44,7,123,80,7,

76,44,7,122,79,7,

75,44,7,121,80,7,

75,44,6,120,79,7,

75,44,7,120,79,7,

74,43,7,120,79,7,

74,43,7,119,78,7,

73,44,7,119,78,7,

73,43,7,118,78,7,

73,43,7,118,78,7,

71,43,7,117,77,7,

71,43,7,116,76,7,

71,42,7,116,76,7,

71,43,7,115,76,7,

71,41,7,115,76,6,

71,42,7,115,75,6,

71,41,7,114,75,7,

71,41,7,113,75,7,

70,41,7,113,74,7,

69,41,7,112,73,7,

69,41,7,112,73,7,

70,41,7,112,73,7,

69,41,7,112,71,6,

69,39,7,111,73,7,

68,39,7,111,71,7,

67,39,7,110,71,7,

67,40,7,109,71,7,

68,39,7,109,71,7,

67,39,7,108,71,7,

67,39,7,108,71,7,

67,39,6,108,70,7,

66,39,6,107,70,7,

66,39,7,107,70,7,

66,38,7,106,70,7,

65,39,7,105,69,7,

65,39,7,105,69,7,

65,39,7,104,69,7,

65,39,7,105,68,7,

63,38,7,103,68,7,

63,37,7,103,67,7,

65,38,7,103,67,7,

64,37,7,103,67,6,

63,37,7,102,67,7,

63,38,7,102,67,7,

63,37,7,102,66,7,

63,37,7,101,66,7,

62,37,7,100,66,7,

62,36,7,100,65,6,

61,37,7,99,65,7,

61,36,7,99,64,7,

61,36,7,99,65,7,

61,36,7,98,65,7,

61,35,7,98,63,7,

61,37,7,98,63,7,

60,35,6,97,64,7,

61,35,7,97,63,7,

59,35,7,96,63,7,

60,35,7,96,62,7,

60,35,7,96,62,7,

59,35,7,95,62,7,

59,35,6,96,62,7,

59,35,7,95,62,7,

59,35,7,94,61,7,

58,35,6,94,61,7,

58,35,7,93,62,7,

58,34,7,93,60,7,

57,35,7,93,61,6,

57,33,7,93,60,6,

57,33,7,92,60,7,

56,33,7,92,59,7,

57,33,7,91,60,7,

56,33,7,91,60,7,

56,33,7,90,59,7,

56,33,7,91,58,7,

56,33,7,90,58,6,

56,33,7,90,58,7,

56,33,7,90,58,7,

55,33,6,89,58,7,

56,32,7,89,58,7,

55,33,7,88,57,6,

54,31,7,88,57,7,

55,31,7,88,57,7,

54,31,7,87,57,7,

54,31,7,88,56,7,

55,32,7,87,57,7,

56,31,7,86,56,7,

79,31,7,86,56,7,

79,31,7,86,56,7,

78,31,6,85,55,7,

78,31,7,85,56,7,

78,31,7,84,55,7,

77,30,7,85,56,7,

77,30,7,84,54,7,

77,31,7,83,54,7,

77,31,7,83,53,7,

76,30,7,83,54,7,

76,31,7,83,53,6,

75,30,7,82,53,7,

76,30,7,82,53,7,

75,30,7,82,53,6,

74,30,7,81,53,7,

73,30,7,81,52,7,

74,30,7,81,54,7,

73,29,7,80,56,7,

73,29,7,81,55,7,

73,30,7,80,55,7,

71,29,7,79,54,7,

73,29,7,79,54,6,

71,29,7,79,54,7,

71,29,7,79,53,7,

71,29,7,78,54,7,

71,28,7,78,54,7,

71,29,7,78,53,7,

70,28,7,78,53,7,

70,29,7,78,53,7,

70,28,7,77,52,7,

70,27,7,77,52,7,

69,28,7,76,51,7,

69,28,6,77,51,7,

68,28,7,76,51,7,

68,28,7,76,51,7,

68,28,7,75,51,7,

68,28,7,75,51,7,

67,29,7,75,51,7,

67,29,7,74,51,7,

67,29,7,74,50,6,

67,29,7,74,50,6,

66,28,7,73,50,7,

67,28,7,73,50,7,

66,28,7,73,49,7,

65,27,7,73,50,7,

65,28,7,73,48,7,

65,27,7,71,49,7,

64,27,6,71,48,6,

63,28,7,71,48,7,

64,28,7,71,48,7,

63,27,7,71,48,7,

63,26,7,71,48,7,

63,27,7,71,48,7,

63,27,7,70,46,7,

63,27,7,70,47,7,

63,27,7,71,47,7,

63,27,7,69,47,6,

62,26,7,69,47,7,

62,26,6,69,47,7,

62,27,7,69,47,7,

61,27,7,68,46,7,

61,26,7,68,46,7,

61,27,7,68,46,7,

60,25,7,67,45,7,

61,25,6,68,46,7,

60,25,7,68,45,7,

60,26,7,67,45,7,

60,26,7,67,51,7,

60,25,7,67,53,7,

59,61,7,66,51,6,

60,59,7,66,51,7,

59,59,7,66,51,7,

59,59,7,66,51,7,

58,58,7,65,50,7,

58,58,7,65,51,7,

58,58,7,65,50,7,

58,57,7,65,49,6,

57,57,7,65,50,7,

57,57,7,64,50,7,

57,57,6,63,49,7,

57,56,7,63,49,6,

57,56,7,63,49,7,

56,56,7,63,49,7,

56,56,7,63,48,7,

56,55,6,62,48,7,

56,55,7,62,48,7,

55,56,6,62,48,7,

56,55,7,62,48,6,

55,54,7,62,48,7,

55,55,7,62,47,7,

55,54,7,61,47,7,

54,54,7,61,47,7,

55,53,7,61,47,7,

54,54,7,60,46,7,

54,53,7,60,46,7,

55,53,7,60,46,7,

54,53,7,60,46,7,

53,52,7,60,46,7,

53,52,7,60,46,7,

53,52,7,59,45,7,

52,51,7,59,45,7,

53,51,7,59,46,7,

52,51,7,58,45,7,

51,51,7,58,44,7,

51,51,7,60,45,7,

51,50,7,77,44,6,

51,50,7,76,44,6,

51,50,7,76,44,7,

51,50,6,76,43,7,

51,50,6,76,44,7,

51,50,7,75,44,7,

50,49,7,75,44,7,

50,49,6,74,43,7,

51,49,7,73,43,6,

50,48,7,74,43,7,

50,48,7,74,43,7,

50,48,7,73,43,6,

49,48,7,73,42,7,

49,48,7,73,42,7,

48,47,7,71,42,7,

48,47,7,71,41,7,

49,48,7,71,41,7,

49,47,7,71,41,7,

48,47,7,71,41,7,

49,46,7,70,41,7,

49,54,7,70,39,7,

48,53,7,70,39,7,

48,52,7,69,39,7,

47,51,7,69,41,7,

55,52,7,69,39,7,

56,51,7,69,39,7,

55,51,7,69,39,7,

55,51,7,69,39,7,

54,51,7,68,39,7,

54,51,7,68,39,7,

54,53,7,68,39,7,

53,53,7,67,46,7,

53,53,7,67,46,7,

53,53,7,67,46,7,

53,53,7,67,45,7,

53,53,7,66,45,7,

53,52,7,66,45,7,

56,51,7,65,44,7,

56,52,7,65,44,7,

54,51,7,65,44,7,

54,51,7,64,44,7,

55,51,7,64,43,6,

54,50,7,65,43,7,

54,50,7,64,43,7,

54,51,7,64,43,7,

54,51,7,63,43,7,

53,51,7,63,43,7,

53,50,7,63,43,7,

52,50,7,63,43,7,

53,49,7,62,41,7,

52,49,7,62,41,7,

56,49,7,62,41,7,

55,49,7,62,41,7,

55,49,7,62,42,7,

55,48,7,61,42,7,

56,48,7,61,67,7,

54,48,7,60,67,7,

54,48,7,60,66,7,

53,48,7,61,66,7,

54,47,7,60,65,7,

53,47,7,60,65,7,

53,47,7,60,65,7,

52,46,7,59,65,7,

52,46,7,59,64,7,

52,47,7,59,64,7,

52,46,7,59,63,7,

51,45,6,59,63,7,

51,46,7,58,63,7,

51,46,7,59,81,7,

51,45,7,58,86,7,

51,45,7,57,85,7,

50,45,7,57,85,7,

51,44,7,57,84,7,

50,45,6,57,83,7,

50,45,7,57,83,6,

49,45,7,57,83,7,

54,44,7,56,82,7,

58,44,7,56,82,6,

57,44,7,56,82,7,

56,43,6,56,81,7,

56,43,7,56,81,7,

57,43,7,56,81,7,

56,42,7,55,88,6,

56,43,7,54,88,7,

55,43,7,55,87,7,

56,41,7,54,87,7,

55,42,7,56,86,7,

55,42,7,54,85,6,

54,41,7,54,85,7,

54,41,7,53,85,7,

54,42,7,53,83,7,

53,41,7,53,84,7,

54,39,7,53,83,7,

53,39,6,52,83,7,

53,41,7,52,83,7,

52,41,7,52,83,6,

52,41,6,53,82,7,

52,39,7,53,81,7,

52,39,7,51,82,7,

52,39,7,52,81,7,

51,39,7,51,80,7,

51,39,7,51,81,7,

50,39,7,51,81,7,

51,39,6,50,79,7,

51,39,7,50,79,7,

51,39,7,50,79,7,

50,39,7,50,78,7,

50,39,7,50,78,7,

50,38,7,49,78,7,

50,39,7,50,78,7,

49,38,7,49,78,7,

49,38,7,49,77,7,

48,38,7,50,77,7,

49,38,7,48,76,7,

49,38,7,48,76,7,

48,37,6,48,77,7,

49,37,6,48,75,7,

48,38,7,48,75,7,

48,37,7,48,76,7,

48,37,6,48,74,7,

48,37,7,48,74,7,

46,36,7,48,74,7,

48,36,7,48,74,7,

47,36,7,47,73,7,

46,36,7,83,73,7,

47,36,6,103,71,7,

46,35,7,103,73,7,

46,36,7,103,71,7,

46,35,7,103,71,7,

46,35,6,102,71,6,

46,35,7,102,71,6,

46,35,7,101,71,7,

46,35,7,101,70,6,

45,35,7,100,70,7,

45,35,7,99,70,7,

44,35,7,99,70,6,

45,34,6,98,70,7,

44,34,7,99,69,7,

45,34,7,98,68,7,

44,34,7,97,68,7,

44,34,7,97,69,7,

44,33,7,98,69,7,

67,33,7,97,67,7,

66,34,7,96,67,7,

65,34,7,96,67,7,

65,33,7,95,67,6,

65,33,7,95,67,7,

65,33,7,94,66,6,

64,33,6,94,66,7,

64,33,7,93,65,7,

63,32,7,94,65,7,

63,33,7,98,66,7,

63,33,7,97,68,7,

63,32,6,96,69,7,

62,32,7,96,67,7,

63,32,7,96,68,7,

62,31,7,95,67,7,

61,31,7,95,67,7,

61,31,7,94,67,7,

61,31,6,93,66,7,

61,31,7,93,66,7,

61,31,7,94,66,7,

61,31,6,93,66,6,

60,31,7,92,66,7,

60,30,7,92,65,7,

59,30,7,92,64,6,

59,30,7,91,65,7,

59,31,7,91,64,7,

74,30,7,91,63,7,

75,30,7,90,63,6,

74,30,7,89,63,6,

75,31,7,89,63,7,

73,30,7,89,63,7,

73,30,7,89,62,7,

73,29,7,88,63,7,

73,29,6,88,63,7,

73,29,7,88,62,7,

71,29,7,88,62,7,

71,29,7,88,62,7,

71,28,7,86,62,7,

71,28,7,87,61,7,

71,28,7,86,60,7,

70,28,7,85,61,7,

70,28,7,85,60,7,

70,28,7,85,60,7,

69,28,7,85,60,7,

69,28,7,84,59,7,

68,28,7,84,59,6,

69,28,7,84,59,7,

68,28,7,83,59,6,

68,28,7,83,58,7,

67,28,6,82,59,7,

67,27,7,82,57,7,

67,28,7,81,57,6,

66,28,7,82,57,7,

66,27,6,81,57,7,

66,27,6,81,57,7,

66,27,7,80,57,6,

65,27,7,81,57,7,

65,27,7,79,56,7,

65,26,7,79,56,7,

65,26,7,79,56,7,

65,27,7,79,56,6,

64,27,7,79,56,7,

64,27,7,78,55,7,

63,26,7,78,55,6,

63,26,7,78,55,7,

63,26,7,77,55,7,

63,26,7,78,54,7,

63,26,7,76,54,7,

62,25,7,76,54,7,

62,25,7,76,54,7,

61,25,7,76,54,7,

62,25,7,75,53,6,

62,25,6,75,53,7,

61,25,6,76,53,7,

61,26,7,75,53,7,

60,25,7,75,52,7,

60,25,7,74,53,7,

61,25,7,74,51,7,

60,25,7,74,51,7,

60,25,7,73,51,7,

59,24,7,73,51,7,

59,25,7,73,51,7,

58,24,7,71,51,7,

58,25,7,71,51,7,

59,28,7,71,50,6,

59,28,7,71,50,7,

58,29,7,71,50,7,

58,29,7,71,50,7,

57,29,6,70,50,6,

57,29,7,70,49,7,

57,28,7,71,50,7,

57,29,7,70,49,7,

57,29,7,70,49,7,

56,28,6,70,49,7,

56,28,7,70,49,7,

56,28,7,69,49,7,

67,29,6,69,49,6,

66,28,7,67,48,7,

67,29,7,68,48,7,

65,28,7,69,48,6,

65,29,7,67,48,7,

65,28,7,67,48,7,

90,28,7,67,47,7,

89,28,7,67,47,7,

89,29,7,66,47,7,

88,28,7,66,47,7,

88,27,7,66,46,7,

88,28,7,65,46,7,

88,28,7,65,46,7,

88,28,6,65,46,7,

87,49,7,65,46,7,

87,49,7,65,46,6,

86,48,6,65,46,7,

85,48,7,63,46,7,

85,48,7,64,46,7,

84,48,7,63,45,7,

84,48,7,63,45,7,

83,47,7,63,45,7,

83,47,7,63,44,7,

83,46,7,63,44,7,

83,47,6,62,44,7,

82,47,7,62,44,7,

82,46,7,63,43,7,

82,46,6,62,44,6,

81,46,7,62,43,7,

81,45,7,61,43,7,

81,45,6,62,43,7,

80,45,6,61,43,7,

80,44,7,61,43,6,

80,45,6,60,43,7,

79,44,7,60,43,7,

79,45,7,60,42,7,

78,46,7,60,42,7,

78,45,7,60,42,7,

78,46,7,59,41,6,

78,45,7,58,41,7,

78,45,7,59,41,7,

77,45,7,59,42,7,

77,44,7,58,39,7,

76,44,7,59,41,7,

76,44,7,57,41,7,

75,44,7,58,41,7,

76,44,7,57,39,7,

76,43,7,57,39,7,

76,44,7,57,41,7,

76,44,6,57,39,7,

74,44,6,57,39,7,

74,44,6,56,39,7,

73,44,7,56,39,7,

73,44,7,57,39,7,

73,76,7,56,39,7,

73,77,7,56,39,7,

72,76,7,56,39,7,

71,75,6,55,39,6,

71,75,7,55,38,7,

71,75,7,54,39,7,

71,74,7,54,38,7,

71,73,7,54,39,7,

71,73,7,54,38,7,

71,73,6,54,38,7,

70,73,7,54,39,7,

70,73,7,53,39,6,

70,71,7,53,39,7,

69,71,7,53,39,7,

69,71,7,53,39,7,

69,71,7,53,39,7,

69,71,7,52,39,7,

68,71,6,52,38,7,

68,70,7,51,38,7,

86,70,7,53,39,7,

93,69,7,51,38,7,

92,70,7,51,39,7,

92,69,7,51,38,7,

92,69,7,51,38,7,

92,69,7,51,38,7,

90,68,7,50,37,7,

90,68,7,51,38,7,

90,67,6,50,37,7,

90,67,7,50,38,7,

89,81,7,50,37,7,

89,79,7,50,37,7,

89,79,7,50,36,7,

88,79,7,49,36,7,

88,79,7,49,36,7,

88,78,7,49,36,7,

87,78,7,49,36,6,

86,78,7,48,35,7,

87,77,7,49,35,7,

85,77,7,48,35,7,

86,77,7,48,77,7,

85,76,7,48,76,7,

85,75,7,48,75,7,

84,75,7,48,75,7,

84,75,7,47,75,7,

83,75,7,48,75,7,

84,74,7,47,74,7,

83,74,7,47,74,7,

83,74,7,46,73,7,

82,73,7,47,73,7,

82,73,7,46,73,7,

82,71,7,46,71,6,

82,71,7,46,71,7,

82,71,7,45,71,7,

81,71,7,46,71,7,

81,71,7,45,71,7,

79,71,7,45,71,6,

79,71,7,45,70,7,

79,70,7,45,70,7,

79,70,7,45,70,7,

79,70,7,44,69,7,

79,70,7,45,69,7,

78,69,7,44,69,6,

78,69,7,44,68,7,

78,69,7,44,68,7,

78,69,7,44,134,7,

77,68,7,44,133,6,

76,68,6,44,131,7,

76,67,7,44,130,7,

76,67,7,43,130,7,

75,67,7,43,129,6,

76,67,7,43,129,7,

74,66,7,42,127,7,

75,67,7,42,127,7,

74,66,7,41,126,7,

73,65,6,43,126,7,

73,65,7,42,126,7,

73,65,6,42,125,7,

73,64,7,41,124,7,

73,63,7,41,123,6,

71,64,7,41,123,7,

73,63,7,41,122,7,

71,63,7,41,122,7,

71,63,7,41,121,7,

71,63,7,41,121,7,

71,63,7,41,121,7,

70,62,7,41,120,7,

70,62,7,40,119,7,

70,62,7,39,119,6,

70,61,7,39,118,7,

69,61,7,39,117,7,

69,61,7,39,117,6,

69,61,6,39,116,6,

68,61,7,39,115,7,

68,60,7,39,115,7,

68,60,7,39,115,7,

67,60,6,39,114,7,

67,59,7,39,114,7,

67,59,7,39,113,7,

67,59,7,60,114,7,

67,59,7,60,113,6,

66,58,6,59,112,7,

66,59,7,59,112,6,

65,58,7,59,111,7,

65,57,7,59,110,7,

65,57,7,58,110,7,

65,57,7,58,109,7,

63,56,7,57,109,7,

63,57,7,56,109,7,

65,56,7,57,108,7,

63,56,7,56,108,7,

65,56,7,56,107,7,

64,56,7,56,107,7,

63,56,7,56,107,7,

63,55,7,56,107,7,

63,56,7,56,105,6,

63,55,7,55,105,7,

63,54,7,55,105,7,

62,55,7,55,104,7,

62,54,7,54,103,7,

61,54,7,54,103,7,

61,54,7,54,103,6,

61,53,7,54,103,7,

61,53,7,54,102,7,

60,53,7,53,102,7,

61,52,6,53,101,7,

61,53,6,52,101,6,

59,52,7,52,100,6,

60,51,7,52,99,7,

59,51,7,52,99,7,

60,52,7,52,99,7,

60,51,7,151,99,7,

60,51,6,153,99,6,

58,51,7,152,97,7,

58,50,7,152,97,7,

57,51,7,150,97,6,

57,50,7,149,96,6,

57,50,7,149,96,7,

57,50,7,147,97,7,

57,92,7,147,96,7,

56,103,7,146,95,7,

56,102,6,145,94,7,

57,102,7,145,94,7,

56,101,7,145,93,7,

56,100,7,143,93,7,

56,100,7,143,93,7,

56,99,7,142,93,7,

55,99,7,142,92,6,

55,99,7,141,92,7,

54,98,7,140,92,7,

54,97,6,140,91,7,

54,97,7,140,91,6,

54,96,7,138,90,7,

53,96,7,137,89,7,

54,96,7,137,89,7,

52,96,7,137,89,7,

53,95,7,135,89,7,

53,94,7,135,88,7,

53,94,7,135,88,7,

56,94,7,135,88,7,

73,97,7,134,88,7,

73,96,7,134,88,7,

71,96,7,133,86,7,

71,96,7,132,86,6,

71,95,7,132,86,7,

71,94,7,131,86,7,

71,94,7,131,85,7,

71,94,7,130,85,7,

70,93,7,129,84,7,

70,93,7,128,83,7,

70,93,7,128,83,7,

70,93,7,127,83,7,

69,92,7,127,103,6,

70,91,7,127,108,7,

69,91,7,127,107,7,

69,91,6,126,107,7,

