
49,12,0,52,39,1,

49,13,0,51,39,1,

49,12,1,51,38,1,

49,13,1,51,38,1,

48,12,0,51,38,1,

48,12,0,51,38,1,

48,12,1,51,37,1,

48,11,1,50,38,1,

48,12,1,50,37,1,

48,12,1,50,38,1,

47,12,1,49,37,0,

51,13,1,50,37,1,

63,13,1,50,37,1,

63,13,1,49,36,1,

63,12,1,49,36,1,

63,12,0,49,36,1,

63,13,0,48,35,1,

62,12,1,49,35,1,

62,13,1,48,35,1,

61,13,1,48,35,1,

62,12,1,48,35,1,

61,12,1,48,35,1,

60,12,1,48,35,1,

61,22,1,47,35,1,

62,24,1,47,34,0,

62,24,1,47,34,1,

62,24,0,47,34,1,

62,24,0,46,34,0,

61,24,0,46,33,1,

61,24,1,46,34,0,

61,24,1,46,33,0,

60,23,1,46,33,1,

61,24,1,45,33,0,

60,23,1,46,33,1,

60,23,1,46,33,0,

59,23,1,45,32,1,

59,22,1,45,32,1,

59,23,1,45,31,0,

58,23,1,45,32,1,

58,22,1,44,31,1,

58,22,1,44,31,1,

58,22,1,44,31,1,

57,22,1,44,31,0,

57,22,1,44,31,1,

57,21,0,43,31,0,

56,22,0,43,31,0,

56,22,1,43,31,1,

56,21,1,43,31,1,

56,21,1,43,30,1,

56,21,1,42,30,0,

56,21,1,43,30,1,

55,21,1,42,30,1,

55,21,1,42,30,1,

55,20,0,41,30,1,

54,21,1,41,29,1,

54,20,1,41,29,1,

54,19,0,41,29,1,

53,20,1,41,29,1,

53,20,1,40,29,1,

53,20,1,39,29,0,

52,19,1,40,29,1,

52,19,0,39,29,1,

52,19,1,39,29,1,

53,20,0,39,29,1,

53,20,1,39,34,1,

52,19,1,39,34,1,

52,19,0,39,33,0,

52,19,1,39,33,0,

51,19,1,39,33,0,

51,19,1,39,33,1,

51,19,0,39,33,1,

51,19,1,38,32,1,

50,19,1,38,32,1,

50,19,1,38,32,0,

50,19,1,38,31,1,

50,18,0,38,31,1,

50,19,0,37,31,1,

50,18,1,37,33,1,

50,19,0,37,32,1,

50,18,0,37,32,1,

49,18,1,37,31,0,

49,18,1,37,31,1,

49,18,0,36,31,1,

48,18,1,36,31,0,

48,18,0,36,31,0,

48,18,0,36,31,1,

48,18,1,36,31,1,

48,17,1,36,31,0,

47,18,1,36,31,0,

48,18,1,35,31,1,

48,18,0,36,30,1,

47,18,0,35,31,1,

47,18,1,35,30,1,

47,18,1,35,30,0,

47,18,0,35,30,1,

46,18,1,34,29,1,

46,17,1,35,29,1,

46,17,1,34,29,1,

46,17,0,34,29,1,

45,17,1,34,29,1,

45,17,1,34,29,1,

45,17,1,34,29,1,

45,17,0,36,29,1,

45,17,1,35,29,1,

45,17,1,35,29,1,

44,17,0,35,29,1,

45,16,0,35,28,1,

44,17,1,34,28,1,

44,16,1,35,28,1,

43,16,1,35,28,1,

44,16,1,34,28,1,

43,16,0,34,28,1,

43,16,1,34,28,0,

43,16,1,34,28,1,

43,15,1,40,27,0,

43,15,0,40,28,1,

42,16,1,41,27,1,

42,15,1,39,27,1,

42,15,0,39,27,1,

42,15,0,39,26,1,

41,15,1,39,27,1,

41,15,1,39,27,0,

41,15,1,39,27,1,

41,15,0,39,27,1,

41,15,1,38,26,1,

39,15,1,39,26,0,

39,15,1,38,26,0,

39,14,1,38,26,1,

41,15,1,38,26,1,

41,18,1,38,25,0,

41,18,1,38,25,1,

39,17,1,38,25,1,

40,18,1,37,25,1,

39,18,1,37,25,1,

39,17,1,37,25,0,

39,17,1,37,25,1,

39,17,1,36,25,1,

39,17,1,36,24,1,

39,17,1,36,24,1,

39,16,1,36,25,1,

39,16,0,36,24,1,

38,17,1,36,24,0,

39,19,1,35,25,0,

39,18,1,35,24,1,

39,18,1,35,24,0,

39,18,1,35,24,1,

38,18,1,35,24,0,

38,18,0,35,24,0,

39,18,1,35,23,1,

38,18,1,35,23,1,

38,18,0,34,23,0,

38,17,1,34,23,1,

37,17,1,34,22,1,

38,17,1,34,23,1,

37,17,1,34,22,1,

37,18,0,34,23,1,

37,17,1,33,23,1,

37,17,1,33,22,1,

36,17,1,33,22,0,

37,16,1,33,22,1,

36,16,0,33,22,1,

36,16,1,33,22,0,

36,16,1,32,21,1,

35,17,0,31,21,1,

35,16,1,31,21,0,

35,16,1,31,21,1,

35,16,0,46,21,1,

41,16,0,46,22,1,

54,16,0,46,21,1,

53,16,1,46,21,1,

53,15,1,45,21,1,

53,16,1,45,20,0,

52,15,1,45,20,1,

52,16,1,45,20,1,

52,15,0,45,20,1,

51,15,1,44,20,1,

51,15,1,44,20,1,

51,15,1,44,20,1,

50,15,1,44,20,1,

51,15,1,44,19,1,

50,15,1,44,19,0,

50,15,1,43,19,1,

49,15,1,43,19,1,

49,15,1,43,19,0,

50,15,1,42,19,1,

49,15,1,42,19,0,

49,15,0,42,19,1,

49,15,1,41,19,1,

48,15,0,42,19,0,

49,14,0,41,19,1,

48,14,1,41,19,1,

48,14,0,41,18,1,

48,15,1,41,18,1,

57,14,1,41,18,1,

58,15,1,41,18,1,

57,24,1,39,18,0,

57,24,1,39,18,1,

57,24,1,39,18,0,

57,24,1,39,18,1,

56,23,1,39,18,1,

56,24,1,39,18,1,

56,23,0,39,17,0,

56,23,0,39,17,0,

56,23,0,39,17,0,

55,22,1,38,17,1,

55,22,1,38,17,0,

54,22,1,38,17,1,

54,23,1,38,17,1,

54,22,1,38,16,1,

54,22,1,38,17,1,

54,22,1,37,17,1,

53,22,0,38,17,0,

53,22,1,37,16,1,

53,21,1,37,16,1,

52,21,1,37,16,0,

52,21,1,36,16,1,

52,21,1,36,16,1,

51,21,1,36,16,0,

51,21,1,36,15,1,

51,22,0,35,16,1,

51,22,1,35,16,1,

51,22,1,35,15,1,

50,22,1,35,16,1,

50,22,0,35,15,1,

50,22,1,35,15,0,

49,22,1,35,15,1,

49,22,1,35,15,0,

49,21,0,34,15,1,

49,21,1,34,15,0,

49,21,1,34,15,1,

49,21,1,34,15,0,

48,21,1,33,15,1,

48,22,1,33,15,1,

49,22,0,34,16,0,

49,22,1,34,16,0,

48,22,1,33,16,1,

49,22,0,33,16,1,

48,21,0,33,15,1,

48,22,1,33,15,1,

48,22,1,32,15,1,

48,21,1,32,15,0,

47,21,0,31,15,0,

47,21,0,32,15,0,

47,21,1,31,15,1,

46,20,0,32,15,1,

48,20,1,31,15,0,

49,20,1,31,15,0,

49,20,1,31,15,1,

49,20,0,31,15,1,

49,20,1,31,15,1,

48,20,1,31,15,1,

48,20,0,31,15,0,

48,19,1,31,15,1,

48,19,0,31,14,1,

47,19,1,31,14,0,

47,19,0,30,14,1,

47,19,1,30,14,1,

46,19,1,34,14,1,

47,20,0,54,14,1,

54,19,1,79,14,1,

54,19,0,79,14,1,

53,19,0,79,14,1,

53,19,1,78,14,1,

53,19,0,78,14,1,

52,19,1,78,14,1,

52,19,0,77,14,1,

52,19,1,77,14,0,

51,19,0,76,14,0,

51,19,1,76,13,1,

51,19,0,76,13,1,

51,19,1,75,13,1,

51,19,1,76,30,1,

63,19,1,76,33,1,

63,18,1,76,32,1,

63,18,1,75,32,1,

63,18,1,75,31,1,

63,18,1,75,31,1,

62,17,1,74,31,1,

61,18,1,74,31,0,

62,17,0,73,31,1,

61,17,0,73,31,1,

61,17,1,73,31,1,

61,17,0,71,31,1,

61,17,1,71,30,0,

60,17,1,71,30,1,

60,16,1,71,30,1,

61,17,0,71,30,1,

61,17,1,71,30,0,

60,16,1,71,30,0,

60,17,1,70,30,1,

60,17,1,70,30,0,

59,17,1,70,29,1,

59,16,1,69,30,1,

59,16,1,69,29,1,

58,16,0,69,29,1,

58,16,1,68,29,1,

58,15,0,68,29,1,

57,16,1,68,29,1,

63,27,0,67,33,1,

63,27,1,67,44,1,

63,26,1,67,44,1,

62,26,1,67,44,1,

62,25,1,66,44,1,

62,26,0,66,43,1,

61,26,1,66,43,0,

61,25,1,66,43,1,

61,26,0,65,44,1,

61,25,1,65,44,0,

60,25,0,65,44,1,

60,25,0,64,43,1,

60,25,1,63,43,1,

60,31,1,63,42,1,

62,112,1,63,43,1,

60,114,1,63,42,1,

60,113,1,63,42,1,

60,112,1,62,42,1,

60,112,1,62,41,1,

59,110,1,62,41,1,

59,110,0,62,41,1,

59,109,1,61,41,1,

59,108,1,61,40,1,

58,108,1,61,41,1,

58,110,1,60,40,1,

76,163,0,60,39,1,

77,159,0,60,39,1,

77,159,1,60,39,1,

76,158,0,60,39,1,

76,157,1,59,39,1,

75,157,1,59,39,1,

75,155,1,59,39,1,

75,155,1,59,39,1,

74,154,1,58,38,0,

74,153,1,58,38,0,

73,152,0,58,38,1,

73,152,1,57,38,1,

72,152,0,57,38,1,

73,150,1,57,37,1,

73,149,1,57,37,1,

73,149,1,56,37,1,

73,147,1,56,37,1,

72,147,0,56,37,1,

71,146,1,56,36,1,

71,146,0,55,37,0,

71,145,1,55,35,1,

71,144,0,55,35,1,

71,143,1,54,35,1,

71,143,1,54,35,1,

70,142,0,54,35,0,

70,142,0,53,35,1,

69,141,1,53,35,1,

69,140,1,53,35,1,

69,140,1,53,34,1,

69,139,1,52,34,1,

67,138,1,52,34,1,

68,138,0,52,34,1,

67,137,1,51,34,1,

67,136,1,51,33,1,

67,135,0,51,33,1,

66,135,1,51,33,1,

66,135,0,51,33,1,

65,134,1,51,33,1,

65,134,0,50,33,1,

65,133,1,50,32,1,

65,132,1,50,33,0,

64,131,0,50,32,1,

64,131,1,50,31,1,

63,130,1,49,31,0,

63,130,1,49,31,0,

63,129,1,49,31,1,

63,129,1,49,31,1,

63,127,1,48,31,1,

62,127,1,48,31,1,

62,127,0,48,31,1,

62,126,1,48,31,1,

62,125,1,48,30,1,

61,125,1,47,31,1,

61,125,1,47,30,1,

61,124,1,47,30,1,

60,124,1,47,30,1,

60,123,1,46,29,0,

60,123,1,46,30,1,

60,122,1,46,29,1,

59,121,1,46,29,1,

59,120,0,46,29,1,

58,121,1,67,29,1,

67,120,1,70,29,1,

79,120,1,69,29,1,

78,119,0,69,28,0,

77,118,0,68,29,1,

77,118,1,68,28,1,

76,117,1,67,28,1,

76,117,0,67,28,1,

76,116,1,67,28,1,

75,115,1,67,28,0,

75,115,1,67,28,0,

74,115,1,66,27,1,

74,114,1,66,27,1,

74,114,1,66,27,1,

74,113,1,65,27,1,

88,112,1,65,27,1,

88,112,0,65,27,0,

88,112,1,64,27,1,

87,111,0,63,26,0,

87,111,0,63,27,1,

86,110,1,63,27,1,

85,110,1,63,27,1,

85,109,0,63,26,1,

84,109,0,62,25,1,

84,108,1,62,26,1,

83,108,0,62,25,0,

83,107,1,62,25,1,

83,107,1,61,25,1,

82,107,1,61,28,0,

82,106,1,61,28,1,

82,105,1,61,28,1,

81,105,1,60,27,1,

81,105,1,60,27,1,

80,103,1,60,27,1,

79,103,1,59,27,0,

79,103,1,59,27,1,

79,103,1,59,27,1,

79,103,1,58,26,1,

78,102,1,58,26,1,

78,102,1,58,26,1,

78,101,1,57,26,1,

78,101,0,57,26,1,

77,100,1,57,25,1,

77,99,0,57,26,1,

76,99,0,57,25,0,

76,99,1,56,25,1,

76,99,1,56,25,1,

76,98,0,56,25,0,

75,97,0,56,25,1,

75,98,1,55,25,1,

75,97,1,55,25,1,

74,97,1,55,24,1,

105,96,1,55,25,1,

103,96,0,54,24,1,

103,96,1,54,24,1,

103,95,1,53,24,1,

102,94,1,54,24,1,

101,94,0,53,24,1,

101,94,1,53,24,1,

100,94,1,53,24,1,

100,92,0,52,23,1,

99,92,1,52,24,1,

99,92,1,52,24,0,

99,92,1,71,31,1,

98,92,1,71,30,1,

97,91,1,71,30,1,

97,91,1,71,30,1,

96,91,0,70,30,1,

96,90,1,70,30,1,

96,89,0,70,29,1,

96,89,0,69,29,1,

95,89,1,69,29,1,

95,89,0,69,29,1,

94,88,1,69,29,1,

94,88,1,68,29,1,

93,97,1,68,28,1,

93,96,0,67,35,1,

93,96,1,71,35,1,

93,96,1,71,35,0,

92,95,1,70,34,1,

91,95,1,70,34,1,

91,94,1,70,34,0,

91,94,0,69,34,1,

90,93,0,69,33,1,

89,93,0,69,33,1,

89,92,1,69,33,1,

89,92,0,68,33,0,

89,91,1,67,33,1,

88,91,1,68,33,1,

88,99,1,67,32,1,

88,103,1,67,32,1,

87,103,1,67,32,0,

87,103,1,66,32,0,

86,102,1,66,32,1,

86,101,0,66,31,1,

85,101,1,65,31,1,

85,100,0,65,31,0,

85,99,1,65,31,0,

83,99,1,65,31,0,

83,99,1,63,31,1,

83,101,1,63,31,1,

83,105,1,63,30,1,

83,105,1,63,30,1,

82,103,1,63,30,1,

82,103,1,63,30,0,

82,103,0,62,30,1,

81,102,1,62,30,1,

81,102,1,62,30,1,

80,101,1,61,30,1,

80,101,1,61,29,1,

79,101,0,61,29,0,

79,100,1,61,29,1,

79,99,0,61,29,1,

79,131,0,60,29,1,

78,129,1,60,29,1,

78,129,1,60,28,1,

78,127,1,60,28,1,

77,127,1,59,28,1,

77,127,1,59,28,1,

77,126,1,59,28,1,

76,125,1,58,28,1,

76,124,1,58,28,1,

76,124,1,57,27,1,

75,123,1,57,27,1,

75,123,0,57,27,1,

75,122,0,57,28,1,

75,122,1,143,63,1,

73,121,1,144,63,1,

73,120,1,143,62,1,

73,120,1,142,62,1,

72,120,1,141,61,1,

71,119,1,141,61,1,

71,118,1,140,61,1,

71,118,1,139,60,1,

71,117,1,138,60,1,

71,116,0,137,60,1,

70,115,1,137,59,1,

70,115,1,135,59,1,

81,115,1,135,60,0,

85,114,0,135,69,1,

85,113,1,134,67,1,

85,113,0,134,67,1,

85,112,0,133,67,1,

83,112,0,132,67,1,

83,111,0,131,66,1,

83,111,1,131,66,1,

82,110,0,130,65,1,

82,110,1,129,65,1,

81,109,1,129,65,1,

81,109,1,128,71,1,

81,108,0,127,78,1,

80,108,0,127,78,1,

79,107,1,126,77,1,

79,107,0,126,77,1,

79,106,1,125,76,1,

79,105,1,124,76,1,

79,105,1,124,76,0,

78,105,1,124,75,0,

77,103,1,123,75,1,

77,103,0,123,75,1,

77,103,0,122,74,1,

76,102,1,122,74,1,

76,102,1,120,73,1,

80,102,1,120,73,1,

80,101,1,120,71,1,

79,101,1,120,71,1,

79,100,0,119,71,1,

79,99,1,118,71,0,

78,99,1,117,71,1,

78,99,1,117,70,1,

78,98,1,116,70,1,

77,98,1,115,70,1,

77,97,1,115,70,1,

76,97,1,115,69,1,

76,96,0,115,69,1,

76,96,1,114,69,1,

76,96,1,113,68,0,

75,95,1,113,68,1,

75,95,1,112,67,1,

75,94,1,112,67,0,

74,94,1,112,67,1,

73,93,1,111,67,1,

73,93,0,111,66,1,

73,93,0,110,66,0,

73,92,1,110,66,1,

71,92,1,109,65,1,

129,115,1,109,65,0,

179,114,1,108,65,1,

178,113,1,108,64,0,

177,113,1,108,63,1,

176,112,1,107,63,0,

175,111,1,106,63,1,

174,110,0,105,63,1,

173,110,0,105,63,1,

172,110,1,103,62,0,

171,108,1,103,62,1,

170,109,1,103,62,1,

215,108,0,103,61,1,

212,107,1,102,61,0,

211,107,0,103,61,1,

209,107,1,102,60,1,

207,105,1,101,60,1,

207,105,1,101,59,1,

205,103,1,101,60,1,

204,103,1,99,59,0,

204,103,1,99,59,1,

202,103,1,99,59,1,

201,102,1,99,58,0,

199,101,1,98,58,1,

222,101,1,97,57,1,

221,101,0,97,57,1,

219,100,1,97,57,1,

219,99,1,96,57,1,

217,99,0,96,56,1,

216,99,1,95,56,0,

215,98,1,95,56,1,

214,98,1,95,56,1,

213,97,0,94,56,1,

211,97,1,94,56,0,

211,96,0,94,55,1,

210,96,1,93,55,1,

209,96,1,93,55,1,

256,115,1,93,88,1,

254,114,1,92,88,1,

253,113,1,91,88,1,

251,112,0,92,87,1,

250,112,1,91,87,1,

248,111,0,91,86,1,

247,111,1,90,86,1,

246,110,1,89,85,1,

244,116,1,89,84,1,

243,115,1,89,84,1,

241,115,1,89,83,1,

241,114,1,107,83,1,

239,113,1,106,83,1,

238,113,1,106,83,1,

237,112,1,105,82,1,

236,112,1,103,81,1,

234,111,1,103,81,0,

233,111,1,103,80,1,

231,110,1,103,80,1,

231,148,1,103,79,0,

229,155,1,102,79,1,

228,154,1,180,79,1,

227,152,1,233,78,1,

226,152,1,230,78,1,

225,151,1,229,88,1,

224,150,1,227,96,1,

223,149,1,226,94,1,

221,149,1,225,93,1,

220,147,1,223,93,1,

220,147,2,222,92,1,

218,146,1,221,92,1,

217,145,1,220,92,1,

216,144,1,219,91,1,

215,143,1,217,90,1,

214,142,1,217,89,1,

213,142,1,216,89,1,

212,149,1,214,89,1,

211,149,1,213,89,0,

209,147,1,211,88,1,

208,147,1,211,88,1,

207,146,1,209,87,1,

206,145,1,208,87,1,

205,145,1,207,86,1,

204,143,1,207,86,2,

203,143,1,206,85,1,

202,143,1,205,85,1,

201,142,1,204,84,1,

201,141,1,203,84,1,

199,140,1,202,83,1,

199,140,1,201,83,1,

198,139,1,199,82,1,

196,138,2,199,82,1,

195,138,1,198,81,1,

195,137,2,197,81,1,

194,136,1,196,83,1,

193,135,1,195,82,1,

192,135,1,194,82,2,

192,134,1,193,81,1,

190,133,1,192,81,1,

189,133,1,191,81,2,

188,132,2,191,80,1,

188,131,2,189,79,2,

187,131,2,188,79,1,

186,130,2,188,79,2,

185,129,2,187,78,1,

184,129,1,186,78,2,

184,127,2,185,78,2,

183,127,2,184,77,2,

182,166,1,183,77,2,

181,164,2,183,78,2,

179,163,2,182,139,1,

179,163,2,181,137,2,

178,161,2,179,135,2,

177,159,2,179,135,2,

176,159,2,178,134,2,

175,158,2,177,133,2,

175,158,2,176,133,2,

174,185,2,176,131,2,

173,190,2,174,131,2,

172,188,2,174,130,2,

171,187,2,173,130,2,

171,186,2,172,129,2,

169,185,2,171,128,2,

169,184,2,171,127,2,

167,184,2,169,126,2,

167,182,2,169,126,2,

166,181,2,167,125,2,

165,179,3,167,124,2,

165,179,2,166,124,2,

163,178,2,165,123,2,

163,177,2,165,123,2,

162,176,2,164,123,2,

161,175,2,163,121,2,

161,174,2,163,121,2,

159,173,2,161,120,2,

159,172,2,161,120,2,

159,171,2,159,120,2,

158,170,3,159,119,2,

157,169,2,159,118,2,

156,167,3,158,118,2,

156,167,3,157,117,2,

155,167,2,156,118,2,

153,166,2,155,117,2,

153,164,2,155,117,2,

152,164,2,154,116,3,

152,163,2,153,115,2,

151,162,2,153,115,2,

150,161,2,152,114,2,

150,159,2,152,113,2,

149,159,2,151,113,2,

148,159,2,159,113,2,

147,158,2,166,112,2,

147,157,2,164,111,2,

146,156,2,163,110,2,

145,156,2,162,110,2,

144,155,2,162,110,2,

144,154,2,160,109,2,

143,153,2,159,108,2,

143,152,2,159,108,2,

142,152,2,158,107,2,

142,151,2,157,106,2,

141,150,2,157,107,2,

142,152,2,156,105,2,

141,151,2,155,105,2,

141,150,2,154,104,2,

140,148,2,153,103,2,

139,148,2,152,103,2,

138,147,2,152,103,2,

138,146,2,151,102,1,

137,146,2,150,102,2,

136,145,2,149,101,1,

135,143,2,149,101,2,

135,143,2,148,101,2,

135,143,2,147,99,1,

134,142,2,146,99,2,

134,141,1,146,99,2,

133,141,2,145,98,1,

132,140,1,144,98,2,

132,139,2,143,97,2,

131,138,2,143,97,2,

131,138,1,142,96,1,

130,137,1,142,96,2,

129,160,1,142,96,1,

129,159,2,141,96,2,

127,159,1,140,95,2,

127,158,2,140,95,2,

127,157,2,139,94,2,

126,156,1,138,94,1,

126,155,2,137,93,1,

125,154,2,137,92,1,

125,153,1,135,92,2,

124,153,1,135,92,2,

124,152,2,135,91,1,

123,152,2,135,91,2,

123,151,1,134,95,1,

122,150,2,133,94,1,

121,149,1,133,94,2,

121,148,1,133,93,1,

121,147,1,132,93,1,

120,146,2,131,92,1,

120,145,2,131,92,2,

119,145,1,130,91,1,

119,143,1,129,91,1,

118,143,2,129,90,1,

117,143,1,129,90,2,

117,142,2,127,89,1,

116,141,1,127,89,2,

116,140,1,127,88,2,

115,140,1,126,88,1,

115,139,2,125,88,1,

114,138,2,125,88,1,

114,138,1,125,87,1,

113,137,1,124,86,1,

113,135,2,123,86,1,

112,135,1,123,86,2,

112,135,2,122,85,1,

111,134,1,122,85,2,

111,134,1,121,84,1,

110,134,1,121,84,1,

110,133,1,120,83,1,

109,132,1,120,83,1,

109,131,1,120,83,2,

109,131,1,119,82,1,

108,130,1,118,82,1,

108,129,1,118,81,1,

108,128,2,117,81,2,

107,128,1,117,81,1,

106,127,1,135,80,2,

105,127,1,146,86,1,

105,127,1,145,91,1,

104,126,1,143,91,1,

103,125,1,143,90,1,

103,125,1,143,90,1,

103,124,1,142,89,1,

103,124,1,141,89,1,

103,123,1,140,89,1,

102,122,1,140,88,1,

102,121,1,139,88,1,

101,121,1,139,87,1,

100,121,1,137,87,1,

100,120,1,137,86,1,

99,120,1,135,85,1,

99,119,1,135,85,1,

99,118,1,135,85,1,

99,118,1,134,84,1,

99,117,1,134,83,1,

98,117,1,133,83,1,

98,116,1,132,83,1,

97,115,1,131,83,1,

96,115,1,131,82,1,

96,115,1,131,82,1,

96,114,1,130,81,1,

95,114,1,129,81,1,

95,113,1,129,80,1,

95,113,1,129,80,1,

94,112,1,127,79,1,

94,112,1,127,79,1,

94,111,1,126,79,1,

93,111,1,126,79,1,

92,110,1,125,78,1,

92,110,1,124,78,1,

92,109,1,124,78,1,

92,109,1,123,77,1,

91,108,1,123,112,1,

91,108,1,121,125,1,

91,107,1,122,124,2,

90,107,1,121,123,1,

89,106,1,120,123,1,

89,105,1,120,121,1,

89,105,1,120,121,1,

88,105,1,119,120,1,

88,105,1,119,120,1,

88,103,1,118,119,1,

88,103,1,117,118,1,

87,103,1,117,118,1,

87,103,1,115,117,1,

86,102,1,115,117,1,

85,102,1,115,115,1,

85,101,1,115,115,1,

85,101,1,114,114,1,

85,100,1,114,114,1,

84,99,1,113,114,1,

84,99,1,113,113,1,

83,99,1,112,112,1,

147,98,1,112,112,1,

153,98,1,111,112,1,

152,97,1,111,110,1,

151,97,1,110,110,1,

150,97,1,110,109,1,

149,96,1,109,109,1,

148,96,1,109,109,1,

147,95,1,109,108,1,

147,95,1,108,107,1,

146,94,1,108,107,1,

145,94,1,107,107,1,

144,94,1,107,106,1,

143,94,1,106,105,1,

143,94,1,106,103,1,

142,93,1,105,103,1,

141,93,1,104,103,1,

141,92,1,103,103,1,

140,92,1,103,103,1,

139,92,1,103,102,1,

139,91,1,103,102,1,

138,91,1,102,101,1,

137,91,1,102,121,1,

135,90,1,195,192,1,

135,89,1,213,190,1,

135,89,1,211,188,1,

134,89,1,209,187,1,

134,88,1,208,186,1,

133,88,1,207,185,1,

132,88,1,206,184,0,

132,87,1,205,182,0,

131,87,1,203,182,1,

130,86,1,203,180,1,

129,86,1,201,179,1,

129,86,1,201,179,1,

128,85,1,199,178,1,

127,84,1,198,177,1,

127,84,1,197,176,1,

126,83,1,197,175,1,

126,83,1,195,174,1,

125,83,1,194,173,1,

125,83,1,194,173,1,

124,82,1,193,172,1,

123,82,1,192,171,1,

123,81,1,191,169,1,

123,81,1,189,169,1,

121,81,1,189,167,1,

121,80,1,188,167,1,

126,79,1,187,166,1,

126,79,1,186,165,1,

125,79,1,185,165,1,

124,79,1,184,163,1,

124,78,1,183,163,1,

123,78,1,182,162,1,

123,78,0,182,161,1,

121,77,0,180,161,1,

121,77,1,179,159,1,

121,77,1,179,159,1,

120,76,1,178,158,1,

120,76,1,177,157,1,

119,76,1,176,156,0,

118,75,1,176,156,1,

118,75,1,174,155,0,

117,75,1,174,154,1,

117,74,1,173,153,1,

116,74,1,172,153,1,

116,73,1,171,152,1,

115,73,1,170,152,1,

114,73,1,170,150,1,

132,73,1,169,150,1,

134,73,1,167,149,1,

133,73,1,167,148,1,

132,71,1,166,148,1,

131,71,1,166,147,1,

131,71,1,165,146,1,

130,71,0,164,146,1,

129,71,1,163,144,1,

129,71,1,163,144,1,

127,70,1,162,143,1,

127,70,1,161,143,1,

127,70,1,161,142,1,

126,69,1,159,142,1,

126,69,1,159,141,1,

126,69,1,158,140,1,

125,68,1,158,140,1,

124,67,1,157,139,1,

124,67,1,156,139,1,

123,67,1,155,137,1,

122,67,1,155,137,1,

121,67,1,154,135,1,

121,67,1,153,135,1,

121,66,1,152,135,1,

120,66,1,152,139,1,

120,65,1,152,138,1,

119,65,1,151,137,1,

118,65,1,150,137,1,

117,65,1,149,137,1,

117,64,1,149,135,1,

116,63,1,147,135,1,

115,63,1,147,134,1,

115,63,1,146,133,1,

115,63,1,146,133,0,

113,63,1,145,132,1,

113,63,1,144,131,1,

113,62,1,143,131,1,

113,62,1,143,131,1,

111,62,1,143,129,1,

111,61,1,142,129,1,

111,61,0,141,128,1,

110,61,1,140,127,1,

109,60,1,140,127,1,

109,60,0,140,126,1,

108,60,1,139,126,1,

108,60,1,138,126,1,

110,60,1,137,125,1,

109,88,1,137,124,1,

109,88,0,135,124,1,

108,87,1,135,123,1,

108,86,1,135,123,1,

107,86,1,134,121,0,

107,86,1,134,121,1,

106,85,1,133,121,1,

105,84,1,133,120,1,

105,84,0,132,120,1,

105,83,1,131,120,1,

107,83,1,131,119,1,

105,82,0,131,118,1,

105,82,1,130,117,1,

103,82,1,129,117,1,

103,81,0,128,116,1,

103,81,1,127,115,1,

103,81,1,127,115,1,

103,80,1,127,115,1,

102,79,0,126,114,1,

102,79,1,126,113,1,

101,79,1,125,113,1,

101,78,1,124,113,1,

135,130,1,124,112,1,

134,128,1,124,112,1,

133,127,1,123,111,1,

132,127,1,123,111,1,

131,126,1,122,110,1,

131,125,1,121,110,0,

130,124,0,120,109,0,

129,124,1,120,108,1,

128,123,1,120,108,0,

127,122,1,120,108,0,

127,121,0,118,107,1,

126,121,1,118,106,0,

126,120,0,117,106,1,

125,120,0,117,105,1,

125,119,1,116,105,0,

124,118,1,115,103,1,

123,118,1,115,103,1,

122,117,1,115,103,1,

121,116,1,114,103,1,

121,115,1,114,103,1,

121,115,1,113,101,1,

120,114,1,113,101,1,

120,114,1,112,101,0,

120,113,0,111,101,1,

119,112,0,111,100,1,

118,112,1,110,99,1,

117,111,0,110,99,1,

117,111,1,110,99,1,

115,111,1,109,98,0,

115,110,1,109,98,1,

115,109,1,108,97,1,

115,109,1,107,97,0,

115,108,0,107,96,1,

115,107,0,107,96,0,

114,107,1,106,95,1,

113,107,1,105,96,1,

112,106,1,105,95,1,

112,105,1,105,94,1,

112,105,1,103,94,1,

111,103,1,103,93,1,

110,103,0,103,94,1,

110,103,0,103,93,1,

110,103,0,103,92,1,

109,103,0,102,92,1,

109,101,1,102,92,1,

108,102,1,102,91,1,

108,101,1,101,90,1,

107,99,1,100,90,1,

106,99,1,100,89,1,

106,103,1,99,89,1,

105,103,0,99,89,1,

105,103,0,98,88,1,

103,103,1,98,88,0,

103,102,0,98,88,1,

103,101,0,97,87,0,

103,101,1,97,87,1,

103,101,0,96,86,1,

103,99,1,96,86,1,

103,99,0,96,85,1,

103,99,1,96,85,1,

103,98,1,96,85,1,

102,98,0,95,85,1,

102,97,1,94,85,1,

101,97,1,94,84,1,

101,97,0,94,83,1,

103,143,1,94,83,0,

102,143,1,93,83,0,

101,142,1,92,83,1,

101,142,0,92,82,0,

100,141,0,92,82,1,

100,140,0,91,81,0,

99,139,0,92,81,1,

99,139,1,91,81,1,

98,138,0,91,80,1,

98,137,1,90,96,1,

97,135,0,90,94,1,

97,135,1,89,94,1,

97,135,1,89,93,0,

96,134,1,89,93,1,

96,134,1,88,92,0,

96,133,1,88,92,1,

95,132,1,88,92,1,

95,131,1,88,91,1,

94,131,0,87,91,1,

93,131,1,87,90,1,

94,130,1,86,90,1,

93,129,1,86,89,1,

93,129,1,86,89,1,

92,128,1,85,89,0,

92,127,1,85,88,1,

92,127,0,85,88,1,

91,126,1,84,88,1,

91,126,0,84,87,0,

90,125,1,84,87,1,

90,125,1,83,86,1,

89,124,0,83,86,1,

89,123,1,82,85,1,

89,123,1,82,85,1,

89,122,1,82,85,1,

88,121,1,82,84,1,

88,121,1,81,83,0,

88,120,1,81,83,1,

87,121,1,81,83,1,

95,126,1,81,82,1,

102,125,1,80,82,1,

102,124,1,79,82,0,

101,124,1,79,81,1,

100,123,0,79,81,1,

99,123,1,79,81,1,

99,122,1,78,80,1,

99,121,0,79,79,1,

99,121,1,78,79,1,

99,120,1,78,79,1,

97,120,1,77,79,1,

97,119,1,77,78,0,

97,119,0,77,78,1,

96,118,1,76,78,1,

102,117,1,76,78,1,

101,117,1,76,77,1,

101,117,0,76,77,0,

101,115,1,75,76,1,

99,115,1,75,76,1,

99,114,1,75,76,1,

99,114,0,75,76,0,

98,114,1,74,76,1,

98,113,1,74,75,1,

97,113,0,74,75,1,

97,112,1,73,75,1,

96,112,0,73,75,1,

96,111,1,73,74,1,

96,111,1,71,74,1,

95,110,0,71,74,1,

94,110,1,71,73,1,

94,109,0,71,73,1,

93,109,1,71,73,0,

93,108,0,71,73,0,

93,108,1,70,73,1,

92,107,1,71,71,1,

92,107,1,97,71,1,

92,107,1,96,71,1,

92,106,1,95,71,1,

91,105,1,95,71,0,

90,105,1,94,71,1,

90,103,1,94,70,1,

89,103,1,93,70,1,

89,103,1,93,69,1,

89,103,0,92,70,1,

89,102,1,92,69,1,

88,102,1,92,69,1,

88,102,0,91,69,1,

87,105,0,91,68,1,

87,105,0,90,68,1,

86,105,0,90,68,1,

86,104,0,90,67,0,

85,103,1,89,67,1,

85,103,1,89,67,1,

85,103,0,89,67,1,

85,102,1,89,67,1,

84,102,1,88,66,0,

83,101,1,88,66,0,

83,101,1,87,66,1,

83,100,1,87,65,1,

83,99,1,86,65,1,

82,99,1,86,64,1,

82,99,0,85,65,1,

82,98,1,85,63,1,

81,98,1,85,65,0,

81,98,1,85,65,1,

81,97,0,84,64,1,

80,97,1,84,64,1,

80,96,0,83,63,1,

79,96,1,83,63,1,

79,96,1,83,63,1,

79,95,1,82,63,1,

79,95,0,82,63,1,

78,95,1,82,63,1,

78,94,0,81,62,0,

78,94,1,81,62,1,

77,93,0,80,62,1,

78,93,1,80,61,1,

78,92,1,79,61,1,

77,92,1,79,61,1,

77,92,0,79,61,1,

76,92,1,79,61,1,

76,91,1,78,60,0,

76,91,1,78,60,1,

76,91,1,78,60,1,

75,90,1,77,59,1,

75,89,1,78,60,0,

75,89,1,77,59,0,

74,89,1,76,59,1,

137,105,1,76,70,0,

140,103,1,76,69,0,

138,103,1,76,69,0,

138,103,0,75,69,1,

137,102,1,75,67,0,

135,102,1,75,67,1,

135,101,1,74,67,1,

134,100,1,74,67,0,

134,100,0,73,66,1,

133,100,1,73,66,1,

133,99,1,73,66,1,

132,99,1,73,66,1,

131,98,1,71,65,1,

131,98,1,72,65,0,

130,97,1,71,65,1,

130,97,0,71,63,1,

129,96,1,71,64,0,

128,96,0,71,63,1,

127,96,1,71,63,1,

127,95,1,71,63,1,

127,94,1,70,63,1,

126,94,1,70,63,1,

125,94,1,69,62,0,

125,93,0,69,62,1,

124,93,1,69,62,1,

124,93,1,73,101,1,

123,92,0,72,102,1,

123,91,1,71,101,1,

122,91,0,71,100,0,

121,91,1,71,100,1,

121,90,1,71,99,1,

120,89,1,70,99,1,

120,89,1,70,98,1,

119,88,1,70,98,1,

118,88,0,70,97,0,

118,88,1,73,97,1,

126,88,1,75,96,0,

127,88,1,79,96,0,

127,87,1,78,95,1,

127,86,1,78,95,1,

125,86,0,78,94,1,

125,86,1,77,94,0,

124,85,1,77,94,0,

124,85,1,76,93,1,

123,84,1,76,93,1,

123,84,1,76,93,1,

122,83,1,76,92,1,

121,83,0,75,91,1,

127,83,1,75,91,1,

127,83,1,74,91,1,

127,83,1,74,90,1,

125,82,1,73,90,1,

125,82,1,73,89,1,

124,81,1,73,89,1,

124,80,0,72,88,1,

124,80,1,71,88,1,

123,80,1,71,88,0,

122,79,1,71,87,0,

121,79,1,71,87,1,

121,79,1,71,86,1,

121,79,1,117,86,1,

120,78,1,115,113,0,

119,78,1,115,130,1,

119,78,1,114,129,1,

118,77,1,113,128,1,

118,77,1,113,127,0,

117,77,1,113,126,1,

116,76,1,111,126,1,

115,76,0,111,125,0,

115,76,1,111,125,1,

115,75,1,110,123,1,

114,75,1,109,123,1,

113,75,1,109,122,0,

113,74,1,109,121,1,

112,74,1,108,121,1,

112,73,1,108,120,1,

112,73,0,107,120,1,

111,73,1,106,120,1,

111,71,1,105,118,1,

109,71,1,105,118,1,

109,71,0,103,117,1,

108,71,1,103,117,0,

108,71,1,103,116,1,

108,71,1,103,115,1,

107,70,1,102,115,1,

106,70,1,102,114,1,

106,70,1,102,114,0,

105,69,0,101,114,1,

105,69,1,101,112,1,

103,69,1,99,112,1,

103,68,1,99,112,1,

103,68,0,99,111,1,

103,67,1,98,110,1,

103,67,1,98,110,1,

102,67,1,98,109,0,

101,67,1,97,109,1,

134,98,1,96,109,0,

132,97,1,96,108,1,

131,97,0,96,107,1,

131,96,0,96,107,1,

130,96,0,94,106,1,

129,95,1,94,106,1,

129,94,0,94,105,1,

128,94,0,94,105,0,

127,94,0,93,103,1,

127,93,1,93,103,0,

126,92,1,92,103,1,

125,92,1,92,103,1,

125,92,1,91,103,1,

124,91,1,91,102,1,

124,90,1,91,102,1,

123,90,1,90,134,1,

122,90,0,90,195,1,

121,89,1,89,194,1,

121,89,1,89,193,1,

121,88,0,89,192,1,

120,88,1,88,190,1,

120,88,0,88,189,1,

120,87,1,88,188,0,

188,87,1,88,188,1,

187,87,1,86,186,1,

185,86,1,86,185,1,

184,86,0,86,184,1,

184,85,1,86,184,1,

182,85,0,85,182,1,

181,84,1,84,181,0,

179,84,1,84,180,0,

179,83,1,83,179,1,

178,83,1,83,178,0,

178,83,0,83,178,0,

177,83,0,82,177,1,

176,82,1,82,176,1,

175,82,1,81,175,1,

174,81,1,81,174,0,

173,81,1,81,173,0,

172,80,1,80,173,0,

171,79,1,80,172,1,

171,79,0,79,171,1,

169,79,1,79,171,0,

169,79,0,79,169,1,

167,78,1,79,167,0,

167,78,1,78,167,1,

172,77,1,78,167,1,

172,77,1,77,166,1,

171,77,1,78,165,1,

171,76,1,77,165,1,

169,76,0,77,163,1,

167,76,0,76,163,0,

167,76,0,76,162,1,

167,75,1,76,162,0,

166,75,1,76,161,1,

165,74,1,75,159,1,

164,74,1,75,159,1,

163,73,1,75,158,1,

163,73,1,74,158,0,

162,73,1,74,157,1,

161,72,1,73,156,0,

161,71,1,73,156,1,

159,71,1,73,155,0,

159,71,0,71,154,1,

158,71,1,71,153,1,

158,71,1,71,153,0,

157,71,1,71,152,1,

156,70,1,71,152,0,

156,70,1,71,150,0,

155,69,1,71,150,1,

153,69,0,70,149,1,

153,68,1,70,148,0,

153,68,0,70,147,1,

152,68,1,69,147,1,

152,67,1,69,146,1,

150,67,0,68,146,0,

150,67,1,68,145,1,

149,66,0,68,144,1,

149,66,1,67,143,1,

147,66,1,67,143,1,

147,66,1,69,142,0,

146,65,1,103,142,1,

146,65,1,102,141,1,

145,65,1,101,141,1,

143,65,1,100,140,1,

143,65,0,99,139,0,

143,64,1,99,138,1,

142,64,1,99,137,0,

142,63,1,98,137,1,

141,63,1,98,137,1,

140,63,1,97,135,1,

140,63,1,97,135,1,

139,67,1,96,135,1,

138,77,1,96,134,1,

138,76,1,96,134,1,

137,76,1,95,133,1,

135,75,1,95,133,1,

135,75,1,94,132,0,

135,74,1,94,132,1,

135,74,0,93,131,1,

134,73,0,93,131,1,

134,73,0,93,131,1,

133,73,1,92,130,1,

132,71,0,92,129,1,

131,71,0,91,129,1,

131,71,0,91,127,1,

130,71,1,90,127,1,

130,71,1,89,127,1,

129,70,0,89,126,1,

128,71,1,89,126,0,

127,70,1,88,125,0,

127,70,1,88,124,1,

127,69,0,88,124,1,

126,69,1,87,123,1,

126,69,1,86,123,1,

125,68,1,86,122,0,

125,67,1,86,121,1,

124,67,1,85,121,1,

123,67,0,86,121,1,

123,67,1,85,121,1,

122,66,1,84,120,1,

122,66,1,83,120,0,

121,66,1,83,119,1,

121,65,0,83,118,1,

121,65,1,83,117,0,

120,65,1,82,117,1,

120,64,1,81,116,1,

119,64,0,81,116,1,

118,63,0,81,115,1,

118,63,1,81,115,0,

117,63,1,81,114,0,

117,63,1,79,114,1,

116,63,1,79,113,1,

116,63,1,79,113,1,

115,62,1,78,112,1,

115,62,0,78,112,0,

114,62,1,78,112,0,

114,62,1,78,111,0,

113,61,1,78,111,1,

113,61,1,79,110,1,

112,61,1,79,110,1,

112,60,0,79,110,1,

111,60,1,79,109,0,

111,60,1,78,108,1,

110,60,1,78,108,1,

110,59,1,78,108,1,

109,59,1,77,107,1,

109,58,0,77,106,0,

108,58,1,77,106,1,

107,58,1,76,105,0,

107,58,0,76,105,0,

107,88,0,76,103,1,

106,88,1,75,103,1,

106,87,1,75,103,1,

106,86,1,75,103,1,

105,86,1,74,103,1,

104,85,1,74,102,1,

103,85,1,73,102,1,

103,84,1,73,102,1,

103,83,1,73,101,1,

103,83,1,72,101,0,

102,83,1,71,100,0,

102,82,0,71,99,1,

102,82,1,71,99,1,

103,82,1,71,99,0,

102,81,0,71,98,1,

102,81,1,71,98,1,

102,80,1,70,98,1,

101,79,1,70,97,1,

100,79,1,70,97,1,

100,79,1,69,97,1,

99,79,0,69,96,1,

99,78,1,69,96,0,

99,78,0,69,95,1,

98,78,0,68,95,1,

98,77,1,68,95,1,

98,77,1,137,96,1,

97,77,1,207,95,1,

97,76,1,204,94,1,

96,76,1,203,94,1,

96,75,1,202,94,1,

96,75,1,201,93,1,

95,75,1,199,93,1,

95,75,1,199,93,1,

94,74,1,198,92,1,

94,74,1,197,92,1,

94,73,1,196,91,1,

94,73,0,195,91,1,

93,73,1,194,90,1,

92,73,1,193,91,1,

92,71,0,192,90,1,

92,71,1,191,89,1,

91,71,1,190,89,1,

91,71,0,190,89,0,

91,71,1,189,88,1,

90,70,0,188,88,0,

90,70,1,187,88,0,

89,70,1,186,88,1,

89,70,1,185,87,1,

88,69,1,184,87,1,

88,69,0,184,86,1,

88,68,1,183,86,1,

88,68,1,182,86,0,

88,67,0,181,85,0,

87,67,1,180,85,1,

86,67,0,179,84,1,

86,66,1,179,84,1,

86,66,0,178,83,1,

85,66,1,177,83,1,

85,66,1,176,83,0,

85,65,1,175,83,1,

85,65,1,175,82,0,

84,65,1,174,82,1,

84,64,1,174,82,1,

83,64,1,173,82,1,

85,64,1,172,81,0,

84,63,1,171,123,1,

84,63,1,170,216,1,

84,63,1,169,260,0,

83,63,1,169,257,1,

83,62,1,167,255,1,

83,62,1,167,253,1,

82,62,1,166,252,0,

82,62,0,166,250,1,

81,61,1,165,249,1,

81,61,1,164,248,1,

129,65,1,163,247,1,

127,65,0,163,245,1,

126,65,1,162,243,1,

126,65,1,161,242,1,

125,63,1,160,241,1,

124,63,1,159,240,1,

124,63,1,159,239,0,

123,63,1,158,237,1,

123,63,1,158,236,1,

121,62,1,157,235,1,

121,62,1,156,233,1,

120,62,0,156,231,1,

120,61,0,155,231,1,

120,61,1,155,229,1,

118,61,1,153,229,0,

117,60,1,153,227,1,

117,60,1,152,227,1,

117,60,1,152,225,1,

116,60,0,151,224,1,

115,59,1,150,223,1,

115,59,0,149,221,1,

115,59,1,149,221,1,

179,58,0,148,219,1,

178,57,1,147,219,1,

176,57,1,147,217,0,

176,57,1,146,216,1,

174,57,1,145,215,1,

173,57,1,145,214,1,

172,57,0,143,213,0,

171,56,0,143,212,1,

170,56,1,143,211,1,

169,56,1,142,210,1,

167,55,1,142,209,1,

167,55,1,141,207,1,

167,55,1,140,207,1,

166,55,1,140,205,1,

165,54,1,139,205,1,

164,54,0,139,204,1,

163,54,1,137,203,1,

162,53,0,137,201,1,

162,53,1,135,201,1,

160,53,1,135,199,0,

159,53,1,135,199,1,

159,52,1,134,198,0,

158,52,1,135,197,1,

158,52,1,134,196,1,

157,52,1,133,195,1,

156,51,1,132,194,1,

156,51,1,131,193,1,

155,51,1,131,192,1,

153,53,1,130,192,0,

153,53,1,130,190,1,

152,52,1,129,189,1,

152,53,1,128,188,1,

151,51,1,128,188,1,

150,52,1,127,187,1,

149,51,0,127,186,1,

149,51,1,126,185,1,

147,51,0,126,184,1,

147,50,0,126,183,1,

147,50,1,125,183,1,

145,50,1,124,181,1,

145,50,1,124,181,1,

143,50,1,123,179,1,

143,49,1,123,179,1,

142,49,1,122,178,1,

142,49,1,122,177,1,

141,49,1,121,177,1,

141,48,1,121,176,1,

140,48,1,120,175,1,

140,48,1,119,174,1,

139,48,1,119,173,1,

137,48,1,118,172,0,

137,47,1,118,171,0,

137,47,1,117,171,1,

135,46,1,117,170,0,

135,47,1,116,169,1,

135,46,1,115,169,1,

134,46,1,115,167,1,

134,46,1,115,167,1,

133,46,1,114,166,1,

132,45,1,114,166,1,

131,45,1,113,165,1,

131,45,1,113,163,1,

130,45,1,112,163,1,

129,45,1,112,163,1,

129,44,1,111,162,1,

129,44,1,111,161,1,

127,44,1,110,159,1,

127,44,1,110,159,0,

127,43,1,109,159,1,

126,44,1,109,158,1,

126,43,1,109,157,1,

125,43,1,108,157,1,

124,43,1,108,156,1,

124,43,1,107,155,1,

123,42,0,107,155,1,

122,42,1,106,153,1,

122,42,1,105,153,1,

121,41,0,105,153,0,

121,41,1,103,152,1,

120,41,1,103,151,1,

120,41,1,103,150,1,

120,41,1,103,150,1,

118,41,1,103,149,0,

118,39,1,103,148,1,

117,39,1,102,147,1,

117,39,1,102,147,1,

116,39,1,101,146,1,

115,39,1,100,146,1,

115,39,1,100,145,0,

115,39,1,99,144,1,

114,39,0,99,143,1,

114,39,1,99,143,1,

113,39,0,99,143,1,

112,38,0,98,142,1,

112,38,1,98,141,1,

112,38,1,97,141,0,

111,38,1,97,140,1,

110,37,0,97,140,1,

110,37,1,96,139,1,

109,37,0,96,138,1,

109,38,1,96,137,1,

111,38,1,95,137,1,

111,38,0,94,137,1,

110,38,0,94,135,1,

109,37,0,94,135,1,

109,38,0,93,135,1,

109,37,1,93,135,0,

108,37,0,92,134,0,

108,36,0,92,133,1,

107,36,1,92,133,1,

107,36,1,91,132,1,

106,36,0,91,131,1,

106,37,0,91,131,1,

105,36,1,90,130,0,

105,35,1,89,130,1,

105,35,1,89,129,0,

103,35,0,89,129,1,

103,35,1,89,128,1,

103,35,1,88,127,0,

103,35,0,88,127,1,

102,35,1,88,127,1,

102,35,0,88,126,1,

101,34,1,87,125,1,

101,34,0,86,125,0,

100,34,0,86,124,1,

100,34,1,86,124,0,

99,34,1,85,124,1,

99,34,1,85,123,1,

99,34,1,84,123,1,

98,33,1,85,122,1,

98,33,1,84,122,0,

97,33,1,83,121,0,

97,33,1,83,121,1,

96,32,1,83,120,1,

96,33,1,82,120,0,

96,32,1,82,120,1,

96,32,1,82,118,0,

95,31,1,81,118,1,

95,31,1,81,118,1,

94,31,1,81,118,0,

94,31,1,81,117,1,

93,31,1,80,117,1,

93,31,1,79,116,1,

93,31,1,79,115,0,

92,31,1,79,115,0,

92,31,1,79,115,1,

91,62,1,79,114,1,

91,61,1,78,113,1,

91,61,1,79,113,1,

90,60,1,78,113,1,

89,60,1,78,112,1,

89,60,1,77,112,0,

89,59,0,77,111,1,

89,62,0,77,111,0,

88,62,1,76,111,1,

88,62,1,76,110,1,

88,61,1,76,110,1,

87,61,1,75,109,0,

87,61,1,75,109,1,

86,60,1,75,108,1,

86,60,1,75,108,1,

85,60,1,74,107,1,

88,59,1,74,107,0,

86,59,0,73,107,1,

86,59,1,74,107,1,

86,58,1,73,106,1,

85,58,0,73,105,1,

85,57,1,72,105,1,

85,57,1,71,103,1,

84,57,1,71,103,0,

83,57,1,71,103,1,

83,57,0,71,103,1,

83,56,1,71,103,1,

83,56,1,71,103,1,

82,56,1,71,102,1,

92,56,1,70,102,0,

91,55,1,70,101,1,

91,55,1,70,101,1,

91,55,1,70,100,0,

90,54,1,69,100,1,

89,54,1,69,99,0,

89,54,1,69,99,1,

88,53,1,68,99,1,

88,54,1,68,98,0,

88,53,0,67,98,1,

88,53,1,67,98,1,

87,52,1,67,98,1,

87,52,0,67,97,1,

86,52,0,67,97,1,

85,51,1,67,97,1,

86,51,1,66,96,1,

85,51,1,66,96,1,

85,51,0,65,96,1,

84,50,1,65,95,1,

84,50,1,65,95,1,

83,50,0,65,95,0,

83,50,1,65,94,1,

82,50,1,64,93,1,

82,50,1,63,93,1,

82,49,0,64,93,1,

82,49,1,63,92,1,

86,49,1,63,92,1,

86,49,1,63,92,1,

85,49,1,63,92,1,

85,48,1,63,91,1,

84,48,1,63,91,1,

84,48,1,62,90,1,

83,47,0,62,90,1,

83,47,0,62,89,0,

83,47,0,62,89,1,

83,47,1,61,89,1,

82,46,1,62,89,1,

82,46,1,61,89,1,

82,47,1,61,88,0,

96,65,1,60,88,1,

102,64,1,61,88,1,

101,63,0,60,87,1,

100,63,0,60,87,1,

99,63,0,60,86,1,

99,63,0,60,86,1,

99,62,1,59,86,1,

98,61,1,59,86,1,

98,62,0,59,85,1,

98,61,1,58,84,1,

97,61,1,59,85,1,

97,62,1,58,84,1,

96,62,1,57,83,1,

96,61,1,58,83,1,

95,61,1,58,83,1,

95,61,1,57,83,1,

95,60,0,57,83,1,

94,60,1,56,82,0,

94,60,0,56,82,1,

93,60,1,57,82,1,

93,60,1,56,81,1,

93,59,1,56,81,1,

93,59,0,56,81,1,

92,58,1,56,81,1,

91,59,1,56,79,1,

91,58,0,55,79,1,

91,57,1,55,79,0,

90,58,1,55,79,0,

89,57,0,55,78,1,

89,56,1,54,78,1,

89,57,1,54,78,1,

89,57,1,53,78,0,

88,56,1,54,78,0,

88,56,0,54,77,1,

88,56,1,53,77,1,

87,56,1,53,77,0,

87,56,1,53,77,0,

86,55,1,52,76,1,

86,54,0,52,76,1,

86,54,1,52,75,0,

85,54,1,51,76,1,

85,54,0,51,76,1,

84,54,1,51,75,1,

83,53,1,51,75,1,

83,53,0,51,74,0,

83,53,1,51,74,1,

83,53,0,51,73,0,

83,52,0,50,73,1,

82,51,1,50,73,1,

82,56,1,50,73,0,

81,79,1,50,73,1,

82,78,1,126,102,1,

81,78,1,134,143,0,

81,77,1,134,141,1,

80,77,1,133,140,0,

79,76,1,131,140,1,

79,76,1,131,139,0,

79,75,0,130,139,1,

79,75,1,130,138,1,

79,74,1,129,137,1,

78,74,1,129,135,1,

77,73,1,127,135,1,

78,73,1,127,135,0,

77,73,1,127,134,1,

77,71,1,126,134,1,

