
35,19,1,39,39,5,

35,19,0,39,39,2,

35,19,0,39,39,5,

35,19,1,39,39,2,

35,19,1,39,39,2,

34,19,1,39,39,3,

34,19,1,38,39,2,

35,19,1,38,38,2,

34,19,1,38,39,5,

34,19,1,38,38,2,

34,18,1,38,38,2,

33,18,1,37,48,2,

33,18,1,37,47,2,

33,18,1,37,47,2,

33,18,1,37,47,6,

33,18,1,37,46,2,

33,18,1,36,46,3,

33,18,1,36,46,2,

32,18,0,36,46,2,

32,18,1,36,46,5,

32,17,1,36,46,5,

31,17,1,35,45,5,

31,17,1,35,45,2,

31,17,0,35,54,5,

31,17,1,35,65,2,

31,17,1,35,64,5,

31,17,1,35,63,2,

31,17,1,35,63,5,

31,17,1,35,63,2,

31,17,1,34,63,5,

31,17,1,34,62,4,

30,17,0,34,62,5,

30,17,0,34,62,4,

30,17,1,33,61,4,

30,17,1,33,61,4,

30,17,1,33,61,2,

30,17,1,33,60,2,

29,17,1,33,61,2,

30,17,1,34,61,4,

30,17,1,34,61,2,

31,16,1,34,60,2,

30,16,1,33,60,4,

30,16,1,33,60,2,

30,16,1,33,59,2,

30,16,1,33,59,5,

29,15,1,33,59,2,

29,15,0,33,58,1,

29,16,0,33,58,2,

29,16,1,32,58,3,

28,16,1,32,82,5,

29,16,1,48,113,2,

29,15,1,48,113,1,

28,15,0,47,111,4,

29,15,1,47,111,5,

28,15,1,46,110,2,

28,15,0,46,110,5,

28,15,1,46,109,1,

28,15,0,46,108,4,

28,15,1,46,108,1,

28,15,1,45,108,4,

28,15,1,45,107,1,

27,14,1,45,106,1,

27,14,1,44,106,2,

27,15,0,44,105,3,

28,14,1,44,105,2,

28,14,0,44,103,1,

28,15,1,44,103,4,

28,14,0,43,103,2,

28,14,0,43,103,5,

28,14,1,43,102,2,

28,14,1,43,102,4,

27,14,1,43,102,2,

27,14,1,42,101,4,

27,14,0,42,101,4,

27,14,0,42,99,1,

27,14,0,42,100,4,

27,14,1,41,99,1,

28,13,0,41,99,1,

27,13,1,41,98,4,

27,13,1,41,98,1,

27,13,1,41,97,1,

27,13,1,41,97,3,

27,13,1,39,96,2,

27,13,1,41,96,2,

26,13,1,39,96,4,

26,13,1,39,96,2,

26,13,1,39,95,2,

26,13,1,39,94,1,

25,13,1,39,94,1,

26,13,1,39,94,1,

26,13,0,39,93,5,

25,12,1,39,93,1,

25,12,1,38,93,3,

25,13,1,38,92,1,

25,12,1,38,92,1,

25,13,0,38,91,4,

25,12,0,38,91,4,

25,12,1,38,91,2,

25,12,1,38,90,2,

25,12,1,38,89,4,

25,12,0,37,89,1,

27,12,1,37,88,4,

27,12,0,36,89,2,

28,12,0,37,88,4,

27,12,1,36,88,2,

27,12,1,36,88,3,

27,12,1,36,87,4,

27,12,0,36,87,4,

27,12,1,35,87,4,

26,12,1,35,86,4,

26,11,1,35,86,4,

26,11,1,35,85,2,

25,12,1,35,85,1,

25,12,0,35,84,2,

29,12,1,35,84,3,

29,11,0,34,84,1,

29,11,0,35,83,2,

29,11,1,35,83,4,

28,17,1,34,83,1,

28,17,0,34,82,1,

28,17,1,34,82,4,

28,17,1,33,82,2,

28,17,1,33,81,1,

28,16,0,33,81,2,

28,16,1,33,81,2,

27,16,1,33,80,4,

27,16,1,33,79,1,

27,16,1,33,79,1,

27,16,1,32,79,4,

26,15,0,32,79,4,

27,15,0,32,79,2,

26,15,1,32,78,4,

27,15,1,31,78,1,

26,15,0,31,78,1,

26,16,1,31,77,4,

26,15,1,31,77,2,

26,15,1,31,77,2,

25,15,1,31,76,1,

25,15,1,31,76,1,

25,15,1,31,76,1,

25,15,1,30,75,1,

25,15,1,31,75,1,

25,15,1,30,75,1,

25,15,1,30,74,5,

25,15,1,30,74,1,

25,15,1,30,74,4,

25,14,1,30,73,1,

25,15,0,30,73,1,

25,14,1,30,73,1,

25,14,1,29,73,4,

24,14,1,29,71,2,

24,14,0,29,71,1,

24,14,1,29,71,4,

24,14,1,30,71,2,

35,14,1,29,71,5,

38,14,1,29,71,5,

38,14,1,29,70,5,

37,14,1,28,70,3,

37,14,1,29,70,5,

37,14,1,29,70,2,

37,14,1,28,69,4,

36,14,1,28,69,5,

36,13,1,28,68,5,

36,13,1,28,68,5,

36,14,1,28,68,2,

35,14,0,28,68,2,

35,13,1,28,107,5,

35,13,0,35,107,5,

38,13,1,42,105,2,

38,13,0,41,105,3,

38,19,1,41,103,1,

38,23,0,41,103,2,

37,24,1,41,103,4,

37,23,1,40,103,5,

37,24,0,39,102,2,

36,23,1,40,102,5,

36,23,0,39,101,2,

36,23,1,39,100,4,

36,22,1,39,100,2,

36,22,1,39,99,1,

36,22,1,39,99,3,

36,22,1,86,99,2,

35,27,1,84,99,3,

35,35,1,83,98,2,

35,35,0,83,98,4,

35,35,1,83,97,5,

34,35,1,82,96,5,

35,35,1,82,96,5,

34,34,1,82,96,2,

34,35,1,81,95,2,

34,34,1,81,95,1,

34,34,1,80,95,3,

34,34,1,79,96,2,

33,34,1,79,96,5,

33,34,1,79,96,2,

33,33,1,79,96,5,

33,34,1,78,95,4,

33,33,1,78,94,5,

33,33,1,78,94,5,

33,33,1,78,93,4,

32,33,1,77,93,5,

32,33,1,77,92,2,

31,32,1,76,92,3,

31,32,0,76,92,2,

32,32,1,76,92,4,

32,31,1,75,91,4,

33,31,1,75,91,2,

33,31,1,75,90,5,

33,31,1,74,90,1,

32,31,0,74,89,2,

32,31,1,74,89,4,

31,31,1,73,89,4,

31,31,1,73,88,2,

31,30,0,73,88,3,

31,31,1,73,88,2,

31,30,1,71,88,4,

31,30,1,75,87,4,

31,30,0,76,87,1,

31,30,1,75,87,4,

31,30,1,75,86,4,

31,30,1,75,86,2,

30,29,1,74,85,4,

30,29,1,74,85,2,

30,29,1,73,85,1,

30,31,1,73,85,2,

30,33,1,73,83,2,

30,32,1,73,83,2,

29,32,1,71,83,5,

30,32,1,71,83,1,

29,31,1,71,83,2,

29,32,1,71,83,1,

29,31,1,71,83,1,

29,31,1,71,83,1,

29,31,0,70,83,5,

28,31,0,70,82,1,

29,31,1,70,82,3,

28,31,1,69,82,2,

28,31,0,69,81,5,

28,30,1,69,81,4,

28,30,1,69,80,5,

28,30,1,68,79,2,

28,30,1,68,79,1,

28,30,1,68,79,4,

27,30,1,67,82,1,

27,30,1,67,89,4,

27,29,1,67,89,2,

27,29,1,66,89,3,

27,29,1,67,88,1,

27,29,0,66,88,3,

26,29,1,66,88,3,

26,28,1,65,88,4,

26,28,1,65,87,4,

27,29,0,65,86,3,

26,28,1,64,86,4,

26,28,0,64,85,2,

26,28,0,63,85,1,

26,28,1,63,84,2,

25,28,0,63,84,3,

25,28,1,63,84,1,

25,28,1,63,83,1,

25,27,1,63,83,3,

25,27,1,62,83,1,

25,34,1,62,82,1,

25,44,1,62,82,3,

25,43,0,61,82,1,

25,43,1,61,81,1,

25,43,1,61,81,2,

25,43,1,61,80,2,

24,43,1,61,80,4,

24,42,1,60,79,1,

24,42,1,60,80,1,

38,42,0,60,80,5,

38,42,1,60,79,4,

37,41,0,59,79,3,

37,41,1,60,79,5,

37,41,1,59,79,2,

37,41,1,59,78,2,

37,40,0,59,78,4,

36,40,1,58,78,3,

35,39,1,58,77,2,

36,39,1,58,77,2,

36,39,1,57,76,2,

35,39,1,57,76,2,

35,39,0,57,77,2,

35,39,0,56,76,2,

35,39,1,56,76,2,

35,39,1,56,76,5,

35,39,0,56,75,2,

34,38,0,56,75,5,

34,38,1,56,75,2,

34,38,1,55,75,2,

34,38,1,55,74,1,

34,38,1,55,73,5,

34,37,0,54,73,5,

34,37,1,55,71,2,

33,37,1,54,73,5,

33,37,0,54,71,2,

33,37,1,54,71,5,

33,37,1,54,71,5,

33,37,1,53,71,5,

33,36,1,52,71,2,

33,36,1,53,71,4,

33,36,1,53,70,1,

32,35,1,51,71,4,

31,35,1,52,70,4,

31,35,1,52,70,4,

31,35,1,51,69,5,

31,35,1,51,69,2,

31,35,0,51,69,1,

31,35,1,51,68,4,

31,34,0,51,68,4,

31,34,1,51,68,2,

31,34,1,50,67,2,

31,34,1,50,67,1,

30,34,1,50,67,2,

30,34,0,50,67,2,

30,34,1,49,66,4,

30,33,1,49,66,2,

29,34,1,49,65,1,

30,34,0,49,66,1,

29,33,1,48,65,5,

29,33,1,48,66,4,

29,33,1,79,120,2,

29,33,0,79,118,1,

29,33,0,78,118,1,

29,32,1,78,117,4,

29,32,0,78,116,2,

29,31,0,77,115,5,

29,35,0,77,115,2,

28,35,1,77,114,4,

28,35,1,77,114,2,

28,35,1,76,113,4,

28,34,1,76,113,1,

28,34,1,75,112,1,

27,34,1,75,112,3,

28,34,1,74,111,1,

28,34,1,74,111,2,

27,34,1,73,110,2,

27,33,1,73,110,4,

27,33,1,73,109,1,

26,33,1,73,109,4,

27,33,1,71,108,4,

26,33,1,71,108,3,

26,33,1,71,107,2,

26,33,1,71,107,3,

26,32,0,71,106,1,

25,31,1,71,105,1,

26,31,1,71,105,3,

27,31,1,70,103,1,

26,31,1,69,104,4,

26,31,0,70,103,4,

26,31,0,69,103,4,

25,31,1,69,102,3,

25,31,1,68,102,3,

25,31,0,68,102,1,

25,30,1,67,102,3,

25,31,0,67,101,1,

25,30,1,67,101,1,

25,30,1,67,99,1,

25,30,1,67,99,3,

24,29,1,66,99,4,

24,30,0,66,99,0,

25,29,1,65,98,4,

24,29,1,66,98,4,

24,29,1,65,97,2,

24,35,0,65,97,2,

24,35,1,65,97,1,

24,35,1,64,96,1,

24,35,1,64,96,2,

24,35,0,63,96,2,

24,35,1,63,95,1,

24,35,1,63,94,4,

24,34,1,63,94,1,

24,34,0,62,94,2,

26,34,0,62,93,1,

25,34,1,62,93,3,

25,34,1,62,93,1,

25,34,1,62,92,3,

25,34,1,61,92,1,

25,34,0,61,91,2,

25,33,1,61,91,1,

24,33,0,60,91,3,

25,33,1,61,90,4,

24,33,0,60,89,4,

24,33,1,60,90,2,

24,33,1,60,89,1,

24,32,1,59,89,2,

24,32,0,59,89,1,

24,31,1,59,88,3,

24,32,1,59,88,1,

24,37,1,59,88,4,

23,84,1,58,88,2,

23,83,1,57,87,3,

24,82,1,58,87,3,

23,82,1,57,86,4,

23,81,1,57,86,3,

23,81,1,57,85,3,

23,80,1,57,85,2,

23,80,1,57,85,3,

65,138,1,56,84,6,

76,205,0,56,84,4,

75,203,1,56,83,5,

74,202,0,55,83,6,

73,199,1,56,83,7,

73,199,1,55,82,5,

73,198,1,55,82,4,

71,197,1,54,82,7,

71,196,1,54,81,7,

71,195,1,54,81,4,

71,194,1,54,81,3,

71,193,0,53,80,4,

71,192,1,53,79,4,

70,192,1,52,79,7,

70,190,1,53,79,7,

70,189,1,52,79,7,

69,188,1,52,79,7,

69,187,1,52,78,4,

68,187,1,51,78,6,

68,185,1,51,77,4,

67,185,1,51,77,3,

67,184,0,51,77,5,

67,184,0,51,77,4,

67,182,1,51,76,4,

66,181,1,50,76,5,

66,181,1,50,76,6,

66,179,1,50,76,4,

66,179,0,49,75,5,

65,178,1,49,74,7,

65,177,0,49,75,4,

64,176,1,49,74,4,

64,176,1,48,73,3,

63,174,1,48,73,3,

63,174,1,48,73,6,

63,173,0,48,73,6,

63,172,1,48,71,6,

62,172,0,48,71,7,

63,171,1,48,71,6,

63,170,1,48,71,3,

62,169,1,47,71,6,

63,167,1,47,71,6,

62,167,1,46,70,3,

61,167,1,46,70,3,

61,166,1,46,70,3,

61,166,1,46,70,4,

61,165,1,46,70,4,

61,164,1,46,69,4,

60,163,0,45,68,3,

60,163,1,45,68,3,

59,162,1,45,68,7,

93,162,1,45,67,13,

164,161,1,45,67,12,

163,159,1,44,67,13,

161,159,1,44,67,13,

159,158,1,44,66,12,

159,157,1,44,66,15,

158,156,1,43,66,12,

157,156,1,43,65,15,

156,156,1,43,65,12,

155,155,1,43,65,13,

154,153,1,43,65,13,

154,153,1,42,65,14,

153,152,1,43,64,11,

152,152,1,42,63,10,

152,151,1,42,63,13,

151,150,1,41,63,14,

150,149,1,41,63,12,

149,149,1,41,63,11,

148,148,1,41,62,13,

147,147,1,39,62,12,

147,147,1,40,62,11,

146,146,1,41,61,11,

145,145,0,39,61,9,

145,144,1,39,61,10,

143,143,1,39,61,12,

143,143,1,39,60,12,

143,142,1,39,60,14,

141,142,1,39,60,10,

141,141,1,39,60,12,

140,140,1,39,59,11,

140,140,1,39,59,12,

139,140,0,38,59,9,

138,139,1,38,59,7,

137,138,1,38,58,11,

137,137,1,38,58,12,

135,136,1,38,58,12,

135,135,1,37,57,9,

135,135,1,37,57,12,

134,135,1,37,57,10,

133,134,1,36,56,10,

133,134,1,36,56,9,

131,133,1,36,56,10,

131,132,1,36,56,12,

131,131,1,35,56,11,

130,131,1,36,56,11,

129,131,1,35,55,9,

129,130,1,35,55,9,

128,129,1,35,55,9,

127,129,1,35,54,9,

127,128,1,35,54,8,

127,127,1,35,54,9,

126,127,1,35,53,8,

125,126,1,34,53,10,

125,126,1,35,53,11,

124,125,1,34,52,10,

124,125,1,34,53,12,

123,124,1,34,52,8,

123,124,1,34,52,12,

122,123,1,33,51,11,

121,123,0,33,51,10,

121,122,1,33,51,9,

120,121,1,33,51,9,

120,121,0,33,51,12,

120,120,1,33,51,12,

119,120,1,38,50,12,

118,119,1,38,50,9,

117,119,1,38,66,12,

117,119,1,37,88,9,

116,118,1,37,87,8,

115,118,0,37,87,9,

115,117,1,37,86,9,

115,115,1,36,85,9,

115,115,1,36,85,11,

113,115,1,35,85,11,

113,115,1,36,84,9,

113,114,1,35,83,7,

112,114,1,35,83,10,

112,113,1,35,83,11,

111,113,1,39,83,7,

111,112,1,39,82,9,

110,112,1,39,82,7,

110,112,1,39,81,7,

109,111,1,38,81,9,

109,110,1,38,81,11,

108,110,1,38,80,7,

108,110,1,37,79,7,

108,109,1,37,79,7,

107,108,1,37,79,7,

107,108,1,37,78,7,

106,108,1,36,78,7,

105,108,1,37,82,7,

105,107,1,36,81,8,

103,107,1,36,81,10,

103,105,1,36,80,7,

103,105,1,35,80,10,

103,104,1,35,79,9,

103,103,1,35,79,9,

102,103,1,35,79,7,

102,103,1,35,79,7,

101,103,1,35,78,7,

101,103,1,35,78,7,

101,102,1,34,77,10,

100,101,1,34,77,10,

100,101,1,34,77,9,

100,101,1,34,76,9,

99,100,1,33,76,7,

99,99,1,33,76,10,

99,99,1,33,75,7,

98,99,1,33,75,6,

98,99,1,33,74,7,

97,98,1,32,74,7,

97,98,1,33,74,9,

97,98,1,32,73,9,

96,97,1,32,73,7,

96,97,1,31,73,9,

95,96,1,31,73,9,

95,96,1,31,73,7,

94,96,1,31,71,9,

94,95,1,31,71,7,

94,95,1,31,71,6,

94,94,1,31,71,8,

93,94,1,31,71,7,

93,94,1,31,70,10,

93,93,1,31,71,9,

92,93,1,31,70,7,

92,92,1,30,70,7,

91,92,1,30,70,9,

91,92,1,30,69,6,

90,92,1,30,71,9,

91,91,0,30,70,7,

90,91,1,30,70,7,

89,90,1,30,69,7,

89,90,1,29,69,6,

89,90,1,30,68,9,

88,89,1,29,68,9,

88,89,1,29,68,6,

88,89,1,29,68,6,

88,88,1,29,67,6,

87,88,1,29,67,5,

87,88,1,29,67,6,

87,88,1,28,68,9,

86,87,1,28,74,6,

85,87,0,28,74,7,

86,87,1,28,73,6,

85,86,1,28,73,6,

85,86,1,28,73,8,

84,85,1,28,71,9,

84,86,1,28,72,6,

84,85,1,27,71,6,

83,84,1,27,71,9,

83,84,0,27,71,5,

83,83,1,27,71,7,

82,83,1,27,70,7,

82,83,1,27,70,7,

82,83,1,26,71,6,

81,83,1,26,70,8,

81,82,0,27,70,7,

81,82,1,27,70,7,

81,81,0,27,69,7,

80,81,1,26,69,7,

80,81,1,26,68,6,

79,81,1,26,68,6,

79,80,1,25,67,5,

79,80,1,26,67,6,

78,79,1,26,67,7,

78,79,1,25,67,5,

78,79,0,25,67,5,

78,79,1,25,67,7,

79,78,1,25,66,6,

78,78,1,25,66,5,

79,78,0,25,66,7,

78,77,1,24,65,5,

78,77,1,25,65,5,

78,77,1,25,65,7,

77,77,1,24,65,6,

76,76,0,24,65,7,

76,76,1,24,63,5,

76,76,1,24,63,5,

76,76,1,24,63,7,

75,75,0,24,63,7,

76,75,1,24,77,6,

76,75,1,27,81,7,

76,75,1,26,80,5,

75,74,1,27,79,5,

75,73,1,27,79,7,

75,73,1,26,79,5,

74,73,1,26,79,5,

74,73,0,26,79,5,

74,71,1,26,78,5,

73,72,1,25,78,5,

73,72,1,26,77,5,

73,71,1,25,77,6,

73,71,1,25,77,4,

71,71,1,25,81,7,

71,71,0,25,81,5,

71,71,1,25,81,8,

71,70,1,24,80,6,

71,70,0,25,80,5,

71,70,1,25,79,5,

71,70,1,25,79,7,

71,70,1,24,79,7,

71,69,1,24,78,5,

70,69,1,24,78,8,

69,69,1,24,77,4,

69,68,1,25,77,7,

69,68,1,25,77,7,

68,67,1,24,77,7,

69,68,1,24,76,5,

69,67,1,24,76,7,

67,67,1,24,76,5,

68,66,1,24,75,7,

67,67,1,24,75,7,

67,66,1,24,74,7,

67,66,1,24,74,8,

67,66,1,24,74,5,

67,65,1,24,73,5,

66,65,1,24,73,7,

66,65,1,24,73,7,

66,65,1,30,73,6,

65,64,1,30,83,5,

65,64,0,30,83,5,

65,63,1,30,82,5,

65,63,0,30,82,5,

64,63,1,30,81,6,

63,63,1,29,81,5,

63,63,1,29,81,4,

63,63,1,29,80,7,

63,62,1,29,79,7,

63,62,1,29,79,7,

63,62,0,29,79,5,

62,61,1,29,79,4,

62,62,1,29,78,7,

62,61,1,28,78,3,

62,61,0,28,78,5,

61,61,1,28,77,7,

61,60,1,28,77,6,

61,61,1,28,77,4,

61,61,1,28,77,4,

60,61,1,28,76,7,

60,60,0,28,76,4,

60,60,1,27,75,5,

60,60,1,27,75,4,

60,60,0,27,74,5,

59,60,1,27,74,5,

59,59,1,27,74,4,

59,59,1,27,73,5,

58,59,1,26,73,7,

58,59,1,26,73,4,

58,58,1,26,73,7,

58,58,1,26,71,7,

57,58,1,25,71,7,

57,57,1,25,71,4,

57,57,1,25,71,7,

57,57,1,25,71,6,

57,57,1,25,71,4,

56,57,1,25,71,7,

56,56,1,25,70,5,

56,57,1,25,70,7,

56,56,1,25,70,7,

56,56,1,32,69,3,

56,56,1,32,69,7,

56,56,1,31,68,6,

55,55,1,32,68,3,

55,55,1,31,67,6,

55,55,1,31,67,4,

54,55,1,31,67,3,

54,54,0,31,67,4,

54,54,1,31,66,5,

53,54,1,31,66,4,

54,54,1,30,66,7,

53,53,1,31,66,3,

53,53,1,31,66,6,

54,53,1,30,65,6,

55,53,1,30,65,4,

55,53,1,30,65,3,

55,52,1,30,64,3,

54,51,1,29,64,3,

54,52,1,30,63,4,

54,51,1,29,63,4,

54,51,1,29,63,6,

53,51,1,29,63,7,

53,51,1,29,63,3,

53,51,0,29,63,3,

52,51,1,29,62,3,

52,51,1,29,62,6,

51,50,0,28,62,3,

67,50,1,28,61,6,

68,50,1,28,61,4,

68,50,1,28,61,5,

68,49,1,28,61,5,

67,49,1,28,60,5,

67,49,1,27,60,6,

66,49,1,28,60,7,

67,49,1,27,60,4,

66,49,1,28,59,4,

65,48,1,27,59,5,

65,48,1,27,59,5,

65,48,1,27,87,6,

65,48,1,31,90,5,

64,48,1,31,90,7,

65,48,1,31,89,5,

64,48,0,31,88,7,

63,54,0,31,88,7,

63,62,1,31,88,7,

63,62,0,31,88,5,

63,61,1,30,87,7,

63,61,1,30,86,5,

63,61,1,31,86,5,

62,60,1,30,86,6,

62,60,1,30,85,5,

61,60,1,30,85,7,

62,60,1,30,84,7,

62,59,0,30,83,4,

62,59,1,29,83,7,

61,58,1,30,83,4,

61,58,1,30,83,4,

61,58,1,29,82,7,

61,57,1,29,81,7,

60,57,1,29,82,4,

60,57,0,29,81,7,

60,57,1,29,81,5,

60,56,1,28,81,7,

59,56,1,28,79,7,

81,56,1,28,79,7,

98,56,1,28,79,10,

97,56,1,28,79,10,

97,55,0,28,79,10,

96,55,1,28,78,10,

96,55,0,28,78,10,

95,55,1,28,78,7,

95,54,0,27,77,10,

94,54,1,27,77,7,

94,53,1,27,77,7,

93,53,1,27,76,7,

93,53,1,39,76,7,

93,53,1,83,76,10,

92,52,0,83,76,6,

92,53,1,82,76,9,

92,52,1,82,75,7,

91,52,1,82,75,7,

90,52,1,81,74,9,

90,51,1,80,73,7,

90,51,1,79,73,6,

89,51,1,79,73,7,

89,51,1,79,73,8,

88,51,1,79,71,7,

88,51,1,78,71,9,

88,50,1,79,71,6,

88,50,1,78,71,9,

87,50,1,78,71,9,

87,49,1,77,71,7,

86,49,1,77,71,7,

86,61,1,77,71,6,

85,73,1,77,70,6,

85,71,1,76,70,10,

85,71,1,76,69,7,

84,71,1,75,69,7,

84,71,1,75,69,9,

83,71,1,74,68,5,

83,70,1,74,68,9,

83,70,0,74,67,7,

83,69,1,74,67,7,

82,69,1,73,67,6,

82,69,1,73,67,6,

82,68,1,73,66,5,

81,68,1,73,67,9,

81,68,1,71,66,7,

81,67,1,71,66,7,

79,67,1,71,65,9,

79,67,1,71,65,6,

79,67,0,71,65,6,

79,66,1,71,65,5,

79,66,0,70,64,7,

78,66,1,70,64,6,

78,65,1,70,63,7,

78,65,0,70,63,5,

77,65,0,69,63,6,

77,65,1,69,63,6,

77,64,1,69,63,6,

76,63,1,67,62,8,

76,63,1,68,62,7,

76,63,1,68,62,9,

76,63,1,67,61,6,

75,62,0,67,61,6,

75,62,1,67,61,6,

74,62,1,66,61,7,

74,62,1,66,60,6,

74,62,1,66,61,7,

74,62,1,65,61,7,

83,61,1,65,60,8,

83,61,1,65,60,9,

82,61,1,65,60,9,

82,60,0,65,60,9,

82,60,0,64,59,8,

81,60,1,63,59,6,

80,60,0,63,59,6,

81,59,0,63,58,7,

79,59,1,63,58,7,

80,59,1,63,58,7,

79,58,1,62,58,7,

79,58,1,63,57,5,

79,58,1,62,57,7,

79,57,1,62,57,5,

78,57,1,62,57,5,

78,57,1,61,57,7,

77,56,1,61,56,7,

77,56,1,61,56,5,

77,56,1,61,56,7,

76,56,1,60,56,7,

76,56,1,60,56,9,

76,56,1,60,55,7,

75,56,1,60,55,5,

75,55,1,59,55,7,

75,55,1,59,54,7,

75,54,1,59,54,5,

74,54,1,58,54,7,

73,54,1,58,54,5,

74,56,1,58,54,4,

73,56,1,57,53,6,

73,55,1,57,53,5,

73,55,1,57,53,5,

72,55,0,57,53,7,

73,54,0,56,52,5,

71,54,0,56,52,5,

71,54,1,56,51,5,

71,54,1,56,52,4,

71,54,0,58,52,4,

71,53,1,57,71,7,

71,53,0,57,71,4,

70,52,0,57,71,7,

70,53,1,57,71,6,

70,52,1,57,70,5,

69,51,1,56,70,7,

69,51,1,57,70,7,

69,51,0,56,69,7,

69,51,1,56,69,5,

68,51,1,56,68,7,

68,51,1,56,68,5,

67,50,0,55,67,7,

67,51,1,55,67,5,

67,50,1,55,87,7,

67,50,1,55,88,5,

66,50,1,54,88,7,

66,49,1,54,88,7,

66,49,1,54,88,7,

66,49,1,54,86,5,

65,49,1,53,86,7,

66,48,1,53,86,7,

65,48,1,53,85,5,

65,48,0,52,85,5,

64,48,1,52,84,6,

64,48,1,52,84,7,

63,47,1,51,83,5,

63,48,1,54,85,5,

63,48,1,53,87,7,

63,47,1,53,86,4,

63,47,1,53,85,4,

63,46,1,53,85,6,

63,46,1,52,84,7,

62,46,1,52,84,4,

62,46,0,52,83,7,

62,46,1,52,83,5,

62,46,1,51,83,7,

62,46,0,51,83,4,

61,45,1,51,82,4,

61,45,1,51,82,7,

61,45,1,51,82,6,

62,45,0,50,81,5,

66,45,1,50,80,7,

65,44,1,50,80,5,

65,44,0,49,79,4,

65,44,0,49,79,7,

64,44,1,49,79,5,

64,44,1,49,79,4,

63,43,1,49,78,5,

63,43,1,49,78,5,

63,43,1,48,78,5,

63,43,1,48,78,4,

62,43,1,48,77,5,

62,43,1,48,77,4,

67,43,1,47,76,7,

68,42,1,47,76,5,

67,42,1,47,76,7,

68,42,1,47,76,5,

67,42,1,47,75,7,

67,41,1,47,75,5,

67,41,1,47,74,7,

66,41,0,46,74,5,

66,41,1,46,74,5,

66,41,0,46,88,9,

65,39,1,56,105,5,

65,41,1,56,103,4,

65,39,1,56,103,4,

64,39,0,56,102,4,

64,39,1,55,102,6,

73,49,1,55,101,6,

73,49,1,55,101,6,

73,49,1,55,100,5,

73,49,1,54,99,7,

71,48,1,54,99,7,

71,48,1,54,99,5,

71,48,0,54,98,7,

71,47,0,53,98,5,

71,47,0,53,97,7,

71,47,0,52,97,5,

70,47,1,54,127,4,

70,46,1,59,156,4,

70,46,1,59,154,5,

70,46,1,59,153,4,

69,46,1,58,153,5,

69,46,1,58,152,7,

69,46,1,57,151,7,

68,45,0,57,151,5,

68,44,1,57,150,7,

67,45,1,56,149,5,

67,44,1,56,148,5,

67,44,1,67,147,5,

67,44,1,103,147,4,

66,44,1,102,147,7,

66,44,1,102,145,7,

66,43,1,101,145,7,

66,43,1,100,144,7,

65,43,0,99,143,4,

65,43,0,99,143,4,

64,42,1,99,142,7,

64,42,1,98,142,5,

63,42,1,98,141,7,

63,42,1,97,140,4,

63,41,1,97,140,4,

63,42,1,96,139,7,

69,41,1,96,139,10,

113,41,0,96,138,9,

112,40,1,95,137,10,

112,41,0,94,135,7,

111,39,1,94,135,9,

111,39,1,93,135,10,

110,39,1,93,135,10,

109,39,1,92,134,7,

109,39,1,92,133,10,

108,39,1,92,133,9,

108,39,1,91,132,10,

107,39,1,90,131,10,

106,39,0,90,131,10,

106,39,1,89,130,11,

105,38,1,89,129,10,

105,38,1,89,129,7,

103,38,1,88,128,10,

103,38,1,88,127,7,

103,38,1,88,127,7,

103,38,1,87,127,7,

102,37,1,88,125,7,

102,37,1,87,125,6,

101,37,1,86,125,10,

101,37,1,86,124,7,

99,37,1,88,123,7,

100,36,0,87,123,7,

99,36,0,87,123,9,

99,36,1,87,122,7,

98,52,1,86,121,7,

97,53,1,86,121,9,

97,52,1,85,120,9,

97,52,0,84,120,9,

96,51,1,84,119,9,

96,51,1,84,119,9,

96,51,0,83,119,7,

95,51,0,83,121,7,

95,51,1,83,121,9,

95,50,1,82,120,9,

94,50,1,82,120,6,

93,49,1,82,119,9,

93,49,1,81,118,9,

92,49,1,81,118,7,

92,49,0,81,117,6,

92,49,1,79,116,6,

92,48,1,80,116,6,

91,48,1,79,115,9,

91,48,1,79,115,7,

91,48,0,79,115,6,

89,48,1,78,114,6,

89,47,0,78,113,6,

89,47,0,78,113,7,

89,47,1,78,113,6,

88,47,0,77,112,7,

88,46,1,77,112,9,

88,46,0,76,111,6,

88,46,0,76,111,7,

86,46,1,76,110,7,

86,45,1,76,109,8,

86,45,1,75,109,6,

85,45,1,75,109,9,

85,45,0,75,109,6,

85,44,1,74,108,9,

84,44,1,74,108,7,

84,44,1,73,107,9,

84,44,1,73,107,6,

83,44,1,73,107,6,

83,44,1,76,106,9,

83,43,1,129,105,5,

82,43,1,133,105,7,

81,43,0,132,105,5,

81,43,1,131,103,6,

81,43,1,130,103,7,

80,42,1,129,103,8,

80,42,0,128,103,5,

79,41,1,127,102,6,

79,41,1,127,101,5,

79,41,1,126,101,7,

79,41,1,126,101,5,

78,39,1,125,100,6,

78,40,1,124,99,5,

78,39,1,124,100,6,

77,39,1,124,99,6,

77,39,1,123,98,8,

77,39,1,123,98,5,

77,39,0,122,98,6,

76,39,1,121,97,7,

76,39,1,120,97,5,

75,39,1,120,97,6,

75,39,0,120,96,8,

75,38,0,119,96,6,

74,38,1,118,95,7,

74,38,1,118,95,7,

74,38,1,117,95,7,

74,38,1,117,94,8,

73,38,1,116,94,7,

73,37,1,116,93,8,

73,37,1,115,93,10,

101,37,1,115,93,9,

99,37,1,114,92,7,

99,37,1,114,91,10,

99,36,1,113,92,7,

99,36,1,113,91,7,

97,36,0,112,91,9,

97,35,1,112,90,10,

97,35,1,111,89,9,

96,35,1,111,89,7,

96,35,1,110,89,6,

95,35,0,110,89,9,

95,35,0,109,88,6,

94,35,1,109,88,7,

94,35,1,108,88,7,

94,35,1,108,88,9,

93,35,1,108,87,7,

93,34,1,107,87,9,

92,35,1,107,86,9,

92,35,1,106,85,6,

92,35,0,106,86,9,

91,34,1,105,85,8,

91,34,0,105,84,7,

90,34,1,104,84,6,

90,34,1,103,83,6,

90,33,1,103,83,6,

89,33,1,103,83,6,

89,33,1,103,83,9,

89,33,1,103,83,7,

88,33,0,102,82,9,

88,32,1,101,82,8,

87,33,1,101,81,5,

87,33,1,100,81,6,

87,33,1,100,81,6,

87,31,0,99,81,7,

86,32,1,99,79,6,

86,32,1,99,123,6,

85,31,0,108,157,7,

85,31,0,108,156,9,

84,31,1,107,154,9,

84,31,0,106,153,6,

83,31,1,106,152,9,

83,38,1,105,152,7,

83,39,1,105,151,6,

82,38,1,105,150,8,

82,38,1,103,149,6,

82,38,1,103,148,6,

81,38,0,103,147,7,

81,37,1,103,147,9,

81,37,1,102,146,5,

82,37,1,102,146,6,

82,36,1,101,145,9,

81,51,0,100,144,6,

81,51,1,100,143,6,

81,51,1,99,143,6,

80,50,1,99,142,6,

80,50,1,99,142,9,

79,50,1,98,141,7,

79,50,1,98,140,9,

79,49,1,98,140,7,

78,49,1,97,139,9,

78,49,0,97,138,7,

78,49,0,96,137,7,

78,49,0,96,137,7,

77,48,1,96,135,7,

77,48,1,95,135,6,

77,47,0,95,135,5,

76,48,0,94,135,7,

76,47,1,94,134,7,

76,47,1,94,133,6,

75,47,1,93,133,5,

75,47,1,92,132,4,

74,46,1,92,131,4,

74,46,1,92,131,7,

74,46,1,91,130,5,

74,46,1,91,129,5,

73,50,1,91,129,5,

73,78,1,91,128,5,

73,78,1,90,127,7,

73,77,1,89,127,5,

71,76,0,89,127,7,

71,76,1,89,126,7,

71,99,1,88,126,5,

71,98,1,88,125,6,

71,98,1,88,124,5,

70,97,1,88,124,7,

70,97,1,87,123,5,

69,96,1,87,123,8,

70,96,1,87,123,5,

69,96,1,86,122,7,

69,95,1,86,121,6,

69,94,1,85,121,7,

67,94,1,85,120,5,

67,93,0,85,120,4,

67,93,1,83,119,7,

67,92,1,84,119,4,

67,92,1,83,118,7,

67,92,0,83,118,5,

66,91,1,83,117,7,

67,91,0,82,117,5,

69,90,1,82,116,7,

69,90,1,82,115,7,

69,89,1,81,115,3,

68,89,1,81,115,7,

68,88,1,81,114,7,

67,88,1,80,114,5,

67,88,1,79,113,4,

67,88,1,79,113,4,

67,87,1,79,113,4,

67,87,0,79,112,4,

66,86,1,79,112,7,

66,86,0,78,111,7,

66,85,1,78,110,7,

66,85,1,78,110,7,

66,84,1,78,109,5,

66,84,1,77,109,7,

66,83,1,77,109,5,

65,83,1,77,108,6,

65,83,1,76,108,5,

64,83,1,76,107,4,

64,82,0,76,107,5,

63,82,0,75,107,3,

63,81,0,75,105,7,

63,81,0,75,105,7,

63,81,1,74,105,7,

63,80,0,74,105,5,

62,79,1,74,103,5,

62,79,0,73,103,7,

62,79,0,73,103,4,

62,79,1,73,103,7,

62,78,0,72,102,7,

61,78,1,72,102,6,

61,77,1,71,102,7,

60,77,1,71,101,7,

61,77,1,71,100,7,

60,77,1,71,100,3,

60,76,1,71,100,6,

60,76,1,71,99,3,

59,76,1,70,99,6,

59,75,1,70,98,5,

59,75,0,70,98,3,

59,75,1,69,98,7,

58,74,1,69,97,3,

58,74,1,69,97,3,

58,73,1,69,97,3,

57,73,1,68,96,3,

57,73,1,68,96,3,

57,73,1,67,96,7,

57,71,1,67,95,3,

57,71,0,67,95,5,

57,71,1,67,94,3,

56,71,0,67,94,3,

56,71,0,66,93,6,

56,71,1,66,93,6,

55,70,0,66,92,6,

55,70,1,65,92,4,

55,70,1,65,92,6,

54,70,1,65,92,3,

54,69,1,65,91,6,

55,69,1,65,91,4,

54,69,1,64,92,6,

54,68,1,63,123,5,

60,68,0,63,122,7,

59,68,1,63,121,7,

59,67,1,63,121,7,

59,67,1,63,120,6,

59,67,1,63,120,6,

58,67,1,63,120,4,

58,66,1,62,118,6,

57,66,0,62,118,5,

57,65,1,62,117,6,

57,65,1,61,116,4,

57,65,1,61,115,3,

57,65,1,61,115,3,

57,64,1,60,120,6,

56,63,1,60,120,7,

56,63,1,60,119,3,

56,63,1,60,118,3,

56,63,0,60,118,3,

56,63,0,60,117,6,

55,62,1,59,116,3,

55,63,1,59,116,3,

54,62,1,59,115,3,

54,62,1,59,115,3,

54,61,0,58,115,6,

53,61,1,58,114,3,

53,61,1,57,114,6,

53,61,1,58,113,6,

53,61,0,57,113,3,

53,60,1,57,112,4,

52,60,1,57,112,4,

52,59,0,56,111,6,

52,59,1,56,110,3,

52,59,1,56,110,7,

51,59,0,56,109,3,

51,58,1,56,109,6,

51,58,1,56,108,4,

51,58,1,55,108,6,

50,57,1,55,107,3,

51,57,1,55,107,3,

50,57,1,55,106,7,

50,57,1,54,106,3,

49,56,1,54,105,5,

49,57,1,54,105,3,

49,56,0,54,104,6,

49,56,0,54,103,3,

49,56,1,83,103,6,

49,56,1,83,103,6,

48,55,1,83,103,3,

48,55,1,82,102,6,

48,55,1,82,158,6,

49,54,1,81,201,7,

93,54,1,81,199,7,

92,54,1,80,199,7,

92,54,1,79,197,7,

91,53,1,79,195,7,

90,53,1,79,195,9,

90,53,0,78,194,11,

89,53,0,78,193,9,

89,52,1,78,192,9,

88,52,1,78,191,7,

88,52,1,77,190,7,

88,52,0,77,189,6,

87,51,0,77,190,7,

87,51,1,76,189,7,

86,51,1,76,188,7,

86,51,1,75,188,7,

85,50,1,75,187,8,

85,50,1,75,185,9,

84,50,0,74,185,6,

84,50,1,74,184,7,

83,49,1,74,184,6,

83,49,0,73,183,6,

83,49,1,73,182,5,

83,49,1,73,181,5,

82,49,1,71,179,7,

82,48,0,71,179,5,

92,48,1,71,178,9,

101,48,0,71,177,6,

99,48,1,71,177,9,

99,48,1,71,176,7,

99,47,1,71,175,9,

98,47,0,70,174,6,

98,47,1,70,173,6,

97,46,1,69,173,6,

97,46,1,69,172,6,

96,46,1,69,171,8,

96,46,1,69,171,7,

99,46,0,68,169,9,

99,46,1,68,169,6,

99,45,0,68,167,8,

97,47,1,67,167,8,

97,46,0,67,167,9,

97,46,0,67,166,7,

96,46,1,67,166,6,

96,46,0,66,164,6,

96,45,1,66,163,7,

95,45,1,66,163,8,

94,45,1,83,163,9,

94,45,1,83,161,6,

94,45,1,83,161,8,

93,44,0,82,159,9,

93,45,1,82,159,7,

92,44,1,82,159,7,

92,44,1,81,158,6,

92,44,0,80,158,9,

91,43,1,80,157,6,

91,43,1,79,156,7,

90,43,1,79,156,7,

89,43,1,79,155,7,

89,43,1,79,154,6,

89,43,1,89,153,9,

88,43,1,88,153,8,

88,42,1,88,152,6,

88,42,1,87,152,6,

87,41,1,86,152,6,

87,41,1,86,150,5,

87,41,1,86,150,6,

86,41,1,85,149,7,

86,41,1,85,148,7,

85,41,1,84,147,5,

85,41,1,84,147,8,

84,39,1,83,147,6,

84,39,1,83,146,7,

83,39,1,83,145,6,

83,39,1,82,145,8,

83,39,1,82,144,5,

82,39,0,82,143,5,

82,39,1,81,143,6,

82,39,1,80,142,9,

81,39,1,80,142,7,

81,39,1,79,141,7,

81,38,1,79,140,9,

80,38,1,79,140,6,

79,38,1,79,140,7,

79,38,1,78,139,6,

79,38,1,78,138,7,

79,37,0,78,138,6,

79,37,1,78,137,7,

78,37,1,77,135,7,

78,37,1,77,135,5,

78,49,1,76,135,7,

77,87,1,76,135,5,

77,86,1,76,134,7,

77,86,0,76,134,7,

76,85,0,75,133,6,

76,85,0,75,132,5,

75,84,0,74,131,5,

75,83,0,75,131,5,

74,83,1,74,131,7,

74,83,1,73,130,7,

74,82,1,73,130,7,

74,82,1,73,129,5,

73,81,1,71,129,7,

73,81,1,71,127,6,

73,81,1,71,127,5,

73,81,1,71,127,5,

71,80,1,71,126,5,

71,79,1,71,126,5,

71,79,1,71,126,5,

71,79,1,70,125,7,

71,78,1,70,124,7,

70,78,1,69,124,7,

70,78,1,69,124,7,

70,77,1,69,123,7,

70,77,0,69,122,7,

69,76,1,69,121,6,

69,76,1,68,121,7,

68,76,1,68,121,7,

68,76,1,67,121,4,

67,75,1,67,120,7,

67,75,1,67,120,7,

67,74,1,67,118,7,

67,74,1,66,119,4,

67,74,1,66,118,4,

66,73,1,66,118,3,

66,73,1,65,117,7,

66,73,1,65,116,4,

66,73,0,65,115,4,

65,71,1,65,116,4,

65,71,1,64,115,3,

64,71,1,63,115,7,

65,71,1,63,114,5,

63,71,1,63,114,7,

63,70,1,63,113,7,

63,70,0,62,113,3,

63,70,1,63,112,5,

63,70,1,62,112,5,

62,69,1,62,111,7,

62,69,1,62,111,4,

62,69,1,61,110,7,

62,67,1,61,110,4,

61,67,1,61,110,6,

61,67,1,60,109,5,

61,67,1,60,109,6,

61,67,1,60,108,3,

60,67,1,60,108,3,

60,66,1,60,108,6,

60,66,1,59,107,3,

60,65,1,59,107,5,

60,65,1,59,106,3,

59,65,1,59,105,6,

59,64,1,58,105,4,

59,64,0,58,105,6,

59,63,1,58,103,6,

58,63,1,57,103,3,

58,63,1,57,103,6,

58,63,1,57,103,6,

57,62,1,57,103,3,

57,63,1,57,102,5,

57,62,1,56,102,5,

105,62,1,56,102,6,

103,62,1,56,101,7,

103,61,1,56,101,7,

103,61,1,56,100,7,

103,61,0,55,99,8,

102,62,1,55,99,6,

101,62,1,55,99,7,

101,61,1,55,98,6,

100,61,1,54,98,5,

100,60,1,54,98,6,

99,60,1,54,97,5,

99,60,1,54,97,7,

99,60,1,54,97,7,

103,60,1,53,96,6,

103,59,1,53,96,7,

103,59,1,53,96,7,

102,59,1,52,95,7,

102,59,1,53,94,7,

101,59,0,52,94,7,

101,58,1,51,94,7,

100,57,1,51,93,5,

100,57,1,51,93,5,

99,57,0,51,93,8,

99,57,0,51,92,7,

98,57,1,51,92,9,

98,56,1,51,92,5,

98,56,1,51,92,9,

97,56,1,50,91,5,

97,56,1,50,91,7,

97,56,1,50,91,5,

96,56,0,50,90,4,

96,55,1,50,89,4,

95,55,1,50,89,7,

95,55,0,49,89,7,

94,54,1,49,88,5,

93,54,1,49,88,9,

93,54,1,49,88,5,

93,53,1,48,88,7,

92,53,1,48,91,7,

92,53,1,48,90,7,

92,53,1,48,90,5,

91,52,1,48,89,7,

91,53,1,48,89,5,

90,53,1,48,89,7,

90,52,1,47,88,7,

89,52,1,47,88,6,

89,51,1,47,88,5,

89,52,1,47,88,5,

89,51,1,46,87,5,

88,51,1,46,86,7,

88,51,0,46,86,6,

88,51,1,46,87,6,

87,51,1,46,96,4,

87,50,0,46,95,5,

86,50,1,45,95,5,

86,50,1,45,94,4,

86,50,1,45,94,7,

85,49,1,45,93,7,

84,50,1,44,93,4,

84,49,1,44,93,5,

84,49,1,44,92,7,

83,49,1,44,92,7,

83,49,1,44,91,5,

83,48,1,45,91,3,

83,48,1,48,92,7,

82,48,1,48,92,3,

82,48,1,47,91,5,

81,48,1,48,91,7,

81,47,1,47,90,5,

81,47,0,47,90,3,

80,47,1,47,89,4,

80,46,1,46,89,7,

79,46,1,46,89,7,

79,46,0,46,88,5,

79,46,1,46,88,4,

79,46,1,46,88,5,

79,46,1,45,88,4,

78,45,1,45,87,7,

78,45,1,45,87,6,

77,45,1,45,86,7,

77,45,1,44,86,4,

77,45,1,44,86,7,

77,44,1,44,85,6,

76,44,0,44,85,3,

76,44,1,44,84,4,

76,44,1,43,84,6,

75,44,1,43,83,7,

75,43,1,43,83,5,

75,43,1,43,83,6,

74,43,0,43,83,4,

74,43,1,43,86,6,

76,43,1,42,85,6,

76,42,1,43,85,3,

75,43,1,41,85,6,

75,42,1,42,84,6,

75,42,1,42,84,4,

74,41,1,41,83,6,

74,41,1,41,83,6,

74,41,1,41,83,3,

73,41,1,41,82,7,

73,41,1,41,82,5,

73,41,1,41,82,3,

73,39,1,40,81,6,

71,39,0,39,81,3,

71,39,1,39,81,6,

71,39,1,41,80,6,

71,39,1,39,80,4,

71,39,1,39,79,3,

71,39,1,39,79,4,

70,39,1,39,79,4,

70,39,1,39,79,4,

70,39,1,39,79,4,

70,39,0,39,78,6,

69,39,1,39,78,7,

68,39,1,39,78,3,

68,39,0,39,77,4,

68,39,1,38,77,3,

68,39,0,38,77,7,

67,39,1,38,76,3,

67,39,1,38,76,6,

67,39,1,38,76,3,

67,39,1,38,76,5,

66,39,0,37,76,4,

66,38,0,37,75,5,

66,38,1,37,75,6,

66,38,0,37,75,6,

65,38,0,37,74,4,

65,38,1,37,74,3,

65,37,1,37,73,4,

65,37,1,37,73,3,

64,37,1,37,73,5,

64,37,1,36,73,4,

63,37,1,36,73,6,

63,37,1,36,71,4,

63,37,1,35,71,6,

63,36,1,35,71,6,

63,36,1,36,71,6,

63,36,0,37,71,6,

62,36,1,36,71,6,

62,35,1,36,70,4,

61,35,1,36,70,3,

61,35,0,36,70,5,

61,35,1,35,69,4,

61,35,1,35,70,6,

61,35,1,35,69,6,

60,35,1,35,69,3,

60,35,0,35,69,6,

60,34,1,35,69,3,

60,35,0,35,68,3,

59,34,1,35,68,6,

59,33,1,35,67,3,

59,33,1,35,67,3,

59,33,1,34,67,5,

58,34,1,34,67,4,

58,33,1,34,67,6,

58,33,1,34,67,6,

57,33,1,34,66,3,

57,33,1,33,66,6,

57,37,1,34,66,6,

57,88,1,34,65,3,

57,87,1,33,65,6,

56,85,1,33,65,3,

56,85,1,33,64,2,

56,84,1,33,65,5,

56,84,1,33,64,3,

56,84,1,56,64,3,

56,83,1,55,63,5,

55,83,1,55,63,3,

78,83,1,54,63,4,

78,82,1,54,63,3,

77,82,1,54,63,3,

76,82,1,54,63,4,

76,81,1,53,62,7,

75,81,0,53,62,3,

75,80,1,53,62,5,

75,79,1,52,62,4,

75,79,1,52,62,3,

74,79,1,51,61,5,

74,79,1,51,61,6,

74,79,1,51,61,7,

73,78,1,51,61,4,

73,77,1,51,61,7,

71,78,0,51,106,4,

73,77,1,50,110,4,

73,77,1,50,109,3,

71,76,0,50,108,6,

71,76,1,50,108,5,

71,76,1,49,108,4,

71,75,1,49,107,5,

71,75,1,49,106,6,

71,74,1,49,105,7,

70,74,1,48,105,4,

70,73,1,48,105,7,

69,73,1,48,104,4,

69,73,0,48,103,5,

69,73,1,48,103,5,

68,72,1,47,103,3,

68,71,1,47,102,6,

67,71,0,47,102,3,

68,71,1,47,101,7,

67,71,0,46,101,3,

67,71,1,46,100,6,

67,70,1,48,100,4,

66,70,1,48,99,4,

66,70,1,47,99,4,

66,70,1,47,99,3,

65,69,0,47,98,6,

65,69,1,46,98,4,

65,68,0,46,97,3,

65,68,1,46,97,6,

64,67,0,46,96,6,

63,67,1,46,96,4,

63,67,1,46,96,3,

63,67,1,46,95,6,

63,67,1,46,94,3,

63,66,1,45,94,6,

63,66,1,45,94,4,

62,66,1,45,94,6,

62,65,1,45,93,3,

62,65,1,45,93,6,

67,65,1,44,92,7,

87,65,1,44,92,7,

87,65,0,44,92,5,

86,63,1,44,91,7,

85,63,1,44,90,5,

85,63,1,44,91,5,

84,63,1,43,90,5,

84,63,1,43,89,5,

83,63,0,46,89,7,

83,62,1,45,89,5,

83,62,0,46,88,5,

82,62,0,45,88,7,

82,61,0,45,88,5,

81,62,1,45,88,7,

113,61,1,44,88,9,

112,61,1,44,87,10,

111,61,1,44,86,9,

111,60,1,44,86,7,

110,60,1,44,85,6,

109,60,1,43,85,7,

109,60,0,43,84,6,

108,59,1,43,84,7,

108,59,1,43,83,7,

108,58,1,42,83,6,

107,58,1,42,83,6,

106,58,0,42,83,7,

105,57,1,42,82,9,

105,57,1,41,82,6,

105,57,1,83,82,6,

103,62,1,103,81,6,

103,154,1,103,81,7,

103,152,1,103,80,9,

102,151,1,102,79,7,

102,150,1,101,79,6,

102,149,1,100,79,6,

101,147,1,99,79,9,

101,147,1,99,78,6,

100,146,1,99,92,6,

99,145,1,98,96,6,

99,145,1,98,96,5,

99,143,0,97,95,6,

98,143,1,97,94,6,

98,142,0,96,94,7,

98,142,1,96,94,7,

97,141,1,96,93,7,

96,140,1,96,92,8,

96,140,0,94,92,5,

96,139,0,95,92,7,

95,138,1,94,91,6,

95,137,1,93,90,8,

94,137,0,93,90,5,

94,135,1,93,90,5,

94,135,0,92,89,7,

93,135,1,92,89,7,

92,135,1,92,89,6,

92,134,1,91,88,7,

92,133,1,90,88,5,

91,133,1,90,88,6,

91,132,1,89,87,9,

91,131,1,89,86,5,

90,131,1,89,86,7,

90,131,1,88,88,6,

89,130,1,88,88,7,

89,129,1,88,88,6,

88,128,1,87,87,5,

88,127,1,88,86,7,

88,127,1,87,86,5,

88,127,1,86,86,7,

87,126,0,86,85,5,

88,126,1,86,85,6,

86,125,1,85,84,7,

86,125,1,85,84,4,

85,124,0,84,83,7,

85,124,0,84,83,5,

85,123,1,83,83,7,

84,122,1,83,82,6,

83,122,1,83,82,7,

83,121,1,82,81,7,

83,121,1,82,81,4,

83,120,1,82,81,4,

82,120,1,81,80,4,

82,119,1,81,80,6,

82,119,1,81,79,6,

81,118,1,79,79,5,

81,118,1,79,79,5,

80,117,0,79,97,5,

80,117,1,88,177,7,

80,115,1,87,175,5,

79,115,1,87,173,7,

79,115,1,86,173,5,

79,114,0,86,172,6,

78,114,1,85,171,4,

78,113,0,85,170,5,

78,113,0,84,169,7,

77,112,1,83,167,5,

77,112,1,84,167,5,

77,111,1,83,166,4,

76,111,0,82,165,7,

76,110,1,82,166,7,

76,110,0,82,165,5,

75,109,1,82,163,4,

75,109,0,81,163,5,

75,108,1,81,162,5,

74,108,0,80,161,7,

74,108,0,79,161,5,

73,107,1,79,159,7,

73,107,1,79,159,3,

73,105,0,79,158,5,

71,105,1,78,157,4,

71,105,0,78,157,7,

71,103,1,78,156,4,

71,103,0,77,156,7,

71,103,0,77,155,4,

71,103,1,77,154,4,

70,103,1,77,153,5,

70,102,1,99,152,3,

70,102,1,99,152,3,

70,101,0,98,151,7,

69,101,1,98,150,3,

69,100,0,97,149,3,

68,99,1,97,149,4,

68,99,1,96,148,6,

67,99,1,96,147,4,

67,98,1,96,147,7,

67,98,1,95,146,6,

67,97,0,94,146,4,

66,97,1,94,145,6,

67,98,1,94,144,6,

66,97,0,93,143,3,

66,97,1,93,143,4,

65,97,1,92,142,3,

65,96,0,92,141,6,

65,96,0,92,141,3,

64,96,1,91,140,7,

64,95,1,91,140,3,

63,94,1,90,139,5,

63,94,1,90,139,4,

63,93,1,89,138,6,

63,93,1,89,137,4,

63,105,1,89,137,3,

62,103,1,88,136,4,

62,103,1,88,135,3,

62,103,1,88,135,5,

62,103,1,87,134,3,

61,102,1,86,134,5,

61,102,0,86,133,6,

61,101,1,86,132,3,

60,101,1,85,131,6,

60,99,1,85,131,3,

60,99,0,84,131,3,

60,99,1,84,130,3,

60,99,1,83,130,3,

59,98,1,83,129,4,

59,97,1,83,129,3,

59,97,1,83,128,6,

58,97,0,82,127,4,

58,96,0,82,127,6,

58,96,1,81,126,6,

58,96,1,81,126,3,

57,96,1,81,125,6,

57,94,1,81,125,5,

57,94,0,80,124,3,

57,94,1,79,124,3,

57,93,0,79,123,3,

56,93,1,79,123,3,

56,92,0,78,122,3,

56,92,1,78,122,5,

56,91,1,78,121,7,

56,91,0,78,120,5,

55,91,1,77,120,6,

55,91,1,77,120,3,

54,90,1,76,120,6,

57,89,1,76,119,3,

57,89,1,76,118,3,

57,89,1,76,118,3,

56,89,1,76,117,2,

56,88,1,75,117,3,

56,88,1,75,116,3,

56,88,1,74,115,6,

56,87,0,74,115,6,

56,87,1,73,115,6,

55,86,1,73,114,6,

54,86,1,73,114,3,

58,85,1,83,130,6,

58,85,1,83,129,3,

57,85,1,85,129,6,

57,84,1,84,127,3,

57,84,1,83,127,6,

57,83,1,83,126,6,

56,83,1,83,126,6,

56,83,1,82,125,3,

56,83,1,82,124,2,

56,82,0,81,124,5,

56,82,1,81,123,2,

55,81,1,81,123,3,

55,81,1,80,122,3,

55,81,1,79,121,3,

54,80,1,79,121,3,

54,80,1,79,121,4,

54,79,0,79,120,5,

54,79,0,79,119,3,

53,79,1,78,119,6,

53,79,0,78,118,3,

53,78,1,78,118,3,

53,78,1,77,117,3,

52,78,1,77,117,2,

52,78,1,77,116,5,

51,78,1,76,115,3,

51,77,1,83,159,6,

52,77,1,90,158,3,

51,76,1,89,157,5,

51,76,1,89,156,3,

51,76,1,89,156,5,

51,75,1,88,155,3,

50,75,1,88,154,2,

50,75,1,87,153,4,

50,74,1,87,153,2,

49,74,1,86,152,3,

49,73,1,86,151,3,

49,73,1,86,150,5,

49,73,1,85,150,3,

48,72,1,85,149,6,

48,71,1,85,147,5,

48,71,1,84,147,5,

