
34,10,1,34,77,5,

34,9,0,33,77,5,

35,10,1,33,78,3,

34,9,1,33,77,5,

34,10,1,33,76,5,

34,10,1,33,76,2,

34,9,1,33,76,5,

34,9,0,33,75,3,

34,9,0,32,75,5,

33,9,1,32,75,5,

33,9,1,32,75,5,

33,9,1,34,74,2,

33,9,1,34,74,5,

33,9,0,33,74,5,

32,9,1,33,73,2,

33,9,1,33,73,5,

32,9,1,33,73,2,

32,9,0,33,71,5,

32,9,1,32,71,2,

31,9,1,32,71,5,

31,9,1,32,71,6,

31,9,0,32,71,2,

31,9,1,32,71,6,

31,9,1,31,71,5,

31,9,1,31,70,5,

31,9,0,31,70,3,

31,9,1,31,70,2,

31,8,1,31,70,2,

31,9,1,31,69,3,

31,7,1,31,69,6,

30,7,0,31,69,5,

30,7,1,30,68,6,

30,9,1,30,68,2,

30,7,1,30,67,5,

30,8,1,30,67,2,

30,7,1,30,67,3,

30,7,1,30,67,2,

30,7,1,29,66,3,

29,7,1,29,66,5,

29,8,0,30,66,2,

29,8,1,29,66,2,

29,7,1,29,65,5,

29,7,1,29,73,2,

28,8,0,29,73,5,

29,8,1,29,73,5,

29,7,0,29,73,2,

28,7,0,29,71,5,

28,9,1,29,71,2,

28,11,1,28,71,2,

28,11,1,28,71,2,

28,11,0,28,71,3,

27,11,1,28,71,3,

28,10,0,28,71,6,

27,10,0,28,70,5,

27,10,0,27,70,5,

27,10,1,27,70,3,

27,10,0,27,69,2,

27,10,1,27,69,5,

27,9,1,27,69,2,

27,10,1,26,68,5,

26,10,1,27,67,2,

26,9,1,27,67,4,

26,9,1,26,67,2,

26,9,0,26,67,2,

26,9,1,26,67,2,

25,9,1,26,67,5,

25,9,0,26,66,2,

25,9,1,26,66,2,

25,9,0,25,66,5,

25,9,1,25,65,5,

31,9,0,25,65,5,

31,9,1,25,65,3,

31,9,1,25,64,2,

31,9,1,25,64,4,

31,9,1,25,63,3,

31,9,0,25,63,6,

31,9,0,25,63,5,

30,9,1,25,63,2,

31,9,0,25,63,6,

30,9,1,25,63,2,

30,9,1,24,63,2,

30,9,0,25,62,5,

30,9,0,24,62,5,

29,9,1,24,65,2,

30,9,1,24,65,5,

30,9,1,24,65,3,

30,9,0,24,65,2,

29,9,0,24,63,3,

29,9,0,24,63,3,

28,12,1,24,63,3,

29,12,1,23,63,6,

29,11,0,24,63,6,

28,11,0,24,63,2,

29,11,1,23,62,5,

28,11,1,23,62,3,

28,11,0,23,62,2,

28,11,0,29,74,3,

28,11,1,30,74,2,

28,11,1,29,73,5,

28,10,1,29,73,5,

28,10,1,29,73,2,

27,11,1,28,71,5,

27,10,1,28,71,2,

27,10,0,28,71,2,

27,10,1,28,71,4,

27,10,0,28,70,5,

27,10,0,28,71,2,

26,10,1,28,71,3,

26,10,1,28,70,3,

26,10,0,27,70,5,

27,10,0,27,70,4,

27,9,1,27,69,2,

26,10,1,27,69,5,

27,9,1,26,69,5,

26,9,1,27,68,2,

26,9,1,27,67,2,

25,9,0,26,67,5,

26,9,1,26,67,2,

25,9,0,26,67,4,

25,9,1,26,67,2,

25,9,1,26,67,1,

25,9,1,25,66,4,

25,9,0,25,66,2,

25,9,1,25,66,5,

35,9,0,25,65,6,

36,9,1,25,65,6,

35,8,1,25,65,3,

35,9,1,25,65,6,

35,9,1,25,64,6,

35,11,1,25,63,3,

35,11,1,24,63,5,

35,11,1,25,63,4,

35,11,1,25,63,3,

35,11,0,24,63,6,

35,10,1,24,62,3,

34,10,1,24,62,3,

34,10,1,24,63,3,

34,10,1,24,64,2,

34,10,1,24,63,3,

34,10,1,24,63,6,

34,10,1,24,63,3,

33,10,1,24,63,5,

33,10,0,23,63,3,

33,10,1,23,62,3,

33,10,1,23,62,5,

33,10,1,24,62,5,

32,10,1,23,61,6,

33,9,1,23,61,3,

32,9,1,22,61,6,

32,9,1,23,61,2,

32,10,0,23,60,5,

33,9,1,22,60,3,

33,9,1,22,60,6,

33,9,0,22,60,3,

33,9,1,22,60,3,

33,9,1,22,60,3,

33,9,1,21,59,3,

31,9,0,22,59,6,

32,9,1,22,59,6,

31,9,0,21,59,5,

32,9,0,21,59,3,

31,9,1,21,58,5,

31,9,1,21,58,5,

31,9,1,21,57,3,

31,9,1,21,59,3,

31,9,1,50,59,2,

31,7,0,50,58,6,

31,8,0,49,58,2,

31,8,1,49,58,5,

31,9,1,49,58,6,

31,9,0,49,57,2,

31,9,0,48,57,5,

31,9,0,48,57,6,

30,9,0,48,57,5,

30,9,0,48,56,3,

30,9,1,47,57,2,

30,9,1,47,56,4,

30,8,1,47,56,2,

30,9,1,47,56,5,

31,8,0,47,56,5,

31,9,1,46,56,6,

31,41,0,46,56,3,

31,49,1,46,55,5,

31,51,1,46,55,2,

31,51,1,45,55,2,

30,50,1,45,54,5,

30,50,1,45,53,3,

30,50,0,44,54,5,

30,49,1,44,53,3,

30,49,1,44,53,5,

30,49,1,44,53,5,

30,48,1,44,54,6,

33,50,1,44,54,3,

39,53,1,43,53,6,

39,54,0,43,53,6,

39,53,0,43,52,3,

39,53,1,43,52,3,

39,53,0,43,52,4,

39,53,1,43,52,5,

39,52,1,45,51,3,

39,51,1,45,51,3,

38,51,0,45,51,6,

38,51,1,45,51,3,

38,51,1,44,51,3,

38,51,1,44,50,6,

38,50,1,44,50,3,

38,50,1,44,50,3,

38,50,0,44,50,3,

37,50,1,43,50,4,

37,49,0,43,50,6,

37,49,0,43,49,3,

37,49,1,43,49,3,

37,49,1,43,49,6,

36,49,1,43,49,5,

36,48,0,42,48,3,

36,48,0,42,48,5,

35,48,1,47,49,3,

41,48,1,47,49,3,

47,47,1,48,49,7,

46,47,1,47,48,5,

46,48,1,47,49,4,

46,47,0,47,48,4,

46,46,1,46,48,4,

45,46,0,45,48,4,

45,46,1,46,48,3,

45,46,1,46,47,4,

45,46,1,45,47,4,

44,46,1,45,47,7,

44,45,1,45,47,3,

44,45,1,45,47,7,

44,45,1,44,47,4,

43,45,0,45,46,4,

43,45,1,44,46,3,

43,44,0,44,46,7,

43,44,0,44,46,4,

43,44,1,44,45,3,

42,44,1,43,45,7,

42,43,1,43,45,3,

42,44,1,42,45,6,

42,43,1,43,45,6,

41,43,1,42,44,6,

41,42,1,42,45,3,

41,42,1,41,44,6,

41,42,1,42,50,3,

41,42,1,41,49,6,

41,41,0,41,49,6,

41,41,1,41,49,6,

40,41,1,41,49,4,

39,41,1,41,48,4,

39,66,1,40,48,3,

39,65,1,39,48,6,

39,64,1,40,48,5,

39,63,0,39,48,3,

39,63,1,39,47,3,

39,63,1,39,47,3,

39,63,1,39,47,3,

39,63,0,39,47,3,

39,62,1,39,46,5,

38,62,1,39,46,3,

38,62,1,39,46,3,

38,61,1,39,46,3,

38,63,1,38,45,6,

38,65,1,38,46,6,

37,65,0,38,45,3,

37,64,1,38,45,3,

37,63,0,38,45,6,

37,63,1,38,44,3,

37,63,1,37,44,3,

36,63,0,37,44,5,

36,62,1,37,44,3,

36,62,0,37,44,3,

36,62,1,38,44,6,

35,62,1,38,44,6,

35,61,1,38,43,3,

35,61,1,38,44,3,

35,60,1,38,43,3,

35,60,1,37,43,3,

35,60,1,37,43,3,

34,60,0,37,42,3,

34,60,0,36,42,3,

34,59,1,37,42,6,

34,59,1,36,42,3,

34,59,1,36,71,6,

34,59,1,42,79,5,

33,58,1,43,79,3,

34,58,1,42,78,3,

33,58,1,41,77,5,

33,57,1,41,77,6,

33,57,1,41,77,3,

33,57,1,41,76,6,

33,57,1,41,76,3,

32,56,0,41,76,5,

32,56,1,41,76,5,

32,56,0,39,75,2,

32,56,1,39,75,5,

31,56,1,39,81,5,

33,55,1,39,80,3,

32,55,1,39,79,5,

32,55,0,39,79,6,

32,55,1,39,79,2,

32,54,1,39,79,5,

32,53,1,39,78,3,

31,54,1,38,78,2,

31,53,1,38,78,6,

31,53,1,38,77,2,

31,53,1,38,77,5,

31,52,1,38,77,5,

31,52,0,38,76,3,

31,52,1,37,76,3,

38,52,1,37,75,3,

38,51,0,37,75,3,

38,51,1,37,75,3,

37,51,1,37,74,3,

37,51,1,37,74,3,

37,51,1,37,73,6,

37,50,1,36,73,3,

36,50,1,36,73,3,

36,50,1,35,71,3,

35,50,1,36,71,5,

35,50,1,35,71,3,

35,49,1,35,71,4,

36,49,1,35,71,3,

37,49,1,35,71,3,

37,49,0,35,71,3,

37,48,0,35,71,6,

36,48,1,34,71,6,

36,48,1,35,71,6,

35,48,1,34,70,6,

36,47,0,34,70,3,

35,47,1,34,69,3,

35,47,1,33,69,3,

35,47,1,33,69,6,

35,47,0,33,69,3,

35,47,1,33,68,6,

35,46,1,33,68,3,

35,46,1,33,67,6,

35,46,1,41,67,5,

35,45,1,44,67,6,

35,46,0,45,67,5,

35,45,1,44,66,6,

35,45,1,44,66,6,

34,45,0,44,66,3,

34,45,1,43,66,5,

34,45,1,43,65,3,

34,44,1,43,65,5,

34,44,1,43,65,5,

34,44,0,43,65,3,

33,43,1,42,64,5,

33,43,1,42,63,2,

33,44,1,42,63,3,

33,43,1,44,63,5,

32,43,1,43,63,6,

33,43,1,43,63,2,

32,42,0,43,63,4,

32,42,1,43,62,3,

31,42,1,42,62,5,

31,41,1,41,61,5,

32,41,1,42,61,2,

31,41,1,41,62,6,

31,41,1,41,61,5,

31,41,0,41,60,2,

31,41,1,41,60,5,

31,41,1,41,60,3,

30,39,1,41,60,2,

31,50,1,41,60,2,

30,77,0,39,59,3,

30,77,1,39,59,2,

31,76,1,39,59,5,

30,76,0,39,59,2,

30,75,1,39,58,3,

30,75,1,39,58,3,

30,75,0,39,57,2,

29,74,0,39,57,2,

35,74,1,38,57,7,

59,73,1,41,57,5,

59,73,0,48,57,6,

58,73,1,48,57,5,

57,71,1,48,56,7,

57,71,1,48,56,7,

57,71,1,47,56,7,

57,71,0,48,56,7,

56,71,1,47,56,6,

56,71,1,47,55,7,

56,70,1,46,55,5,

56,70,1,46,54,7,

55,70,0,46,54,5,

55,70,1,45,54,7,

55,69,1,45,54,5,

54,69,1,45,54,7,

54,69,1,45,53,7,

54,67,1,45,53,7,

54,68,1,44,53,4,

54,67,1,44,52,7,

53,67,1,44,52,5,

53,67,1,44,52,5,

53,67,1,43,52,5,

52,66,0,44,51,5,

52,66,1,44,51,7,

52,65,1,43,51,5,

51,65,1,43,112,5,

51,65,1,44,135,7,

51,65,1,44,135,4,

51,64,1,44,134,4,

50,65,1,44,133,7,

50,64,1,44,133,4,

50,63,1,43,132,6,

49,63,1,43,131,4,

50,63,1,43,131,7,

50,63,1,43,130,4,

49,63,1,42,129,3,

49,62,1,42,129,5,

49,62,1,42,128,6,

53,62,1,41,127,6,

56,61,1,42,127,4,

56,61,0,41,126,7,

56,61,1,41,126,4,

56,60,0,41,125,7,

55,60,1,39,124,5,

55,79,1,41,124,7,

55,110,0,40,124,5,

54,110,1,39,123,7,

54,108,1,39,122,5,

54,108,1,39,121,7,

53,107,1,39,121,7,

53,106,1,39,120,4,

53,106,1,39,120,7,

58,105,0,39,119,5,

59,105,1,39,119,5,

58,103,1,38,118,5,

57,103,0,38,117,5,

57,103,1,38,117,7,

57,103,1,38,117,5,

57,102,1,38,115,5,

56,102,1,37,115,4,

56,101,1,37,115,7,

56,101,1,37,114,7,

55,100,1,37,114,3,

55,99,1,36,113,5,

55,99,0,36,112,5,

54,99,1,36,112,5,

54,98,1,36,112,7,

54,98,1,36,111,7,

54,97,1,35,110,4,

54,97,1,35,110,7,

53,96,1,35,110,4,

53,96,0,35,109,7,

53,96,0,35,109,7,

52,95,0,35,108,5,

52,94,1,35,108,4,

51,94,1,34,107,5,

51,93,1,34,107,4,

51,93,1,34,106,7,

51,93,1,34,106,7,

51,92,1,34,105,7,

51,92,1,34,105,4,

50,92,1,33,103,4,

50,91,1,33,103,4,

50,91,0,33,103,4,

50,90,1,33,103,4,

50,90,1,33,103,4,

49,90,1,32,102,4,

49,89,1,32,102,4,

48,89,1,33,101,7,

49,88,1,62,101,7,

48,111,0,66,100,3,

48,135,1,66,99,7,

48,134,1,65,99,3,

48,133,0,64,99,5,

47,132,1,63,99,4,

47,131,0,63,98,7,

47,131,1,63,97,4,

46,130,1,63,97,3,

46,129,1,63,97,6,

48,129,1,62,121,6,

48,127,1,63,121,4,

48,127,1,63,120,7,

48,126,0,62,120,4,

48,126,1,62,120,7,

48,173,1,62,118,4,

47,171,1,62,118,7,

46,169,1,61,117,6,

47,169,1,61,116,7,

46,167,1,61,115,4,

46,184,1,60,115,6,

46,192,1,60,114,3,

45,191,1,60,114,10,

110,189,1,60,113,9,

109,188,0,59,113,9,

108,187,1,59,112,11,

107,186,1,59,112,10,

106,185,0,58,111,10,

105,184,1,57,110,11,

105,183,1,57,109,10,

103,181,1,57,109,9,

103,180,1,57,109,11,

103,179,1,56,108,7,

103,179,1,56,108,11,

102,178,1,56,107,10,

101,177,0,56,107,12,

101,176,1,55,106,8,

100,175,0,55,105,7,

100,174,1,55,105,11,

99,173,1,54,103,11,

99,172,1,54,103,7,

98,172,1,54,103,11,

97,171,1,54,103,7,

97,169,0,53,102,11,

97,169,1,53,102,7,

96,167,1,53,102,9,

96,167,1,52,101,8,

95,167,1,52,100,9,

95,165,1,51,99,9,

94,165,1,51,99,11,

94,164,1,51,99,7,

93,163,1,51,99,10,

93,163,1,51,98,10,

93,162,0,51,97,7,

92,161,1,51,97,7,

92,161,1,50,97,7,

92,159,1,50,97,7,

91,159,1,49,96,7,

90,158,1,50,96,10,

90,158,1,49,95,7,

90,157,1,49,95,11,

89,156,1,49,94,10,

89,155,1,48,94,10,

88,155,1,48,93,7,

88,153,1,48,93,7,

88,153,1,48,93,7,

87,153,1,48,92,7,

87,152,1,47,92,9,

87,152,1,47,92,9,

86,151,1,47,92,9,

86,150,1,47,91,7,

85,150,1,47,91,9,

84,148,1,47,90,7,

84,147,1,46,90,7,

83,147,1,46,90,7,

84,147,1,46,89,6,

83,146,1,45,89,7,

83,146,1,45,88,7,

82,145,1,45,88,7,

82,144,0,45,88,7,

82,143,1,45,87,7,

81,143,1,45,87,9,

81,142,1,56,87,9,

81,142,1,56,86,9,

80,141,1,56,86,7,

80,141,0,55,85,7,

79,140,1,55,85,9,

79,139,1,54,85,7,

79,139,1,54,84,9,

78,138,0,54,83,6,

78,137,1,54,83,6,

78,137,1,53,83,9,

78,136,1,53,149,9,

77,135,0,67,158,6,

77,135,1,66,157,8,

77,135,1,66,156,7,

76,134,1,66,155,6,

76,134,1,66,154,6,

76,133,1,65,153,9,

75,132,1,65,152,9,

75,131,1,64,152,9,

74,131,1,64,151,6,

74,130,1,63,150,9,

74,130,1,63,149,6,

73,129,1,63,148,8,

73,128,1,63,147,7,

73,128,1,62,147,8,

73,127,1,62,146,6,

73,127,1,62,145,6,

73,126,1,62,144,6,

71,126,1,61,143,9,

71,125,1,61,143,9,

71,125,1,61,143,9,

71,124,1,61,142,6,

71,124,1,60,141,8,

70,123,1,59,140,7,

70,123,1,60,140,6,

70,122,1,59,139,6,

69,121,1,59,138,9,

69,121,1,59,138,9,

69,120,1,59,137,6,

68,120,0,58,135,6,

68,120,1,58,135,8,

68,119,1,57,135,7,

67,118,1,57,135,9,

67,118,1,57,134,6,

67,117,1,56,133,7,

66,117,0,56,133,5,

66,116,1,56,132,6,

78,115,1,56,131,9,

78,115,0,56,131,10,

78,115,1,56,130,9,

77,114,1,55,129,6,

77,114,1,54,129,9,

76,113,1,55,129,9,

76,112,1,54,127,7,

76,112,1,54,127,7,

76,112,1,54,127,7,

75,111,1,53,126,6,

74,110,0,53,126,9,

74,110,1,53,125,10,

73,110,1,53,124,9,

73,109,1,52,124,6,

72,109,1,52,124,9,

72,108,1,52,123,9,

71,108,1,51,122,7,

71,108,1,51,121,7,

71,107,1,51,121,7,

71,107,1,51,120,9,

71,106,1,50,120,8,

71,105,0,50,120,8,

70,105,1,50,119,8,

70,104,0,50,118,6,

69,103,1,50,118,9,

69,103,1,49,117,6,

69,103,1,49,117,6,

68,103,1,49,116,7,

68,103,1,49,116,6,

67,102,1,49,115,6,

67,102,1,48,115,6,

67,101,1,48,114,8,

66,100,1,48,113,7,

66,100,1,48,117,9,

66,99,1,48,127,8,

71,99,1,48,126,7,

71,99,1,48,126,7,

71,98,1,48,126,7,

71,98,1,48,125,6,

70,98,1,48,124,6,

70,98,1,47,124,8,

69,97,1,47,123,6,

69,97,1,47,122,6,

68,96,1,47,122,8,

68,96,1,47,121,5,

67,96,1,46,121,7,

67,95,1,46,120,6,

67,94,1,46,120,5,

67,94,1,45,120,7,

67,94,1,45,119,6,

66,93,1,45,118,6,

66,93,1,45,117,7,

65,93,1,45,117,7,

65,92,1,45,117,6,

65,92,0,44,116,5,

65,92,1,44,115,8,

64,92,1,44,115,5,

64,91,1,44,115,6,

63,91,1,44,114,5,

68,91,1,43,113,6,

68,90,1,43,113,7,

67,89,1,43,112,8,

67,89,1,43,112,9,

67,89,0,43,111,7,

67,88,1,42,111,7,

66,88,0,43,110,7,

66,88,1,42,110,7,

66,87,1,41,109,6,

66,88,1,42,109,5,

65,87,0,41,109,8,

65,86,1,41,108,4,

69,86,1,41,108,6,

69,86,1,39,107,7,

69,86,1,41,107,7,

68,85,0,39,106,5,

68,85,1,40,105,7,

68,84,1,39,105,7,

67,83,0,39,105,6,

67,83,1,39,105,6,

66,83,1,39,103,8,

67,83,1,39,103,5,

66,82,1,39,103,6,

65,82,1,39,103,7,

65,81,1,39,102,8,

65,82,0,39,102,5,

64,81,1,39,102,8,

65,81,1,38,101,5,

64,80,1,38,100,7,

63,79,1,38,99,6,

63,79,1,38,100,5,

63,79,1,37,99,7,

63,79,1,37,99,4,

62,79,0,37,99,7,

63,78,1,37,98,6,

62,78,1,37,97,4,

62,78,1,37,97,7,

62,78,1,37,97,7,

62,77,1,36,97,5,

61,77,1,36,96,5,

61,77,1,36,96,6,

61,76,0,35,95,5,

60,76,1,35,95,6,

60,76,1,35,94,5,

60,76,1,36,94,7,

59,76,1,35,94,5,

59,75,1,35,94,7,

59,75,1,35,93,7,

59,74,1,35,93,7,

59,74,1,35,92,7,

60,74,1,34,92,7,

60,73,1,34,92,7,

60,73,1,34,91,5,

59,73,1,34,91,7,

60,73,1,34,91,5,

59,71,1,33,90,7,

59,79,1,33,90,7,

59,90,1,33,89,4,

58,90,1,33,89,7,

58,89,1,33,89,4,

57,109,1,33,88,4,

57,109,1,33,88,7,

57,108,1,33,88,5,

57,108,1,33,89,5,

74,107,1,35,89,9,

81,106,1,35,89,6,

81,105,0,34,88,7,

80,105,1,34,88,9,

79,103,1,34,88,10,

79,103,1,34,88,6,

79,103,1,34,88,9,

78,103,1,33,87,6,

78,103,0,33,86,7,

78,102,1,33,86,6,

77,102,1,33,85,9,

77,102,1,32,86,12,

146,101,1,32,85,12,

145,100,1,32,84,13,

143,100,1,32,84,12,

142,99,1,32,83,11,

141,99,1,31,83,14,

141,98,1,31,82,11,

140,98,0,31,82,14,

140,97,0,31,82,10,

139,97,1,31,81,11,

137,97,1,31,81,12,

137,96,1,31,81,12,

137,96,1,31,111,12,

135,95,1,31,110,15,

135,94,1,31,109,14,

135,94,1,30,109,11,

134,94,0,30,108,13,

134,93,1,30,108,13,

132,93,1,30,107,12,

132,92,1,29,107,11,

131,92,1,29,106,15,

131,92,1,29,105,13,

130,91,1,29,105,14,

129,91,1,30,104,14,

129,90,1,29,103,11,

127,89,1,29,103,13,

127,89,1,29,103,11,

126,88,1,29,102,11,

126,88,0,34,102,10,

126,88,0,41,101,11,

125,88,1,41,101,11,

124,87,1,41,100,13,

124,87,1,41,99,11,

123,86,1,39,99,10,

123,86,1,39,101,12,

122,85,1,71,127,13,

121,85,1,93,126,13,

121,85,1,92,126,12,

120,84,1,91,125,12,

120,83,1,91,124,9,

119,83,1,90,123,9,

119,83,1,89,123,13,

118,83,1,89,122,12,

117,82,0,89,121,13,

117,82,1,88,121,12,

115,81,1,88,120,11,

115,81,1,87,120,9,

115,80,1,87,119,12,

115,79,1,86,118,10,

114,79,1,86,118,12,

113,79,1,85,117,10,

113,79,1,85,116,12,

112,78,1,85,115,7,

111,78,1,83,115,9,

112,78,1,83,115,7,

111,77,1,83,114,12,

110,77,1,83,114,7,

110,76,1,83,113,9,

109,76,1,82,112,8,

109,76,1,82,112,9,

108,76,0,81,112,11,

108,75,1,81,111,10,

107,75,1,80,110,12,

107,74,1,80,110,9,

106,74,1,79,110,11,

105,73,1,79,108,9,

105,73,1,79,109,12,

105,73,1,78,107,9,

103,73,1,78,107,12,

103,71,1,78,107,9,

103,71,1,77,106,12,

103,71,1,77,105,8,

102,71,1,76,105,12,

102,71,1,76,105,8,

101,71,1,76,103,9,

101,70,1,76,103,10,

100,70,1,75,103,8,

100,70,1,75,103,8,

99,70,1,76,102,11,

99,69,1,75,102,11,

99,69,1,75,103,12,

98,69,1,74,103,10,

97,68,1,74,103,11,

97,68,1,73,103,11,

97,67,1,73,103,10,

96,67,1,73,102,9,

96,67,1,71,101,7,

96,67,1,71,101,7,

96,67,1,71,100,11,

95,66,1,71,99,7,

94,66,1,71,99,10,

94,66,1,71,99,7,

95,66,1,71,99,10,

94,65,1,71,98,7,

94,65,1,70,98,7,

94,65,1,69,97,7,

93,64,1,70,97,7,

93,64,1,69,97,10,

93,63,1,69,96,7,

92,107,1,69,96,7,

92,125,1,68,95,10,

91,124,1,68,95,11,

91,123,1,68,94,10,

90,123,1,67,94,10,

90,121,0,67,94,11,

89,121,1,67,100,10,

89,120,1,67,99,7,

89,120,1,66,99,7,

88,119,1,66,99,7,

89,119,1,66,98,9,

88,118,1,65,97,10,

88,117,1,65,97,10,

88,117,1,65,97,9,

87,116,1,65,96,10,

86,115,1,63,96,9,

86,115,1,63,95,9,

85,115,1,63,94,7,

86,114,1,63,94,9,

86,113,1,63,94,9,

85,113,1,63,93,7,

85,112,1,62,93,7,

83,112,1,62,93,9,

84,111,1,62,92,7,

83,111,1,62,91,7,

83,110,1,61,92,7,

83,109,1,61,91,6,

83,109,1,61,90,7,

82,109,1,61,89,7,

82,108,1,60,89,7,

81,108,1,60,89,7,

81,107,1,60,89,7,

94,107,1,60,88,10,

94,106,1,60,88,10,

93,106,1,59,88,10,

93,105,1,59,88,10,

92,105,1,59,87,10,

92,103,1,58,86,9,

91,103,1,58,86,7,

91,103,1,58,86,7,

90,103,1,57,85,7,

90,102,1,57,84,10,

90,102,0,57,85,9,

89,101,1,56,84,10,

89,101,1,56,83,10,

88,100,1,56,83,7,

88,100,1,56,83,10,

88,99,1,56,83,10,

87,99,1,56,82,9,

87,99,1,55,83,11,

86,98,1,55,82,7,

86,98,1,55,81,7,

86,97,1,54,82,7,

85,97,1,54,80,7,

85,96,1,54,81,9,

85,96,1,54,79,10,

84,96,0,53,79,7,

83,95,1,53,79,10,

83,95,1,53,79,10,

83,94,1,52,79,7,

82,94,1,53,78,9,

82,94,1,53,78,7,

81,93,1,52,78,7,

81,93,1,52,78,7,

81,92,1,51,77,9,

81,92,1,51,77,7,

80,92,1,51,77,7,

80,92,1,51,76,7,

79,91,1,51,76,9,

79,90,1,51,76,10,

79,90,1,50,76,7,

79,90,1,50,75,7,

78,111,1,50,75,7,

78,110,1,49,75,9,

78,110,0,49,74,9,

78,109,1,49,74,9,

77,108,1,49,73,7,

77,109,1,49,73,9,

76,107,1,49,73,7,

76,107,0,49,73,6,

76,107,1,48,71,8,

76,107,1,48,71,6,

76,105,1,48,71,7,

75,105,1,48,71,7,

74,109,1,47,71,6,

74,108,1,48,71,7,

74,108,1,47,71,7,

73,107,1,46,70,9,

73,107,1,47,70,9,

73,107,1,46,70,9,

73,106,1,46,70,7,

71,105,1,46,69,7,

71,105,1,46,73,8,

71,103,1,46,75,5,

71,103,1,45,75,9,

71,103,1,45,75,9,

71,103,0,45,75,8,

70,102,1,45,74,6,

70,102,1,45,73,8,

70,101,1,44,73,5,

70,101,1,44,73,6,

69,100,1,44,73,6,

69,100,1,44,71,5,

69,99,1,43,71,7,

68,99,1,43,71,7,

123,99,1,44,71,14,

164,98,0,43,71,15,

163,98,1,43,70,14,

161,97,1,42,70,14,

160,97,1,42,70,15,

159,96,1,42,69,16,

158,96,0,42,69,17,

158,95,1,42,68,14,

157,95,1,41,69,15,

156,94,1,41,68,15,

155,94,1,41,67,16,

155,94,1,41,67,15,

154,93,1,40,70,15,

153,92,1,39,70,13,

152,92,1,39,70,16,

152,91,0,39,69,14,

151,92,1,39,69,14,

150,91,1,40,69,14,

149,90,1,39,68,15,

148,90,1,39,67,13,

148,89,1,39,67,14,

147,89,1,39,67,14,

146,89,1,39,67,12,

146,88,1,39,150,12,

145,88,1,49,151,12,

143,88,1,49,149,12,

143,87,1,49,148,15,

143,86,1,49,147,12,

142,86,1,48,146,12,

142,86,1,48,146,16,

141,85,0,48,144,14,

140,84,1,48,143,15,

139,84,1,47,143,12,

139,84,1,47,143,12,

138,83,1,47,142,14,

137,83,1,46,141,12,

137,83,1,46,140,12,

135,82,1,46,140,12,

135,82,1,46,139,13,

135,82,1,46,138,15,

134,81,1,45,137,13,

133,81,1,45,135,16,

133,80,1,45,135,11,

132,79,0,44,135,11,

131,79,1,44,135,12,

131,79,1,44,134,14,

130,79,1,44,134,14,

129,78,1,44,132,11,

129,78,1,44,132,14,

128,78,1,43,131,12,

127,77,1,43,131,12,

127,77,1,43,130,14,

126,76,1,43,129,14,

126,76,0,43,129,14,

125,76,1,43,128,11,

125,76,1,42,127,11,

124,76,1,41,127,15,

139,75,1,41,126,13,

138,75,1,41,126,15,

137,74,1,41,125,14,

137,73,1,41,124,13,

135,73,1,41,124,13,

135,73,1,41,123,12,

135,73,1,39,123,15,

134,71,1,39,122,14,

133,71,1,42,121,15,

132,71,1,48,121,15,

131,71,1,48,120,11,

131,71,1,47,120,15,

130,71,1,48,119,15,

130,71,1,47,118,16,

129,70,1,46,118,16,

128,70,1,47,118,15,

127,69,1,47,116,14,

127,69,1,47,115,12,

127,69,1,46,116,12,

126,68,1,46,115,12,

125,67,1,46,115,12,

125,68,0,46,114,12,

124,67,1,45,114,12,

124,67,1,45,113,13,

123,67,1,45,112,14,

122,66,1,45,112,13,

121,66,1,44,111,11,

121,66,1,44,111,11,

120,65,0,44,110,10,

120,65,1,44,110,13,

120,65,1,43,109,12,

119,64,1,43,109,13,

118,63,1,43,108,13,

117,63,1,43,108,9,

117,63,1,42,108,12,

144,63,1,43,107,13,

144,63,1,42,106,13,

143,63,1,41,105,13,

143,62,1,41,105,13,

142,63,1,41,105,13,

141,63,1,41,103,14,

140,63,1,41,103,13,

140,63,0,41,103,15,

139,63,1,39,103,11,

138,62,1,39,103,14,

137,62,1,39,102,12,

141,63,1,39,101,12,

139,62,1,39,101,13,

139,62,1,39,101,14,

138,71,1,39,100,14,

137,71,1,39,99,15,

137,71,1,39,99,14,

135,70,1,39,99,11,

135,70,1,39,98,14,

135,70,1,39,98,13,

134,69,1,39,97,12,

133,69,1,39,97,11,

133,69,1,39,99,11,

132,68,1,39,99,13,

131,68,1,39,99,14,

131,67,1,39,98,14,

130,68,1,39,98,14,

129,67,1,38,98,11,

129,67,1,38,97,13,

128,67,1,37,96,10,

127,67,1,37,96,11,

127,67,1,37,96,13,

126,66,1,37,95,9,

126,66,0,37,95,10,

125,65,1,37,94,13,

125,65,0,37,94,13,

124,65,1,36,94,13,

123,64,1,37,93,10,

123,64,1,36,93,13,

122,64,1,36,92,11,

122,63,1,35,92,12,

121,63,1,35,91,12,

121,63,1,35,91,9,

120,63,0,35,90,10,

120,62,1,35,90,12,

120,62,1,35,90,12,

119,62,1,35,89,13,

118,61,1,35,89,10,

117,61,1,35,89,12,

117,60,1,35,88,10,

116,61,1,35,88,11,

115,60,1,35,88,12,

115,60,0,35,87,9,

115,60,1,35,87,9,

114,59,1,35,87,12,

114,59,1,34,86,12,

113,59,1,34,86,12,

113,59,1,34,137,12,

112,59,1,34,135,12,

111,58,1,34,135,12,

111,58,1,33,134,9,

111,57,1,33,133,11,

110,57,1,33,132,10,

110,57,1,33,132,9,

109,57,1,32,131,10,

109,56,1,33,130,9,

108,56,1,32,129,9,

108,56,1,31,129,9,

108,56,1,32,127,9,

107,56,1,31,127,9,

106,56,1,31,127,9,

106,56,1,31,126,11,

105,55,1,31,126,9,

105,55,1,31,125,12,

103,55,1,31,124,12,

103,54,1,31,124,12,

103,54,1,31,123,11,

103,54,1,30,122,12,

103,54,1,30,121,12,

102,53,1,30,121,10,

101,53,0,30,120,12,

101,53,0,30,120,8,

100,52,1,30,119,11,

99,52,0,29,119,11,

99,73,1,29,118,9,

99,78,1,30,118,7,

99,77,1,29,117,11,

98,77,1,29,116,11,

98,76,1,29,116,11,

97,76,1,29,115,10,

97,75,1,29,115,10,

96,76,0,29,114,7,

96,75,1,28,114,7,

96,74,1,28,113,7,

96,74,1,28,113,11,

95,73,1,28,112,7,

95,73,0,28,112,11,

94,73,1,28,111,7,

94,71,1,70,111,9,

93,71,1,73,110,7,

93,71,1,73,110,7,

93,71,1,71,110,9,

93,71,1,71,109,7,

92,71,1,71,109,9,

92,70,1,71,108,8,

91,70,0,71,107,11,

91,70,1,70,107,7,

90,70,1,70,107,11,

90,69,1,69,106,11,

89,69,1,69,105,11,

89,68,1,69,105,7,

89,68,1,68,104,7,

88,67,1,68,103,9,

88,67,0,68,103,11,

88,67,1,67,103,10,

88,67,1,67,103,11,

88,66,1,67,102,11,

87,66,1,66,102,10,

86,66,1,66,101,11,

86,65,1,66,101,7,

85,65,0,65,100,8,

85,65,1,65,100,10,

85,65,1,65,100,7,

84,65,1,65,99,10,

83,65,1,64,99,10,

83,65,1,63,98,10,

83,65,1,63,98,7,

83,64,1,63,97,9,

83,64,1,63,98,10,

82,63,1,62,97,9,

82,63,1,62,97,9,

82,63,1,62,96,7,

82,63,1,62,96,8,

82,63,1,62,96,7,

81,62,1,62,96,11,

81,62,1,61,95,10,

80,62,1,61,95,7,

80,62,1,61,94,10,

79,61,1,60,94,10,

79,61,0,60,94,7,

79,61,1,60,95,9,

79,60,1,60,107,11,

100,60,1,59,106,12,

99,60,0,59,105,12,

99,59,1,59,105,12,

98,59,1,58,103,12,

97,59,1,58,103,12,

97,58,0,58,103,8,

97,58,1,58,103,12,

96,58,1,58,102,11,

96,57,1,57,102,11,

95,57,1,57,101,9,

95,57,1,57,101,9,

94,57,1,56,99,8,

94,57,1,56,99,8,

93,56,1,56,99,9,

93,56,1,56,99,10,

92,56,1,56,98,9,

92,56,1,56,98,12,

92,56,1,55,97,11,

91,56,0,54,96,11,

91,55,0,54,96,11,

91,55,0,54,96,9,

90,54,0,54,96,8,

89,54,1,54,95,7,

89,54,1,53,95,7,

89,54,1,53,94,7,

88,53,1,53,94,10,

88,53,1,52,93,9,

88,53,1,53,93,7,

88,53,1,51,92,9,

88,53,1,51,92,11,

87,52,1,51,92,11,

86,52,1,51,92,8,

85,51,1,51,91,7,

86,51,1,51,91,7,

85,51,1,51,90,11,

84,51,0,50,89,7,

84,51,1,50,89,7,

83,51,1,50,89,12,

83,50,1,50,89,10,

83,50,1,50,88,7,

83,50,1,49,88,7,

82,50,1,49,88,7,

82,50,1,49,87,9,

82,49,0,49,87,10,

81,49,1,49,87,7,

81,49,0,48,86,7,

81,49,1,48,86,10,

80,48,1,49,86,7,

79,48,1,49,85,7,

79,48,1,50,85,10,

79,48,1,49,84,7,

79,48,0,48,84,7,

79,48,1,48,84,7,

78,49,1,48,83,7,

78,51,1,48,83,9,

78,51,1,48,83,7,

77,51,1,48,83,9,

77,51,1,47,82,10,

77,50,1,47,82,9,

77,50,1,48,81,10,

76,50,1,47,81,9,

76,49,0,47,82,10,

76,49,1,48,113,10,

76,48,1,48,112,9,

75,49,1,48,111,7,

75,48,1,48,111,7,

74,48,1,48,110,7,

74,48,1,47,109,7,

74,57,1,47,109,7,

73,57,1,47,108,7,

73,56,1,47,108,7,

73,56,0,46,108,9,

71,56,1,54,107,9,

71,56,1,58,107,7,

71,55,1,57,106,6,

71,55,1,57,106,7,

71,54,1,56,105,7,

71,55,1,57,105,7,

71,54,1,56,103,9,

70,56,1,56,103,10,

70,85,1,56,103,9,

70,84,1,56,103,9,

70,83,1,55,102,6,

69,83,1,55,102,9,

69,83,1,54,101,7,

69,82,1,54,100,6,

68,82,1,54,152,9,

67,81,1,54,159,6,

67,81,0,53,159,6,

67,81,0,53,158,9,

67,79,1,53,157,7,

67,80,1,53,156,6,

66,79,1,52,155,7,

66,79,1,52,155,6,

66,78,1,52,154,7,

66,78,1,51,153,7,

65,78,1,51,152,6,

65,78,1,51,152,7,

65,77,0,51,152,9,

65,77,1,50,150,7,

64,76,1,50,149,8,

64,76,1,50,149,8,

63,76,1,50,148,7,

63,75,0,49,147,9,

63,75,1,49,147,7,

63,83,1,49,146,6,

63,99,1,49,146,8,

63,99,1,48,145,9,

62,98,1,49,143,5,

62,98,1,48,143,7,

62,97,1,48,143,7,

61,96,1,48,142,7,

65,96,1,48,141,7,

64,95,1,47,141,6,

63,96,1,47,140,6,

63,94,1,47,139,6,

63,94,1,47,139,6,

63,94,1,46,138,6,

63,93,1,46,138,7,

62,93,1,46,137,9,

62,92,0,46,136,7,

62,92,1,45,135,6,

62,92,1,45,135,7,

61,91,1,45,135,8,

61,91,1,45,135,8,

90,90,1,44,133,9,

89,90,1,45,133,9,

89,89,0,44,132,10,

88,89,1,44,131,7,

88,88,1,44,131,11,

87,88,1,44,130,7,

88,88,1,44,130,10,

87,87,1,44,129,7,

86,87,1,43,129,11,

86,86,1,43,128,7,

85,86,1,43,127,10,

85,86,1,43,127,7,

85,85,1,43,126,7,

84,84,1,42,126,7,

84,84,1,42,125,7,

83,83,1,42,125,9,

83,83,1,41,124,7,

83,83,1,41,124,7,

82,83,1,41,123,7,

82,82,1,41,123,7,

82,82,1,41,122,10,

81,81,1,40,121,6,

81,81,0,39,121,7,

81,81,1,40,121,10,

80,80,0,39,120,7,

79,79,0,39,120,10,

79,79,1,63,119,9,

79,79,1,66,119,11,

79,79,0,65,118,10,

79,78,1,65,117,10,

78,78,1,64,117,10,

78,78,1,64,116,10,

77,77,0,63,115,7,

77,77,1,63,115,7,

76,77,1,63,115,7,

76,76,1,63,114,9,

126,76,0,62,114,14,

125,75,0,70,113,14,

124,75,0,75,113,15,

123,75,1,75,112,11,

122,75,1,74,112,14,

122,74,0,74,111,11,

121,74,1,73,110,12,

120,73,1,73,110,12,

120,73,1,72,110,10,

119,73,1,71,109,12,

119,71,1,71,109,14,

118,71,1,129,133,15,

117,71,0,127,131,15,

116,71,1,127,131,14,

116,71,1,126,130,13,

115,71,1,125,129,11,

115,70,1,124,128,11,

114,70,1,123,127,12,

113,69,1,123,127,12,

113,69,1,122,126,13,

112,68,1,121,126,12,

112,68,1,121,125,13,

111,67,0,120,124,10,

110,67,1,120,124,11,

110,67,1,120,123,12,

109,67,1,118,122,11,

109,67,1,118,122,12,

108,66,1,117,121,10,

108,65,1,116,120,11,

107,65,1,115,120,13,

107,65,1,115,119,13,

106,64,1,115,119,12,

105,65,1,114,118,14,

105,63,0,113,118,11,

105,81,1,113,117,13,

103,81,1,112,116,11,

103,79,1,112,115,12,

103,79,1,111,115,12,

103,78,1,111,115,14,

102,79,1,110,113,12,

101,78,1,110,113,9,

101,77,1,109,112,12,

100,77,1,109,112,11,

99,76,1,108,111,12,

99,77,1,108,111,9,

99,76,1,107,111,10,

98,76,1,106,110,12,

98,75,1,106,109,9,

97,75,1,105,109,13,

97,74,0,104,108,9,

96,74,1,103,108,13,

96,74,1,103,108,9,

96,73,1,103,107,9,

95,73,1,103,107,9,

95,71,1,103,106,9,

94,71,1,102,105,9,

94,71,1,102,105,10,

93,71,1,101,103,12,

93,71,1,100,103,9,

93,71,1,100,103,9,

92,71,1,99,103,8,

92,70,1,99,103,12,

92,70,1,99,102,9,

91,69,1,99,102,11,

91,69,1,98,101,9,

90,69,1,98,101,9,

89,68,1,97,100,12,

89,67,0,96,100,7,

89,67,1,96,99,11,

88,67,1,96,99,11,

88,67,1,95,98,12,

88,66,1,95,98,11,

88,66,0,95,98,9,

87,66,0,94,97,7,

87,65,1,94,97,7,

86,65,1,93,96,9,

86,65,1,93,96,12,

85,65,1,93,96,10,

85,64,1,92,96,9,

85,64,1,92,95,7,

84,63,0,92,95,11,

84,63,1,92,94,11,

83,76,0,91,94,12,

83,75,1,90,94,9,

83,75,1,90,93,7,

83,74,0,89,93,7,

82,73,0,89,92,11,

82,73,1,89,92,11,

82,73,0,89,92,10,

81,73,1,88,91,9,

81,73,1,88,91,10,

81,71,1,88,91,15,

137,71,1,87,91,13,

135,71,1,87,91,13,

135,71,1,87,91,13,

135,71,0,86,89,15,

134,70,1,86,89,12,

133,70,1,85,89,13,

133,69,1,85,88,16,

132,69,1,84,88,15,

131,69,1,84,88,16,

131,69,1,84,87,12,

130,68,1,83,88,12,

129,67,1,83,89,13,

129,67,0,82,89,10,

127,67,1,82,89,12,

127,67,1,82,88,11,

126,66,1,82,88,15,

126,66,1,81,88,14,

126,66,1,81,87,15,

125,65,1,81,87,14,

124,65,1,83,86,11,

124,65,1,83,85,15,

123,64,1,82,85,15,

122,64,1,82,85,11,

123,63,1,81,85,12,

122,63,1,81,84,11,

121,63,1,81,83,11,

120,63,1,80,83,13,

120,62,1,80,83,16,

120,62,1,79,82,15,

120,62,0,79,82,15,

118,61,1,79,82,14,

119,61,1,79,81,11,

118,61,1,78,81,13,

117,60,0,78,80,13,

116,61,0,78,80,11,

115,60,1,77,79,11,

141,60,1,77,79,16,

141,71,0,76,79,17,

140,81,1,76,79,16,

139,79,1,76,79,17,

138,79,1,76,78,17,

138,79,1,76,78,15,

137,78,1,76,78,13,

137,78,1,75,78,12,

135,77,0,75,77,15,

135,77,0,74,77,16,

134,77,1,74,76,15,

134,77,1,73,76,14,

137,76,1,73,76,15,

137,78,1,73,76,15,

135,78,1,71,75,16,

135,77,1,71,75,14,

135,77,1,71,75,15,

134,77,1,71,74,12,

134,76,1,71,74,13,

133,76,1,150,73,12,

132,76,1,148,73,14,

131,75,1,147,73,15,

131,74,1,146,73,15,

130,75,1,145,73,14,

129,74,1,143,71,12,

128,73,1,143,71,12,

127,73,1,143,71,15,

127,73,1,142,71,14,

127,73,1,141,71,14,

126,71,1,140,70,13,

125,71,1,140,70,13,

125,71,1,138,70,11,

124,71,1,138,103,12,

124,71,1,137,105,13,

123,70,1,137,103,13,

122,70,1,135,103,12,

122,69,1,135,103,11,

121,69,1,135,102,12,

120,69,1,134,102,13,

120,68,0,133,101,14,

120,67,1,132,100,11,

119,67,1,131,99,14,

118,67,1,131,99,11,

118,67,1,131,99,13,

131,67,1,130,100,14,

130,66,1,129,99,16,

129,65,1,129,99,12,

128,65,1,127,98,15,

127,65,1,127,98,15,

127,65,1,127,97,15,

126,64,1,126,97,15,

126,63,1,125,96,14,

125,63,1,125,96,14,

125,63,1,124,95,12,

124,63,1,124,95,11,

123,63,1,123,120,12,

123,63,1,125,120,13,

122,62,1,159,119,13,

121,62,1,158,118,14,

121,62,1,157,118,15,

120,61,1,156,117,14,

119,61,1,156,116,15,

119,61,1,154,115,12,

118,60,1,153,115,13,

117,60,1,152,114,13,

117,59,1,152,114,12,

116,60,1,152,113,14,

115,59,1,151,112,13,

115,59,1,150,112,14,

114,58,0,149,112,14,

114,58,1,148,110,14,

113,58,0,147,110,12,

113,57,1,146,109,11,

112,57,1,145,109,11,

112,57,0,145,108,11,

111,57,1,144,108,13,

110,56,1,143,107,12,

110,56,1,143,106,13,

109,56,0,142,106,9,

109,56,1,142,105,13,

108,56,1,141,105,12,

108,56,1,140,103,11,

107,55,1,139,103,12,

107,54,1,139,103,14,

106,54,1,138,103,12,

105,53,1,137,102,14,

105,53,1,136,102,13,

103,53,1,135,101,10,

103,53,1,135,101,13,

103,52,1,135,100,12,

103,52,1,134,99,12,

103,52,1,133,99,10,

102,52,1,132,99,10,

102,51,0,131,98,12,

101,51,1,131,97,9,

101,51,1,130,97,12,

100,51,1,130,96,10,

99,50,1,129,96,13,

99,51,1,129,152,10,

99,50,1,128,163,9,

98,50,1,127,163,11,

98,50,1,127,161,9,

97,49,1,127,161,13,

97,49,1,126,159,13,

97,51,1,126,158,13,

96,51,1,125,158,12,

96,51,1,156,157,12,

96,51,1,155,156,12,

95,50,1,153,155,10,

94,50,1,153,154,12,

94,50,1,152,153,9,

93,50,0,152,153,12,

93,51,1,151,152,12,

92,75,1,150,152,13,

92,74,1,149,151,12,

92,74,1,147,150,12,

91,74,1,147,149,12,

91,73,1,146,148,11,

90,73,1,146,147,9,

90,73,1,145,147,8,

89,71,1,144,146,10,

89,71,1,143,145,9,

89,71,1,143,145,10,

89,71,1,142,143,10,

88,70,1,142,143,7,

88,70,1,141,142,8,

87,69,1,140,142,9,

87,69,0,139,141,12,

87,69,1,139,141,8,

86,69,1,138,140,7,

86,68,1,138,139,7,

85,67,1,137,138,9,

86,67,1,135,138,11,

84,67,1,135,137,9,

84,70,1,135,135,10,

83,76,1,135,135,7,

83,82,1,134,135,11,

83,81,1,133,135,11,

83,81,1,132,134,11,

82,80,1,166,133,7,

82,79,1,173,133,11,

81,79,1,172,131,10,

81,79,1,171,132,11,

81,79,1,170,167,11,

80,78,1,169,167,11,

80,78,1,167,166,10,

79,77,1,167,165,7,

79,102,1,166,164,7,

79,103,1,165,163,11,

79,102,1,164,162,8,

78,101,1,163,162,7,

78,100,1,163,161,9,

77,99,1,162,160,9,

77,99,1,162,159,7,

77,99,1,161,158,11,

77,98,1,159,158,7,

76,98,1,159,157,7,

76,97,1,159,156,7,

76,97,1,158,155,10,

76,96,1,157,155,7,

75,96,1,156,154,7,

74,95,1,156,153,9,

74,95,1,155,152,7,

73,94,1,155,152,10,

73,94,1,153,151,7,

73,94,1,152,150,9,

73,93,1,152,149,7,

73,92,1,151,149,10,

71,92,1,151,147,7,

71,92,1,150,147,10,

71,91,0,149,146,10,

71,91,1,148,146,10,

71,90,0,147,145,10,

70,89,0,147,143,9,

70,89,1,146,143,9,

70,88,1,146,143,7,

69,89,1,145,142,7,

69,88,1,144,142,7,

69,87,1,143,141,7,

69,87,1,143,140,6,

68,86,1,142,139,9,

68,86,1,142,139,6,

67,86,1,141,138,9,

67,85,0,141,137,9,

67,85,1,140,137,10,

67,84,1,139,135,9,

66,84,0,138,135,7,

66,83,1,138,135,7,

66,83,1,137,134,7,

65,83,1,137,134,7,

65,82,1,135,133,9,

65,82,1,135,133,6,

65,81,1,135,132,9,

64,81,1,134,131,9,

64,80,0,134,131,9,

63,80,1,133,130,9,

63,80,0,132,130,7,

63,79,1,132,129,7,

63,79,1,131,129,7,

62,79,1,131,127,9,

62,79,0,130,127,7,

62,79,1,130,152,7,

63,77,1,129,176,11,

77,77,0,128,176,7,

76,77,1,128,174,11,

76,77,1,127,173,7,

76,76,1,127,172,7,

75,97,1,126,171,7,

75,96,1,126,170,7,

74,96,1,125,169,11,

73,95,1,125,168,7,

73,94,1,124,167,7,

73,94,1,124,167,7,

72,93,1,123,166,10,

72,92,1,123,165,7,

71,92,1,122,164,7,

71,92,1,121,163,7,

71,91,0,121,163,7,

71,91,0,121,162,7,

71,91,1,120,161,7,

70,90,1,120,160,9,

70,89,1,119,159,7,

69,89,1,118,159,7,

69,89,1,118,158,10,

69,88,0,117,157,7,

68,88,1,116,156,7,

67,88,1,117,156,7,

67,87,0,115,155,9,

67,87,1,115,154,7,

67,86,1,115,153,7,

67,86,1,114,153,9,

66,85,1,114,152,7,

66,85,1,113,152,9,

65,84,1,112,151,7,

66,84,1,112,150,9,

65,83,1,112,149,10,

64,83,1,112,149,7,

65,83,1,111,147,9,

65,82,1,110,147,7,

64,82,1,110,147,9,

63,81,1,110,146,9,

63,81,1,109,145,7,

63,81,1,109,144,9,

63,79,1,108,144,7,

63,79,0,108,143,9,

63,79,1,107,142,9,

62,79,1,107,142,10,

62,79,1,107,141,6,

61,78,0,106,141,9,

61,78,0,105,140,9,

61,77,0,105,139,9,

60,77,0,104,139,9,

61,77,1,103,138,9,

60,76,1,103,137,6,

60,76,1,103,137,9,

60,76,1,103,135,7,

59,75,1,103,135,6,

59,75,1,102,135,6,

59,75,1,102,134,9,

59,75,1,101,134,9,

58,74,1,101,133,9,

58,73,1,101,132,6,

57,73,1,100,131,9,

57,73,1,99,131,8,

57,73,1,99,131,9,

57,71,1,99,130,8,

57,71,1,99,130,9,

57,71,1,98,129,6,

56,71,1,97,129,6,

56,71,0,97,127,6,

56,70,0,96,127,7,

56,70,1,96,163,7,

56,70,1,96,194,6,

67,70,1,96,193,10,

67,69,0,96,192,7,

67,69,1,95,191,10,

66,69,1,94,190,7,

66,69,1,94,189,9,

65,68,1,94,188,7,

65,68,1,94,187,7,

65,67,1,93,186,9,

64,67,0,93,185,7,

64,67,1,92,184,10,

63,66,1,92,184,9,

63,66,1,92,183,9,

63,66,1,91,181,7,

63,66,1,91,181,7,

62,65,1,90,180,7,

62,65,1,90,179,7,

62,65,1,90,178,6,

61,64,1,89,177,9,

62,63,0,89,176,9,

61,63,1,88,176,10,

60,63,1,88,175,9,

61,63,1,88,174,9,

60,62,0,88,173,6,

60,62,1,88,173,7,

60,62,1,87,172,6,

59,62,1,87,171,9,

59,62,1,86,170,7,

59,61,1,86,169,6,

58,61,0,86,169,7,

58,61,1,85,167,9,

57,61,1,85,167,9,

58,61,0,84,166,7,

57,60,1,84,166,9,

57,60,1,84,165,6,

57,60,1,83,164,7,

56,60,1,83,163,7,

57,60,1,83,163,6,

59,59,1,83,162,14,

109,59,1,82,161,15,

108,59,0,82,160,15,

108,58,1,81,159,15,

107,58,0,81,159,11,

106,58,1,81,158,14,

105,57,1,81,158,14,

105,57,1,79,157,12,

103,57,0,79,156,12,

103,57,0,79,155,12,

103,56,1,79,155,12,

103,56,1,78,153,14,

102,56,1,78,153,12,

102,55,1,78,152,14,

102,69,1,78,152,13,

101,68,1,77,151,14,

100,67,1,77,150,12,

100,67,0,77,149,14,

99,67,1,76,149,10,

99,67,1,76,148,13,

98,67,0,76,147,10,

97,66,1,75,147,13,

97,65,1,76,147,13,

96,65,1,75,146,13,

96,65,0,75,146,11,

96,65,0,74,145,13,

95,64,1,74,144,12,

95,64,1,73,143,11,

94,63,1,73,143,9,

94,63,1,73,142,13,

93,63,0,73,142,11,

93,63,0,71,141,10,

93,62,0,71,140,12,

92,62,1,71,140,12,

92,62,1,71,140,10,

92,61,0,71,139,12,

91,61,0,71,138,11,

90,61,1,71,137,10,

89,61,0,70,137,9,

89,60,1,70,136,13,

89,60,0,70,135,12,

89,59,0,69,135,10,

88,60,1,69,135,12,

88,59,1,69,134,12,

88,59,0,69,133,9,

87,58,1,68,132,15,

115,57,1,68,132,13,

114,57,1,67,131,12,

114,57,1,67,131,12,

113,57,1,67,131,12,

112,57,1,67,130,15,

112,57,1,67,129,13,

111,56,0,67,129,15,

111,56,1,69,128,15,

110,56,1,69,127,12,

109,56,1,68,127,14,