
11,40,1,33,43,12,

11,41,1,32,43,11,

11,39,0,32,43,14,

10,39,1,32,43,12,

11,39,1,34,60,12,

11,39,1,34,60,12,

11,39,1,34,59,11,

11,39,1,34,59,13,

10,39,1,33,59,12,

10,38,1,33,58,10,

10,38,1,33,58,10,

10,38,1,33,58,7,

10,38,1,33,57,10,

10,38,1,33,57,9,

10,37,1,33,57,13,

10,37,0,31,56,13,

10,37,1,32,61,11,

10,37,1,32,74,12,

9,37,1,31,73,10,

10,36,1,31,73,13,

10,36,1,31,72,9,

9,36,1,31,71,9,

9,36,1,31,71,9,

9,36,1,31,71,10,

13,36,1,31,71,9,

14,35,1,31,71,11,

14,35,1,31,71,15,

14,35,1,30,70,15,

14,35,1,30,70,14,

14,35,1,30,69,16,

14,34,1,30,69,14,

14,34,1,30,69,13,

14,34,1,30,68,13,

14,34,1,30,68,11,

15,34,1,29,67,14,

21,34,1,29,68,15,

21,33,1,29,67,19,

21,33,1,29,67,17,

21,33,1,29,67,22,

21,33,1,29,66,24,

20,35,1,29,65,24,

21,35,1,29,65,24,

21,35,1,29,65,20,

20,34,1,28,65,19,

20,34,1,28,64,22,

19,35,1,28,64,17,

19,34,1,28,63,16,

19,34,1,28,63,15,

19,33,1,28,63,16,

19,33,1,28,63,15,

19,33,1,27,63,21,

19,33,1,27,62,19,

19,33,1,27,62,21,

19,33,1,27,62,22,

19,33,1,27,61,19,

19,33,1,27,61,18,

19,32,1,27,61,16,

18,31,1,27,61,18,

18,31,1,45,60,16,

18,31,1,56,60,18,

18,31,1,56,60,13,

18,31,1,56,60,15,

18,31,1,55,59,17,

18,31,1,55,59,19,

18,31,1,54,59,20,

17,31,1,54,58,18,

17,31,1,54,58,17,

17,30,1,54,59,19,

17,30,1,53,58,16,

17,30,1,53,57,18,

17,30,1,53,57,18,

17,30,1,52,57,17,

17,29,0,51,57,14,

16,30,1,51,57,15,

16,29,1,51,57,17,

16,29,1,51,56,15,

17,29,1,51,56,16,

16,29,1,51,56,17,

16,29,1,51,55,18,

15,29,1,50,62,17,

15,29,1,50,63,17,

16,29,1,50,63,15,

16,28,1,49,63,15,

15,28,1,49,62,15,

16,28,0,49,62,15,

16,28,1,49,62,15,

15,28,1,48,62,12,

15,27,0,48,61,13,

15,27,0,48,61,17,

15,27,0,48,61,16,

15,27,1,48,60,19,

15,27,1,48,60,15,

14,27,1,47,59,18,

15,26,1,47,59,13,

15,26,1,47,59,15,

14,26,1,47,59,11,

14,26,1,46,59,10,

14,26,1,46,58,11,

14,26,1,63,58,11,

14,25,1,63,58,13,

14,25,1,62,57,12,

14,25,1,62,57,15,

13,29,1,62,57,14,

14,29,0,61,57,18,

14,29,1,61,56,18,

13,29,1,83,57,17,

14,28,1,82,56,15,

13,28,1,82,56,14,

13,29,1,81,56,10,

13,28,1,81,55,13,

14,28,1,79,55,10,

14,28,1,79,55,11,

14,28,1,79,54,15,

14,27,1,79,54,14,

14,28,1,78,54,14,

13,30,1,78,54,17,

13,30,0,78,53,13,

13,30,1,78,53,15,

13,29,1,77,53,12,

13,29,1,77,53,13,

13,29,1,76,52,12,

13,29,1,76,52,9,

13,29,1,76,52,9,

13,28,1,75,51,10,

13,29,1,76,51,11,

13,28,1,75,51,14,

13,28,1,74,51,15,

12,28,1,73,51,16,

12,28,1,73,51,13,

12,27,1,73,51,11,

12,28,1,73,51,14,

12,27,1,72,50,11,

12,27,1,71,50,14,

12,27,1,71,49,9,

12,27,1,71,49,11,

12,27,1,71,49,11,

12,27,1,71,48,11,

12,26,1,71,48,13,

12,26,1,70,48,11,

12,26,1,70,48,12,

11,26,1,70,48,13,

12,26,1,69,48,13,

11,26,1,69,48,11,

11,26,1,68,47,11,

12,26,1,68,47,11,

11,25,0,68,47,9,

12,25,1,67,46,11,

11,25,1,67,46,11,

11,25,1,67,46,11,

11,25,0,67,45,10,

11,25,1,67,45,10,

11,24,1,66,45,13,

11,25,1,66,45,11,

11,24,0,65,45,14,

11,24,1,65,45,11,

11,24,1,65,45,13,

10,24,1,65,44,10,

10,24,1,64,44,11,

10,24,1,63,44,10,

10,24,1,63,44,6,

10,24,1,63,44,6,

10,24,1,63,43,7,

10,24,1,63,43,12,

9,24,1,63,43,11,

10,23,1,62,43,15,

10,23,1,62,43,13,

10,23,1,61,42,14,

9,23,1,62,42,13,

9,22,0,61,41,8,

9,22,1,61,42,9,

9,22,1,61,42,7,

9,23,1,61,41,5,

9,22,1,61,41,5,

9,22,1,60,41,9,

9,22,1,60,41,7,

10,22,1,60,41,9,

9,22,1,59,39,12,

9,21,1,60,39,10,

9,25,1,59,40,13,

9,25,1,59,39,10,

9,25,1,58,39,12,

9,25,1,58,39,12,

9,25,1,57,39,11,

9,25,1,58,39,6,

9,24,1,57,39,7,

9,25,1,57,39,5,

7,24,1,57,39,5,

9,24,1,57,39,7,

9,24,0,56,39,7,

8,24,1,56,39,12,

7,24,1,56,38,12,

8,24,1,56,38,9,

8,24,1,56,39,10,

8,24,1,56,38,9,

8,23,0,55,47,12,

7,24,1,55,71,7,

8,23,1,55,71,7,

7,23,1,54,70,5,

7,24,1,54,70,7,

7,23,1,53,70,7,

7,23,1,53,69,7,

7,23,1,54,68,5,

7,22,1,53,68,7,

7,22,1,53,68,10,

7,23,1,53,67,10,

7,22,1,52,67,9,

7,22,1,52,67,7,

7,22,1,52,67,11,

7,22,1,51,66,7,

7,22,1,51,66,7,

7,22,1,51,66,7,

7,21,1,51,65,6,

7,22,1,51,66,7,

7,21,1,51,65,7,

8,21,1,51,65,5,

9,21,0,50,64,9,

8,21,1,50,64,7,

8,21,1,50,63,11,

8,21,1,50,63,10,

7,21,1,50,63,13,

7,22,1,49,65,7,

8,21,1,49,64,12,

8,21,1,48,64,11,

8,20,1,49,63,11,

7,21,1,48,63,7,

7,20,1,48,63,7,

7,20,1,48,63,7,

7,20,1,48,62,7,

7,20,1,48,62,5,

7,19,0,48,62,5,

7,20,0,47,61,7,

7,20,1,48,61,11,

7,20,1,47,62,9,

7,21,1,47,61,9,

7,20,1,46,60,8,

7,20,1,46,60,11,

7,20,1,46,60,9,

7,20,1,46,60,6,

7,20,1,46,59,5,

7,20,1,45,59,3,

7,20,1,45,59,6,

7,19,1,45,59,4,

7,19,0,45,58,7,

7,19,1,45,59,6,

7,19,1,45,58,7,

7,19,1,44,57,9,

7,19,1,45,57,11,

7,19,1,44,57,7,

7,19,1,44,57,7,

7,19,1,44,57,9,

7,18,1,43,57,8,

7,18,1,44,56,7,

7,18,0,43,56,4,

6,18,1,43,56,3,

7,18,0,43,56,6,

6,18,1,43,55,4,

6,18,0,43,55,7,

7,18,1,43,55,7,

6,18,0,43,55,10,

6,18,0,42,55,7,

6,17,1,42,54,10,

6,17,1,42,54,7,

6,17,0,42,54,5,

6,17,1,42,54,7,

6,17,1,41,53,6,

6,17,0,50,53,7,

6,17,1,50,52,3,

6,17,1,49,52,2,

6,17,0,50,52,5,

6,17,1,49,51,3,

6,17,0,49,51,7,

6,17,1,49,51,7,

616,1,49,51,9,

6,17,1,49,51,7,

6,16,1,48,51,9,

6,16,1,48,50,9,

6,16,1,48,50,6,

6,16,0,48,50,5,

6,16,1,47,50,5,

6,16,1,47,50,7,

6,16,0,46,49,3,

6,16,0,46,49,5,

6,15,1,47,49,3,

6,15,1,46,49,3,

6,15,1,46,49,7,

6,15,1,46,49,7,

6,16,0,46,48,9,

6,20,1,45,48,7,

6,20,1,45,48,6,

6,20,1,45,48,6,

6,20,1,45,51,6,

5,19,1,45,50,8,

5,19,1,44,50,7,

5,19,0,44,50,7,

5,19,1,44,50,3,

6,19,1,44,49,4,

5,19,1,44,49,2,

5,19,0,44,49,2,

5,19,1,44,49,4,

5,19,1,43,49,5,

5,20,0,43,48,9,

5,22,1,43,48,6,

5,21,0,43,48,7,

5,22,1,42,48,6,

5,22,0,42,49,6,

5,21,0,42,49,7,

5,21,1,41,48,7,

5,21,0,42,48,3,

5,21,1,41,48,3,

5,21,1,41,48,2,

5,21,1,41,48,2,

6,21,1,41,47,3,

6,21,1,41,47,5,

6,20,1,41,47,5,

5,21,1,39,47,10,

5,21,0,39,46,7,

5,20,0,39,46,9,

5,20,1,39,47,7,

6,21,1,39,91,7,

5,20,1,39,91,7,

5,20,1,39,90,6,

5,21,1,39,89,6,

5,20,1,39,89,5,

5,19,0,39,88,3,

5,20,1,39,88,5,

5,20,0,38,88,2,

5,19,1,38,88,5,

5,19,1,38,87,7,

5,19,0,38,87,7,

6,19,0,38,86,9,

5,19,1,38,86,6,

5,19,1,37,85,5,

5,19,1,37,85,7,

5,19,0,37,85,4,

5,18,0,37,84,3,

5,19,0,37,83,2,

5,18,1,37,83,5,

5,18,1,37,83,1,

5,18,1,36,83,2,

5,18,1,36,82,3,

5,18,0,36,82,7,

5,18,1,36,82,7,

5,18,1,35,81,8,

4,18,1,35,81,9,

4,18,1,35,80,6,

5,17,0,35,81,7,

5,17,1,35,79,4,

4,18,0,35,79,7,

5,17,0,35,79,3,

4,17,1,35,79,1,

4,17,1,35,79,3,

4,17,1,35,78,2,

5,17,1,34,78,6,

4,16,1,34,77,6,

5,17,0,34,77,7,

5,17,0,34,77,4,

4,17,1,34,76,7,

5,17,1,34,76,5,

5,17,1,34,76,6,

4,17,1,34,76,6,

5,17,1,33,76,4,

5,17,1,33,75,6,

4,17,1,33,75,5,

4,16,1,33,74,5,

4,16,1,33,74,4,

4,17,1,32,74,2,

4,16,1,32,73,4,

4,16,1,35,73,6,

5,16,0,34,73,4,

4,16,1,34,73,5,

4,17,0,34,71,5,

4,17,1,33,71,7,

4,17,1,34,71,4,

4,17,1,33,71,5,

4,17,1,33,71,7,

4,16,1,33,71,7,

4,16,0,33,71,2,

4,16,0,33,71,3,

4,15,1,32,70,3,

4,16,1,32,70,0,

4,15,1,32,70,3,

3,16,1,32,69,3,

3,16,1,31,69,7,

3,15,0,31,68,4,

4,15,0,31,68,5,

4,15,0,31,67,5,

4,15,1,31,67,5,

4,15,1,31,67,7,

3,15,0,31,67,7,

3,15,1,31,67,6,

3,15,0,31,67,2,

3,15,0,31,66,3,

3,15,1,31,66,3,

3,15,1,50,65,1,

4,15,1,50,66,2,

3,15,1,49,65,2,

3,14,0,49,65,7,

3,14,1,49,64,4,

4,14,0,49,64,7,

3,14,1,48,64,7,

3,15,0,48,63,4,

3,14,1,48,63,6,

3,14,1,48,63,5,

3,14,1,48,63,5,

3,14,1,48,63,1,

3,14,0,47,63,0,

3,14,0,47,62,1,

5,14,0,46,62,2,

5,14,0,46,62,6,

5,14,1,46,62,6,

5,13,0,46,61,9,

5,13,1,46,61,7,

5,13,1,45,61,7,

5,13,1,45,60,6,

5,13,1,45,60,5,

5,13,0,45,60,5,

5,13,0,45,60,5,

5,13,1,45,59,6,

5,13,1,45,59,2,

5,13,1,44,59,2,

5,12,0,44,59,2,

4,12,0,44,58,2,

5,13,1,44,58,6,

5,12,1,43,58,7,

4,13,0,43,58,5,

4,16,0,43,57,7,

4,19,1,43,57,5,

4,18,1,42,57,5,

5,18,1,43,57,5,

4,18,1,42,57,7,

4,18,1,43,57,3,

4,17,1,42,56,6,

4,17,0,42,56,2,

5,18,1,41,56,4,

5,17,1,41,56,3,

5,17,0,41,56,1,

5,17,1,41,56,5,

4,17,1,41,56,5,

5,17,0,41,55,7,

5,17,1,39,54,6,

4,17,1,40,54,6,

4,17,1,39,54,6,

4,17,1,39,54,5,

4,17,1,39,53,7,

4,17,1,39,53,7,

4,17,1,39,53,3,

4,16,1,39,53,3,

4,16,0,39,52,1,

4,16,1,39,52,1,

4,16,0,39,52,3,

4,16,1,39,51,5,

4,16,0,39,51,4,

4,16,1,38,51,7,

4,15,1,38,51,5,

3,16,1,38,51,6,

4,15,0,38,51,6,

4,15,0,37,51,4,

3,15,1,38,51,7,

4,15,0,37,51,7,

3,15,1,37,51,6,

4,15,1,37,50,2,

4,15,1,37,50,0,

3,15,1,37,49,3,

4,15,1,36,49,1,

7,15,1,36,50,7,

7,14,1,36,49,7,

7,14,0,35,49,9,

7,15,0,35,49,9,

7,14,0,35,53,9,

7,15,1,35,61,9,

7,14,1,35,61,7,

7,14,0,35,61,7,

7,14,1,35,60,10,

7,14,1,35,60,7,

7,14,1,35,60,4,

7,14,1,34,60,5,

7,14,0,34,60,5,

7,14,1,34,59,5,

7,14,1,34,59,10,

7,13,1,34,59,10,

7,14,1,34,58,9,

7,13,0,33,58,11,

7,13,1,33,57,7,

7,13,0,33,57,10,

7,13,1,33,57,7,

7,13,0,33,57,7,

7,13,1,34,57,6,

7,13,1,35,57,7,

7,13,0,35,56,7,

7,13,1,34,56,4,

7,13,0,34,56,4,

7,13,1,34,56,5,

7,13,1,34,56,10,

7,13,1,34,55,10,

7,12,1,34,55,7,

7,13,0,33,54,9,

7,13,1,33,57,10,

7,13,1,33,73,7,

7,13,1,33,73,6,

7,13,0,33,71,7,

7,13,0,32,72,4,

6,13,0,32,71,6,

7,13,1,31,71,5,

7,12,1,31,71,7,

7,12,1,31,71,7,

7,12,1,31,70,6,

6,13,0,31,70,9,

7,12,1,31,69,10,

7,12,1,31,70,7,

7,12,1,31,69,7,

6,12,1,31,69,6,

7,12,0,30,68,6,

7,12,0,30,68,6,

6,12,1,31,68,6,

6,12,0,30,67,4,

6,12,1,30,67,7,

7,12,1,30,67,4,

6,12,1,30,67,6,

6,12,0,30,66,4,

6,12,1,30,66,4,

6,12,0,30,66,7,

6,11,1,30,65,7,

6,12,0,29,65,10,

6,11,1,29,65,7,

6,11,1,29,65,7,

6,12,1,29,65,7,

6,12,0,29,65,6,

6,12,1,29,65,9,

5,11,0,28,64,7,

6,11,0,28,63,5,

6,11,0,28,63,1,

6,11,0,28,63,5,

5,11,1,28,63,5,

6,11,0,28,63,5,

5,10,1,28,62,7,

5,11,1,28,62,7,

5,11,0,28,62,10,

5,11,1,27,62,7,

5,10,1,27,61,8,

5,10,0,27,126,10,

5,10,1,27,124,5,

5,10,1,27,124,3,

5,10,1,52,123,2,

5,10,1,70,122,1,

5,10,1,69,121,2,

5,10,0,69,121,6,

5,10,1,68,120,4,

5,11,1,68,120,6,

5,19,1,67,120,8,

5,19,1,67,119,9,

5,19,1,67,118,9,

5,19,1,67,117,7,

5,19,0,66,117,5,

5,18,1,66,117,4,

5,19,1,66,115,7,

5,18,1,65,115,2,

5,18,1,65,115,4,

5,18,0,65,114,2,

5,18,1,64,114,3,

5,18,1,64,113,7,

5,18,1,63,113,7,

5,18,1,63,112,7,

4,18,1,63,112,9,

5,17,1,63,111,5,

5,17,1,62,111,5,

5,18,1,62,110,7,

5,17,0,62,110,4,

5,17,1,62,109,4,

5,17,1,62,109,2,

5,17,1,61,108,2,

4,17,0,61,108,2,

4,17,0,61,108,2,

5,16,1,61,107,3,

5,17,0,60,106,3,

4,16,1,60,106,7,

4,16,1,60,105,5,

4,16,0,88,111,6,

4,16,0,121,117,5,

4,16,1,120,116,7,

4,16,1,119,115,3,

4,16,1,119,115,6,

4,16,0,118,114,5,

4,15,1,117,114,5,

4,15,1,117,113,4,

4,15,1,115,112,2,

4,15,1,115,112,6,

4,15,1,115,111,7,

4,15,0,114,111,7,

4,17,0,113,110,5,

4,17,1,113,110,7,

4,17,0,112,109,3,

4,17,1,112,109,3,

3,17,0,111,108,7,

3,17,1,111,108,3,

4,17,1,110,107,1,

3,17,0,110,107,1,

4,16,1,109,106,1,

4,16,0,109,106,3,

3,16,1,109,105,4,

3,16,1,108,105,5,

4,16,0,107,103,5,

3,16,1,107,103,5,

3,16,1,107,103,7,

3,15,1,106,103,7,

3,16,0,105,103,5,

3,16,1,105,102,4,

3,16,0,103,102,0,

6,16,0,105,101,4,

6,15,1,103,101,3,

6,15,1,103,100,7,

6,15,1,103,99,5,

6,15,1,103,99,7,

6,15,0,102,99,7,

6,15,1,102,98,7,

6,15,0,101,98,7,

6,15,1,101,97,9,

6,15,1,100,97,5,

6,15,1,99,97,7,

5,15,1,99,96,6,

6,14,1,99,96,2,

5,15,0,99,96,2,

5,14,0,98,95,3,

5,14,0,98,95,3,

5,14,0,98,95,7,

5,14,1,97,94,7,

6,14,0,97,94,9,

5,14,0,96,94,6,

5,14,1,96,93,7,

5,14,0,96,93,7,

5,14,1,96,92,7,

5,14,0,95,92,5,

5,14,0,95,92,3,

5,13,1,94,92,5,

5,14,1,94,91,4,

5,14,1,94,91,1,

5,14,1,93,90,5,

5,14,1,92,89,5,

5,13,0,92,89,7,

5,13,1,92,89,5,

5,17,1,92,89,7,

5,19,1,91,88,5,

5,19,1,91,88,6,

4,19,0,91,88,7,

4,19,1,90,88,5,

5,19,1,90,87,7,

4,19,1,89,87,3,

5,19,0,89,86,3,

5,19,1,89,86,2,

5,19,0,89,86,1,

4,19,0,89,85,5,

5,18,0,88,85,5,

4,19,1,88,85,7,

4,19,0,88,85,5,

5,19,0,87,84,7,

4,34,1,87,83,8,

4,34,1,86,83,6,

4,33,1,86,83,7,

4,33,1,85,83,4,

4,33,1,85,83,7,

4,33,1,85,82,3,

4,32,0,84,82,5,

4,32,1,84,81,1,

4,32,1,84,81,1,

4,31,1,83,81,3,

4,31,1,83,80,5,

4,31,0,83,80,6,

4,31,0,83,79,5,

4,31,0,82,79,5,

3,31,1,82,79,5,

4,31,1,82,79,5,

4,31,1,81,78,7,

4,31,0,81,78,7,

4,31,0,80,78,7,

3,30,0,80,77,3,

3,30,0,80,77,3,

3,30,1,79,77,1,

3,30,0,79,77,2,

14,30,0,79,77,9,

17,30,1,79,76,14,

17,30,1,79,76,15,

17,29,0,78,76,15,

17,29,0,78,75,20,

16,29,0,78,75,19,

16,29,1,77,74,19,

16,29,1,77,74,16,

16,29,1,77,74,17,

15,28,0,77,73,13,

16,28,1,76,73,14,

15,28,1,76,73,11,

16,28,1,76,71,11,

15,28,1,75,71,12,

15,28,1,75,71,13,

15,27,0,74,71,18,

15,28,1,74,71,15,

15,27,1,73,71,17,

15,27,0,73,71,15,

15,27,1,73,71,17,

15,27,0,73,71,17,

14,27,0,73,71,16,

15,26,0,71,71,12,

15,26,1,71,71,14,

15,26,0,71,71,11,

14,26,1,71,70,15,

14,26,0,71,70,16,

14,25,0,71,69,15,

14,26,1,71,70,15,

14,27,1,70,69,15,

14,27,1,70,69,16,

14,27,1,70,69,16,

14,27,1,69,68,12,

14,27,1,69,68,12,

14,26,0,68,67,14,

14,26,1,68,67,11,

14,26,1,68,67,10,

13,26,1,67,67,14,

14,26,1,67,67,15,

13,25,1,67,66,13,

14,25,1,67,66,13,

13,26,0,67,66,13,

13,28,1,67,65,17,

13,28,1,66,65,13,

13,28,1,66,65,13,

13,28,1,65,65,11,

13,27,1,65,64,14,

13,27,1,65,63,11,

12,27,1,65,63,12,

14,27,1,65,63,15,

17,27,1,65,63,17,

17,27,0,64,63,15,

17,27,1,63,62,19,

17,26,1,63,62,18,

17,26,1,63,62,20,

17,26,1,63,61,16,

17,26,1,63,62,15,

16,26,1,63,61,16,

16,26,1,62,61,19,

16,25,1,62,60,18,

16,25,1,62,61,13,

16,25,1,62,60,12,

17,25,0,62,60,14,

16,25,1,61,60,14,

16,25,1,61,59,15,

16,25,1,60,59,17,

16,25,1,60,59,17,

16,25,1,60,90,19,

16,25,1,60,92,19,

15,25,0,60,91,19,

15,24,1,59,91,16,

15,24,1,59,90,16,

15,24,1,59,90,12,

15,24,1,58,89,14,

15,24,1,58,89,12,

15,24,1,58,88,15,

15,24,1,57,88,14,

15,24,1,58,87,14,

15,24,1,57,87,15,

15,24,1,57,86,18,

14,23,1,57,86,15,

15,24,1,57,86,13,

14,23,1,56,85,13,

14,23,1,56,85,12,

14,23,1,56,84,14,

14,22,1,56,84,11,

14,22,1,56,83,12,

15,23,1,55,83,11,

14,23,1,55,83,16,

14,22,1,54,82,17,

14,22,1,54,82,19,

14,22,1,54,82,17,

14,22,1,54,81,14,

14,22,1,54,88,14,

14,21,1,54,87,15,

14,21,1,53,86,11,

13,21,1,53,85,11,

13,21,0,53,85,10,

13,21,1,53,85,11,

13,21,1,52,84,13,

13,21,1,51,84,14,

13,20,1,52,83,15,

13,21,1,51,83,16,

13,21,1,51,83,14,

13,21,1,51,82,13,

12,21,1,51,82,13,

13,21,1,51,82,12,

13,21,1,51,81,12,

13,20,1,50,80,11,

13,21,1,50,80,10,

13,21,1,50,80,7,

12,21,1,50,79,9,

12,20,1,49,79,12,

12,20,1,50,79,14,

12,20,1,49,79,12,

12,20,1,49,78,15,

12,20,1,49,78,13,

12,20,1,49,77,14,

12,20,1,48,77,12,

12,20,1,48,77,11,

12,20,1,48,76,10,

12,20,1,48,76,12,

12,19,1,48,76,7,

12,19,1,47,75,7,

11,19,1,47,75,7,

11,19,1,47,75,11,

11,19,1,47,74,10,

11,19,1,46,74,11,

11,24,1,46,74,14,

11,24,1,46,73,12,

11,24,1,46,73,15,

11,24,1,46,72,13,

11,24,1,46,71,11,

11,24,1,45,71,12,

11,23,1,45,71,7,

10,23,1,45,71,6,

11,23,1,44,71,9,

10,23,1,45,71,10,

11,23,1,44,70,10,

10,22,1,44,70,10,

11,23,1,44,70,11,

11,22,1,44,70,14,

10,22,1,44,69,11,

10,22,1,44,75,12,

10,22,1,44,76,9,

10,22,1,43,76,9,

10,22,1,43,75,9,

9,22,2,43,75,7,

10,22,1,43,74,6,

11,21,1,42,74,10,

11,21,1,42,73,12,

11,21,1,42,73,11,

10,21,1,42,73,11,

11,21,1,42,71,15,

10,21,1,41,71,15,

10,22,1,41,71,11,

10,21,1,41,71,10,

10,21,1,43,71,10,

10,21,1,52,71,9,

10,21,1,51,70,7,

10,21,1,51,70,7,

10,20,1,51,70,7,

10,20,1,51,70,7,

10,20,1,51,69,11,

10,20,1,51,69,13,

10,22,1,50,68,11,

9,21,1,50,68,13,

10,21,1,50,67,10,

10,21,1,49,67,10,

10,20,1,49,67,9,

9,21,2,49,67,7,

10,21,1,49,67,9,

11,21,1,48,67,6,

10,20,1,48,66,10,

10,20,1,48,66,9,

10,20,1,48,66,11,

11,20,1,48,65,12,

10,20,1,48,65,13,

10,21,1,47,65,11,

10,28,1,47,64,14,

10,28,1,47,63,10,

9,28,1,47,75,12,

9,28,1,46,78,11,

10,28,1,46,77,9,

9,27,1,46,77,7,

10,28,1,45,77,6,

9,27,1,45,76,7,

11,27,1,45,76,9,

11,27,1,45,76,11,

11,27,1,45,75,12,

11,26,1,45,75,13,

11,26,1,44,74,11,

11,26,1,44,74,14,

10,25,1,44,73,11,

10,25,1,44,73,9,

10,25,1,44,73,10,

10,25,1,44,72,12,

10,25,1,61,72,12,

10,25,1,67,71,7,

10,25,1,66,71,6,

10,25,1,66,71,8,

10,25,1,66,71,10,

10,25,1,65,71,9,

10,24,1,65,70,10,

9,25,1,65,70,10,

10,26,1,65,70,14,

9,25,1,64,79,11,

9,25,1,63,79,11,

9,25,1,63,79,12,

9,25,1,63,78,7,

9,25,1,63,78,9,

9,25,1,62,77,7,

9,25,1,63,77,6,

9,24,1,62,77,6,

9,24,1,62,77,6,

9,24,1,61,76,10,

9,24,1,61,76,8,

9,24,1,61,76,12,

9,24,1,60,75,9,

9,24,1,61,75,10,

9,24,1,60,74,12,

9,24,1,60,74,8,

8,24,1,60,74,10,

8,24,1,59,73,7,

7,24,1,59,73,5,

8,24,1,59,71,5,

8,24,1,58,72,6,

9,23,1,58,71,5,

9,23,1,58,71,9,

7,23,1,58,71,7,

8,23,1,57,71,12,

7,24,1,57,71,9,

7,24,1,57,71,10,

7,24,1,56,70,11,

7,24,1,57,70,11,

7,23,1,56,70,10,

7,24,1,56,70,6,

7,24,1,56,69,7,

7,23,1,56,69,7,

7,23,1,56,69,5,

7,23,1,56,68,7,

7,22,0,55,67,6,

7,23,1,55,67,10,

7,23,1,54,67,10,

7,22,1,54,67,8,

7,23,1,54,67,9,

7,22,1,54,67,7,

7,22,1,53,66,9,

7,22,1,53,66,7,

7,22,1,53,66,7,

7,22,1,53,66,6,

7,21,1,53,65,7,

7,21,1,52,65,3,

7,21,1,52,65,7,

7,21,1,52,65,7,

7,21,1,52,64,5,

7,21,1,51,64,9,

7,21,1,51,64,10,

7,21,1,51,63,11,

7,21,1,51,63,7,

7,21,1,51,63,7,

6,20,1,50,63,7,

6,20,1,50,63,6,

6,20,1,70,63,6,

7,20,1,70,62,7,

6,19,0,70,62,7,

6,20,1,69,62,2,

6,20,1,69,61,5,

6,19,1,68,61,6,

6,19,1,68,61,5,

6,19,1,68,60,8,

6,19,1,67,61,7,

6,19,1,67,60,10,

6,19,1,67,60,7,

6,19,1,67,88,7,

6,19,1,66,89,6,

6,19,1,66,88,6,

6,19,1,66,88,6,

6,19,1,65,88,7,

6,18,0,65,87,3,

6,18,0,65,87,2,

6,18,1,64,87,5,

6,18,1,64,86,3,

6,18,1,64,86,5,

6,18,1,63,85,7,

6,18,0,63,85,7,

6,37,1,63,85,10,

6,47,1,63,84,9,

6,46,1,63,84,10,

6,45,1,62,83,7,

5,45,1,62,83,6,

6,45,1,62,83,7,

5,45,1,62,82,6,

5,45,1,61,82,5,

5,45,1,61,82,1,

5,44,1,61,81,5,

6,44,1,60,81,3,

5,44,0,60,81,4,

5,43,1,60,80,7,

5,43,1,60,80,7,

5,43,1,60,79,10,

5,43,1,59,79,10,

5,43,1,60,79,9,

5,43,1,59,79,6,

5,43,1,59,78,5,

5,42,1,58,77,6,

5,42,1,58,77,3,

5,42,1,58,77,5,

5,41,0,58,77,1,

5,41,1,57,76,5,

5,41,1,57,76,3,

5,41,1,57,76,7,

5,39,1,57,76,7,

5,41,1,56,75,5,

5,39,1,56,75,9,

4,39,1,56,75,6,

5,39,0,56,75,7,

5,39,1,56,74,5,

4,39,1,55,73,3,

4,39,1,55,73,6,

5,39,1,55,73,3,

4,39,0,55,73,5,

4,39,1,54,73,3,

4,38,1,54,73,2,

5,39,1,54,71,6,

4,39,1,54,71,5,

4,38,1,53,71,5,

5,38,1,53,71,7,

4,38,1,87,81,9,

5,38,1,88,85,5,

5,37,1,88,84,7,

4,37,1,88,83,4,

4,37,1,87,83,3,

4,37,1,87,83,3,

4,36,1,86,83,2,

5,37,0,86,83,5,

4,36,1,85,82,5,

4,36,0,85,82,4,

4,36,1,85,81,3,

4,36,1,84,81,4,

4,38,1,84,80,7,

4,38,1,83,80,6,

3,38,1,83,80,7,

3,38,0,83,79,5,

4,38,1,83,83,5,

4,38,1,82,83,5,

3,37,1,82,82,3,

4,37,1,82,82,3,

3,37,1,81,81,3,

4,37,1,81,81,1,

3,37,0,81,81,4,

3,36,1,80,80,3,

3,36,1,79,79,2,

4,36,1,79,79,3,

3,35,1,79,79,6,

4,35,1,78,79,5,

4,35,1,78,79,7,

4,35,0,78,79,7,

4,35,1,78,78,7,

3,35,1,78,78,4,

3,34,1,77,77,2,

4,35,1,77,77,4,

3,35,1,76,77,4,

3,34,0,76,76,4,

3,34,0,76,76,0,

3,34,1,75,76,1,

3,34,1,75,76,5,

4,33,0,76,75,5,

3,33,1,75,75,6,

3,78,1,74,74,7,

3,81,1,74,74,5,

3,80,1,74,74,7,

3,79,1,73,73,6,

3,79,0,73,73,2,

3,79,1,73,73,3,

3,78,0,73,73,4,

3,78,1,71,71,0,

3,78,1,71,71,3,

3,77,0,71,71,4,

3,77,0,71,71,2,

4,77,1,71,71,4,

3,76,1,71,71,4,

4,76,1,71,71,8,

4,75,0,70,70,7,

4,75,1,70,70,5,

3,75,1,70,70,6,

4,75,1,69,70,3,

4,74,1,69,69,6,

4,74,1,69,69,3,

4,74,1,68,69,2,

5,73,1,68,68,1,

6,73,1,68,68,3,

6,73,0,67,68,7,

6,71,1,67,67,7,

6,71,1,67,67,6,

6,71,1,67,67,7,

6,71,0,67,66,9,

6,71,1,71,67,9,

6,71,1,71,66,9,

5,71,1,70,66,9,

6,71,1,70,66,5,

5,70,1,70,65,6,

5,70,1,69,65,3,

6,69,1,69,65,6,

5,69,1,69,64,5,

16,69,0,69,64,10,

16,68,1,68,63,14,

16,68,0,68,63,13,

16,67,1,67,63,15,

15,67,1,67,63,18,

15,67,1,67,62,15,

15,67,1,66,62,15,

15,66,0,66,65,14,

15,66,1,66,65,14,

15,66,0,65,64,14,

15,65,1,65,63,12,

15,65,1,65,63,12,

14,65,1,65,63,11,

15,64,1,64,63,14,

14,64,1,64,63,14,

14,63,1,63,62,17,

14,71,1,63,62,15,

15,80,1,63,62,18,

14,79,1,63,62,15,

14,79,1,63,68,19,

14,79,1,63,100,17,

14,78,0,62,99,14,

14,78,1,62,99,15,

14,77,1,62,98,11,

13,77,1,61,98,12,

14,76,0,61,97,12,

13,76,1,61,97,11,

13,76,1,61,96,15,

13,75,1,60,96,15,

13,75,1,60,96,14,

13,75,1,60,95,14,

13,74,1,60,94,17,

13,74,1,59,94,17,

13,73,1,59,93,13,

13,73,1,59,93,11,

13,73,1,58,92,10,

14,71,1,58,92,12,

13,71,1,58,92,9,

14,71,1,57,91,10,

13,71,1,57,91,13,

13,71,1,57,90,14,

13,71,1,56,90,16,

13,70,1,56,89,17,

13,70,1,56,89,16,

13,70,1,56,89,16,

13,69,1,56,89,15,

13,69,0,56,88,14,

13,69,0,56,88,11,

13,69,1,56,88,12,

13,68,1,55,87,8,

13,68,1,55,87,9,

12,67,1,54,87,11,

13,67,1,54,86,13,

12,67,1,54,85,14,

12,67,1,54,85,13,

12,66,1,54,85,15,

12,66,1,53,84,15,

12,65,1,53,84,15,

12,65,1,53,83,12,

12,65,1,53,83,14,

12,65,1,52,83,10,

12,64,1,52,82,17,

31,64,1,51,82,24,

30,63,0,51,81,25,

30,63,1,51,81,28,

30,63,1,51,81,29,

29,63,1,51,81,31,

30,63,1,51,80,31,

29,63,0,51,79,29,

29,63,1,51,79,28,

29,63,1,50,79,30,

29,62,1,50,79,27,

28,62,1,49,79,26,

29,62,1,49,78,27,

28,61,1,49,78,28,

28,61,1,49,78,25,

28,61,1,48,78,25,

28,60,1,48,77,26,

28,60,1,48,77,28,

28,60,1,48,76,28,

27,60,0,48,76,30,

27,60,1,48,76,26,

27,60,1,48,76,27,

27,59,1,47,75,27,

27,59,0,47,75,28,

27,59,1,47,75,26,

26,58,0,46,74,25,

26,58,1,46,74,24,

27,57,1,46,73,24,

26,57,1,46,73,24,

26,57,1,46,73,28,

26,57,1,45,71,28,

25,59,1,45,71,26,

25,57,1,45,71,29,

25,57,1,45,71,28,

25,57,1,45,71,25,

25,57,1,45,71,24,

25,57,1,45,71,22,

25,57,1,44,71,23,

28,56,1,44,70,25,

28,56,1,44,70,23,

28,56,1,43,70,25,

27,56,1,43,69,27,

27,56,1,43,69,28,

27,55,1,43,68,30,

27,55,1,43,68,30,

26,55,1,42,67,29,

26,54,1,42,67,29,

26,54,1,42,67,24,

26,54,1,42,67,26,

26,53,1,42,66,22,

26,54,1,68,66,25,

28,53,1,96,66,24,

27,53,1,96,66,24,

28,52,1,96,65,25,

27,53,1,95,65,29,

27,51,1,94,65,27,

27,52,1,93,67,28,

27,51,1,93,67,27,

27,51,1,93,84,25,

27,51,1,92,83,27,

26,51,1,92,83,24,

26,51,1,92,83,24,

26,51,1,91,82,22,

26,50,1,91,81,25,

26,50,1,90,81,25,

25,50,1,89,81,28,

25,49,1,89,80,27,

25,49,1,89,79,25,

25,49,1,88,79,28,

25,49,1,88,79,28,

25,49,1,88,78,24,

25,48,1,87,78,24,

25,48,1,87,78,25,

24,48,1,87,77,22,

24,48,1,86,77,19,

24,48,1,85,77,24,

24,47,1,85,76,20,

24,47,1,85,76,24,

24,47,1,84,76,23,

24,47,1,84,75,24,

24,46,1,83,75,26,

24,46,1,83,75,24,

23,46,1,83,75,27,

24,46,1,82,123,25,

23,46,1,82,122,22,

23,45,1,81,121,21,

23,45,1,81,121,23,

23,45,1,81,120,19,

22,44,1,80,119,22,

22,45,1,79,119,20,

22,44,1,80,118,21,

22,61,1,79,117,23,

22,71,1,79,117,24,

22,70,1,78,115,22,

22,70,1,79,115,25,

22,69,1,78,115,21,

22,69,1,77,114,19,

21,68,1,77,114,19,

21,68,1,77,113,18,

35,68,1,76,112,28,

37,67,1,76,112,34,

36,67,1,76,112,34,

35,67,1,76,111,34,

36,66,1,75,111,35,

35,66,1,75,110,35,

35,66,1,74,109,35,

35,65,1,74,109,38,

35,65,1,73,108,33,

35,65,1,73,108,31,

34,63,1,73,107,30,

34,63,1,71,107,33,

34,63,1,71,106,29,

34,63,1,71,105,31,

33,63,1,71,105,31,

33,63,1,71,105,32,

33,64,1,71,104,37,

35,112,1,71,103,35,

35,111,1,70,103,36,

34,110,1,70,103,36,

34,109,1,70,102,33,

34,109,1,69,102,30,

34,108,1,69,101,31,

34,107,1,69,100,29,

33,107,1,68,100,32,

33,106,1,67,99,33,

33,105,1,67,99,31,

32,105,1,67,99,35,

32,103,1,67,98,35,

32,103,0,66,98,35,

32,103,1,66,97,34,

31,103,1,66,97,31,

31,103,1,66,96,30,

31,102,1,65,96,29,

31,101,1,87,96,30,

31,101,1,98,95,29,

31,101,1,97,95,31,

31,100,1,96,94,32,

31,99,1,96,94,30,

30,99,1,96,93,30,

30,99,1,95,93,32,

31,98,1,95,92,30,

30,97,1,94,92,31,

30,97,1,93,92,28,

30,96,1,93,91,27,

30,96,1,92,91,26,

29,96,1,92,90,28,

29,95,1,92,90,25,

29,95,1,91,89,25,

29,94,1,91,89,26,

29,94,1,91,89,27,

29,94,1,90,88,30,

28,93,1,89,88,28,

28,92,1,89,88,30,

28,92,1,89,87,28,

28,92,1,88,87,31,

28,92,1,88,87,29,

28,91,1,88,86,29,

28,90,1,88,86,26,

28,90,1,87,86,24,

27,90,1,87,85,24,

27,89,1,86,85,27,

27,89,1,86,85,24,

27,88,1,86,83,26,

27,88,1,85,83,30,

26,88,1,85,83,28,

26,88,1,84,83,26,

26,87,1,83,82,29,

26,87,1,83,82,28,

26,86,1,83,81,26,

26,86,1,83,81,25,

26,85,1,82,81,21,

25,85,1,82,81,24,

25,85,1,81,80,22,

25,84,1,81,79,25,

25,83,1,80,79,25,

25,83,1,80,79,26,

25,83,1,80,79,25,

25,83,1,79,78,25,

25,82,1,79,78,26,

24,82,1,79,78,26,

24,81,1,79,78,25,

24,81,1,78,77,22,

24,81,1,78,77,19,

24,80,1,77,76,22,

24,80,1,78,76,21,

29,79,1,77,76,27,

29,79,1,76,76,26,

28,79,1,76,76,30,

28,79,1,76,75,31,

28,78,1,76,75,30,

28,78,1,76,74,30,

27,78,1,75,73,26,

27,77,1,75,73,25,

27,77,1,74,73,25,

27,76,1,74,73,26,

27,76,1,73,71,23,

27,76,1,73,71,24,

26,76,1,73,71,24,

27,75,1,73,71,28,

27,75,1,71,71,29,

27,74,1,71,71,30,

27,74,1,71,71,30,

26,73,1,71,71,27,

26,73,1,71,70,25,

26,73,1,71,70,27,

25,73,1,71,69,24,

25,71,1,70,69,26,

25,71,1,70,69,22,

25,71,1,70,68,24,

25,71,1,69,68,21,

25,71,1,113,67,25,

25,71,1,112,67,24,

25,71,1,112,67,27,

25,70,1,110,67,26,

33,70,1,110,67,34,

33,70,1,109,66,35,

33,69,1,109,66,34,

33,69,1,108,65,31,

32,69,1,108,66,32,

32,68,1,107,65,30,

32,67,1,106,65,30,

33,67,1,106,64,28,

32,67,1,105,64,31,

32,67,1,105,63,31,

31,66,1,105,63,31,

31,66,1,103,63,31,

31,66,1,103,63,34,

31,66,1,103,63,34,

31,65,1,103,62,33,

31,65,1,102,62,29,

31,65,1,102,62,29,

30,64,1,101,62,28,

30,64,1,101,61,29,

30,64,1,100,61,26,

30,63,1,99,61,31,

30,63,1,99,60,28,

30,63,1,99,60,28,

29,62,1,98,60,29,

30,62,1,98,60,31,

29,62,1,97,59,28,

29,62,1,97,59,28,

29,62,1,96,59,27,

29,61,1,96,59,25,

29,61,1,96,58,26,

29,60,1,96,58,25,

29,60,1,95,58,27,

29,60,1,95,57,25,

28,60,1,94,57,30,

29,60,1,94,57,31,

28,60,1,93,57,31,

28,59,1,93,57,31,

28,59,1,93,57,28,

28,59,1,92,56,27,

28,58,1,92,56,29,

28,58,1,92,56,24,

27,58,1,91,56,24,

28,57,1,91,56,24,

27,57,1,90,55,24,

27,57,1,89,55,24,

27,57,1,89,54,31,

36,56,1,89,54,35,

36,57,1,88,54,37,

35,56,1,88,54,38,

35,56,1,88,53,35,

35,56,1,88,54,36,

35,56,1,87,53,31,

34,55,1,87,53,35,

35,55,1,86,52,31,

34,55,1,86,52,30,

34,54,1,85,51,29,

34,54,1,85,52,33,

34,54,1,85,51,33,

33,53,1,84,51,34,

33,53,1,83,51,35,

33,53,1,83,51,33,

33,53,1,83,51,31,

33,52,1,83,51,35,

33,52,1,83,50,31,

33,51,1,82,50,33,

32,51,1,82,50,31,

32,52,1,81,50,30,

31,51,1,81,50,31,

31,51,1,81,49,31,

31,51,1,79,49,29,

31,51,1,80,49,30,

31,51,1,79,48,30,

31,50,1,79,48,31,

31,50,1,79,48,31,

30,50,1,78,48,30,

31,50,1,78,47,30,

30,50,1,78,48,29,

30,49,1,77,47,31,

30,49,1,77,47,29,

31,49,1,77,47,29,

31,48,1,77,47,29,

30,48,1,76,46,27,

30,48,1,76,46,28,

30,48,1,76,46,31,

30,47,1,76,46,30,

30,47,1,75,45,33,

30,48,1,75,45,29,

29,47,1,74,45,31,

29,46,1,74,45,27,

29,46,1,74,44,29,

29,46,1,73,45,25,

29,46,1,73,44,23,

28,46,1,71,44,24,

28,46,1,72,44,24,

28,45,1,71,44,27,

28,45,1,71,43,27,

28,46,1,71,44,29,

28,46,1,71,43,27,

28,46,1,71,43,31,

28,46,1,71,43,31,

27,45,1,70,42,29,

27,45,1,70,42,28,

27,45,1,70,42,28,

27,45,1,69,42,23,

27,44,1,69,42,25,

27,44,1,69,41,23,

27,44,1,68,41,24,

26,44,1,68,41,28,

26,44,1,67,41,27,

26,44,1,67,41,26,

26,44,1,67,41,28,

26,43,1,67,41,28,

25,43,1,67,39,27,

25,43,1,66,39,24,

25,42,1,66,39,24,

25,42,1,66,39,23,

25,42,1,65,39,21,

25,41,1,65,39,25,

25,41,1,65,39,22,

25,41,0,65,39,27,

25,41,1,65,39,24,

24,41,1,63,39,25,

25,42,1,63,38,27,

24,42,1,63,39,24,

24,41,1,63,38,23,

24,41,1,63,38,22,

41,41,1,63,38,39,

61,41,1,62,38,53,

60,41,1,62,38,56,

59,39,1,62,37,57,

59,40,1,62,37,54,

59,39,1,62,37,56,

58,39,0,62,37,56,

58,39,1,61,37,58,

58,39,1,61,36,59,

57,39,1,64,37,56,

57,39,1,64,36,56,

57,39,1,63,36,55,

56,38,1,63,36,57,

56,39,1,63,36,53,

56,39,1,62,35,55,

56,38,1,62,35,50,

55,38,1,62,35,49,

56,38,1,62,35,53,

55,38,1,61,35,51,

54,38,1,61,35,51,

54,39,1,61,35,53,

54,39,1,61,35,53,

54,39,1,60,35,56,

53,38,1,60,34,55,

53,38,1,60,34,54,

53,38,1,60,34,50,

52,37,1,59,34,50,

52,38,1,59,34,47,

78,37,1,59,34,65,

76,37,1,58,33,67,

76,37,1,58,33,70,

76,37,1,58,33,71,

75,36,1,58,33,71,

75,36,1,57,33,71,

75,37,1,57,32,71,

74,36,1,57,33,71,

73,35,1,57,32,70,

73,35,1,57,32,71,

73,35,1,56,32,70,

71,35,1,56,31,69,

71,35,1,56,31,67,

71,35,1,56,31,68,

71,35,0,55,31,65,

71,35,1,56,31,70,

71,35,1,55,31,71,

70,35,1,55,31,69,

70,35,1,55,31,71,

70,35,1,54,31,67,

69,35,1,54,31,68,

69,35,1,54,31,67,

69,35,1,54,30,63,

68,35,1,53,31,62,

67,34,1,53,30,63,

67,34,0,53,30,61,

67,34,1,52,30,61,

67,34,0,52,30,66,

67,46,1,52,30,64,

66,46,1,52,30,65,

66,45,1,51,29,66,

66,45,1,51,29,63,

65,45,1,51,29,66,

65,44,1,51,29,62,

64,44,1,51,29,61,

64,44,1,51,29,59,

64,44,1,50,29,59,

63,44,1,79,57,61,

63,43,1,102,57,61,

63,43,1,101,56,61,

63,43,1,100,56,62,

63,42,1,100,56,62,

62,44,1,99,55,61,

62,44,1,99,55,59,

62,44,1,98,55,62,

61,43,1,98,54,59,

61,43,1,97,54,61,

61,44,1,97,54,56,

60,43,1,96,53,57,

60,43,0,96,53,54,

60,42,1,96,53,56,

60,42,1,95,52,54,

60,42,1,95,52,56,

59,41,1,94,52,57,

59,42,1,94,52,57,

59,41,1,93,51,57,

59,41,1,93,51,56,

58,41,1,92,51,56,

57,39,1,92,51,54,

57,39,1,92,50,57,

57,39,0,91,50,55,

57,39,1,91,50,54,

57,39,1,90,49,54,

56,39,0,90,49,54,

56,39,1,89,49,51,

56,39,1,89,49,57,

56,44,1,89,49,54,

56,43,1,88,48,55,

56,43,1,88,48,54,

55,43,1,88,48,54,

54,42,1,87,48,54,

54,42,1,87,48,54,

54,42,1,86,48,49,

54,42,1,86,47,50,

53,41,1,85,47,48,

53,41,1,86,47,49,

53,41,1,84,47,50,

53,41,1,84,46,50,

53,41,1,83,46,52,

53,41,1,83,46,52,

53,39,1,83,46,52,

52,39,1,83,46,50,

51,39,1,82,45,50,

51,39,1,82,45,51,

51,39,1,82,45,48,

51,39,1,81,45,46,

51,39,1,81,44,48,

51,39,1,81,44,44,

50,39,1,80,44,49,

50,38,1,79,44,50,

50,38,1,79,44,51,

50,38,0,79,44,51,

50,38,1,79,43,51,

49,37,1,79,43,48,

49,37,1,78,43,50,

49,37,1,78,42,49,

48,37,1,78,42,45,

48,37,1,77,42,45,

48,36,1,77,42,43,

48,36,1,76,41,46,

48,36,1,76,41,43,

47,36,1,76,41,48,

47,36,1,75,41,46,

47,35,1,75,41,46,

47,35,1,75,39,49,

46,35,1,75,39,46,

46,35,1,74,39,44,

46,35,1,74,39,44,

46,34,1,73,39,44,

46,35,1,73,39,45,

45,34,0,73,39,44,

62,34,1,73,39,56,

63,34,0,72,39,56,

62,34,0,71,39,59,

62,34,0,71,39,59,

62,34,1,71,39,62,

62,34,1,71,38,59,

61,34,1,71,38,58,

61,34,1,70,38,58,

61,34,1,70,37,56,

60,34,1,70,37,57,

60,34,1,69,38,56,

60,34,1,69,37,56,

60,33,1,69,37,54,

59,33,1,68,37,56,

59,33,1,68,37,56,

62,43,1,67,36,62,

63,42,1,67,36,61,

63,42,1,67,36,64,

63,42,1,67,36,61,

62,42,1,67,35,64,

62,41,1,66,35,63,

62,41,1,66,35,60,

62,41,1,66,35,59,

61,41,1,66,35,56,

61,39,1,65,35,57,

60,39,1,65,36,57,

60,39,1,65,51,57,

60,39,1,65,51,57,

60,39,1,64,50,60,

59,39,1,63,50,58,

59,39,1,63,50,57,

59,39,1,63,49,60,

58,39,1,63,49,57,

58,39,1,63,49,56,

58,38,1,62,48,54,

57,38,1,63,49,52,

57,38,1,62,48,51,

57,37,1,62,48,51,

57,38,1,61,48,51,

56,37,1,61,48,51,

56,37,1,61,47,54,

56,37,1,61,47,56,

55,37,1,60,46,57,

56,37,1,60,46,56,

55,36,1,60,46,56,

55,36,1,73,46,56,

55,36,1,71,46,55,

55,36,0,71,45,51,

54,36,1,71,45,52,

55,35,1,71,44,51,

55,35,1,71,45,48,

54,35,1,71,44,50,

54,35,1,70,44,54,

54,35,1,71,44,56,

54,35,1,71,44,54,

53,34,1,71,44,55,

53,34,0,70,44,51,

53,34,1,70,43,51,

52,34,1,70,43,50,

52,34,1,69,43,50,

52,34,1,69,43,48,

52,33,1,69,48,48,

51,33,1,68,48,50,

51,33,1,67,48,50,

51,33,1,67,47,51,

51,32,1,67,47,52,

51,32,1,67,47,49,

50,32,1,67,46,51,

50,31,1,67,46,49,

50,32,1,66,46,51,

50,31,1,66,45,47,

49,31,1,65,46,46,

49,31,1,65,45,45,

49,31,1,65,45,48,

49,31,1,64,45,44,

49,31,1,64,46,44,

48,31,1,63,46,45,

48,31,1,63,45,45,

48,31,0,63,45,48,

48,30,1,63,45,47,

47,30,1,62,45,49,

47,30,1,62,45,46,

47,30,1,62,45,49,

47,30,1,62,44,48,

46,30,1,62,44,48,

47,29,1,61,44,45,

46,29,1,61,44,42,

46,29,1,61,44,41,

46,29,1,60,43,44,

46,29,1,60,43,42,

46,29,1,60,43,44,

45,29,1,60,42,45,

45,29,1,59,42,45,

45,29,1,60,42,46,

44,29,0,59,41,47,

44,29,1,59,41,43,

44,29,1,58,41,47,

54,28,1,58,41,48,

53,28,1,58,41,48,

53,28,1,57,41,50,

52,28,1,57,40,47,

53,28,1,57,39,49,

52,28,1,57,39,50,

52,28,1,57,39,51,

51,28,1,56,39,50,

51,27,1,56,39,51,

51,27,1,56,39,52,

51,28,1,56,39,52,

51,27,1,55,39,50,

50,27,1,55,39,47,

50,27,1,55,59,47,

50,27,1,55,83,48,

49,27,1,55,83,44,

49,26,1,54,83,47,

49,26,1,54,82,46,

49,26,1,54,82,50,

48,26,0,53,81,49,

48,26,1,53,81,50,

48,26,1,53,80,50,

48,25,1,53,79,47,

48,25,0,52,79,48,

47,25,1,52,79,45,

47,25,1,52,79,45,

47,25,1,54,78,42,

47,25,1,53,78,43,

46,25,1,53,77,43,

46,25,1,53,77,44,

46,24,1,53,76,48,

46,25,1,52,76,48,

45,25,1,52,76,48,

45,24,1,52,76,45,

45,24,0,51,75,44,

45,24,1,51,75,46,

45,24,1,51,74,43,

45,24,1,51,74,45,

44,24,1,51,74,39,

44,24,1,51,73,42,

44,24,1,50,73,39,

44,23,1,50,72,41,

43,24,1,50,71,39,

44,24,1,49,71,41,

43,23,1,49,71,43,

43,23,1,49,71,41,

43,23,0,49,71,42,

42,23,1,49,71,41,

42,23,1,48,70,41,

42,22,0,48,70,39,

41,23,1,48,70,41,

41,22,1,48,70,39,

41,22,1,48,69,39,

41,22,1,47,69,39,

41,22,1,47,68,41,

41,22,1,47,68,39,

40,22,1,47,68,43,

40,21,1,47,67,39,

39,22,1,48,67,39,

39,21,1,47,67,39,

39,21,1,47,67,39,

39,21,1,47,67,37,

39,21,1,47,66,39,

39,21,1,47,66,34,

39,21,1,46,65,37,

39,21,1,46,65,37,

38,21,1,46,65,36,

39,20,1,45,64,37,

39,20,1,46,63,37,

38,20,1,45,63,39,

38,20,1,45,63,38,

38,20,1,45,63,38,

38,20,1,44,63,35,

38,20,1,45,63,35,

37,19,1,44,62,37,

37,19,0,44,62,36,

37,19,1,44,62,31,

37,19,1,44,63,35,

37,19,1,44,63,31,

39,19,1,43,63,39,

39,19,1,43,62,39,

39,20,1,43,62,41,

38,19,1,43,61,41,

38,20,1,42,61,39,

38,19,1,43,61,39,

38,19,1,42,61,39,

38,19,1,42,60,36,

37,19,1,41,60,33,

37,19,1,41,60,34,

37,19,1,48,59,32,

37,19,1,48,59,33,

36,19,1,47,59,34,

37,19,1,47,59,36,

36,19,1,46,58,37,

36,19,1,46,58,36,

35,19,1,46,58,37,

35,18,1,46,57,35,

35,18,1,45,57,34,

35,18,1,45,57,33,

35,18,1,45,57,31,

35,18,1,45,56,34,

35,18,1,45,56,33,

34,18,1,45,56,34,

34,18,1,44,56,31,

34,18,1,44,56,35,

34,17,0,44,56,33,

34,17,1,44,55,35,

34,17,1,44,55,33,

33,17,1,44,54,33,

34,19,1,43,54,31,

33,19,1,43,54,30,

33,18,1,43,54,30,

33,18,1,42,53,29,

33,18,1,42,53,29,

33,18,1,42,53,28,

33,18,1,42,53,31,

32,18,1,41,52,33,

31,18,1,41,52,35,

31,18,1,41,51,32,

31,57,1,41,51,35,

31,57,1,41,51,31,

31,55,1,41,51,34,

31,56,1,40,51,32,

31,55,1,41,51,30,

31,55,1,39,51,31,

31,54,1,39,50,27,

30,54,1,39,64,29,

30,54,1,51,64,29,

30,53,1,50,63,29,

30,53,1,50,63,29,

30,53,1,49,63,30,

30,52,1,49,63,30,

30,52,1,49,63,30,

30,52,1,49,62,33,

29,51,1,48,6232,

29,51,1,48,61,28,

29,51,1,48,62,27,

29,51,1,48,61,25,

29,51,1,48,82,28,

29,50,1,47,119,26,

29,50,1,47,118,27,

28,50,1,47,117,27,

28,49,1,47,117,29,

28,49,1,46,116,29,

28,49,1,46,115,31,

28,48,1,46,115,28,

28,48,0,45,114,27,

28,48,1,45,113,25,

28,48,1,45,113,28,

27,48,1,45,112,24,

27,47,1,45,112,24,

27,47,1,45,111,24,

27,47,1,44,111,25,

27,46,1,44,110,26,

26,47,1,44,109,30,

27,46,0,44,109,27,

27,46,0,43,108,30,

26,46,1,43,108,29,

33,45,0,43,107,30,

32,45,1,43,107,30,

32,45,1,43,106,30,

31,45,1,42,105,28,

31,45,1,42,105,29,

31,44,1,42,105,28,

31,44,1,41,103,32,

31,44,0,41,103,30,

31,44,1,41,103,34,

31,43,0,41,103,31,

31,43,0,41,102,34,

31,43,1,40,102,31,

30,42,1,39,101,29,

31,42,1,39,101,28,

30,42,1,39,100,27,

30,42,1,39,99,26,

30,41,1,39,99,30,

29,41,1,39,99,26,

30,41,1,39,98,30,

29,41,1,39,98,31,

29,41,1,39,98,30,

29,41,1,39,97,29,

29,41,1,38,97,29,

29,41,0,38,96,29,

29,41,1,38,96,31,

29,40,1,38,95,30,

28,39,1,38,95,30,

28,39,1,37,94,24,

28,39,1,38,94,26,

28,39,1,37,94,24,

28,39,1,37,93,27,

28,39,1,37,93,25,

28,39,1,37,92,27,

28,39,1,37,92,27,

27,39,1,37,92,26,

27,39,1,38,91,27,

27,39,1,38,91,27,

27,38,1,38,91,27,

27,38,1,37,90,25,

27,38,1,37,89,26,

26,38,1,37,89,25,

26,37,1,37,89,25,

