
60,39,7,48,17,7,

59,39,7,48,16,7,

59,39,7,48,16,7,

59,38,7,48,16,7,

59,39,7,48,16,9,

59,39,8,47,15,7,

58,39,8,47,16,7,

57,38,7,47,15,7,

58,38,7,47,16,7,

57,38,7,47,15,7,

57,38,7,46,15,8,

56,38,7,47,16,9,

57,38,7,47,15,7,

57,37,7,48,15,7,

56,37,7,46,15,8,

56,37,7,47,16,7,

56,37,9,47,15,8,

56,37,8,46,15,7,

55,37,7,46,15,9,

56,36,7,46,15,7,

55,36,8,46,15,8,

54,37,8,45,15,7,

54,36,7,45,15,7,

54,35,7,45,15,7,

54,35,7,45,15,7,

54,35,7,45,15,8,

53,35,7,45,15,7,

53,35,7,45,15,7,

53,35,7,45,16,7,

53,35,9,44,15,9,

53,36,7,44,15,7,

52,35,9,44,15,9,

52,35,7,44,15,7,

52,35,7,44,15,9,

52,35,9,44,15,7,

51,35,8,44,15,9,

51,35,7,44,15,9,

51,35,7,43,15,9,

51,34,8,43,15,7,

50,35,8,43,15,7,

50,34,9,43,15,9,

50,35,7,42,15,7,

50,34,9,42,15,8,

50,34,9,42,14,8,

50,34,9,42,15,8,

50,34,7,42,15,9,

49,34,9,41,14,8,

49,33,8,42,14,7,

49,33,9,41,15,8,

49,33,8,41,15,8,

49,33,8,41,14,9,

48,33,8,41,14,9,

48,33,9,41,14,9,

48,33,9,39,14,9,

48,33,9,39,14,7,

48,33,7,39,14,9,

47,54,9,39,15,8,

47,54,9,39,14,7,

47,53,7,39,14,7,

48,52,7,39,14,7,

46,52,7,39,14,9,

46,53,9,39,14,8,

47,52,9,39,14,9,

46,51,7,39,14,9,

47,51,7,39,13,8,

46,51,9,39,14,7,

45,51,8,39,13,9,

45,51,7,38,15,8,

45,51,9,39,14,9,

45,51,9,38,13,9,

45,51,8,38,14,9,

45,51,9,38,14,8,

44,51,7,38,13,7,

44,50,9,38,14,9,

44,50,7,38,14,8,

44,50,8,38,13,7,

44,50,7,38,13,9,

43,49,9,37,13,9,

44,49,9,37,14,7,

44,49,8,36,13,8,

43,49,7,37,13,7,

43,48,8,37,13,7,

43,49,7,36,13,9,

42,49,8,37,12,9,

43,48,7,36,13,9,

42,49,8,35,13,8,

42,48,9,36,13,8,

42,47,8,36,12,8,

41,48,8,35,13,9,

41,47,7,35,13,9,

41,47,7,35,12,9,

41,48,9,35,12,7,

41,47,8,35,13,9,

41,47,7,34,13,8,

39,47,8,35,12,8,

41,48,8,34,13,9,

40,47,9,35,13,7,

39,47,8,34,12,9,

39,47,8,34,12,7,

39,47,8,34,12,8,

39,46,9,34,12,8,

39,46,9,33,12,8,

39,46,8,33,13,7,

39,45,8,34,12,9,

39,45,8,33,12,7,

39,46,9,33,12,9,

39,45,8,33,12,9,

38,45,8,33,13,9,

39,45,8,33,12,9,

38,44,9,33,13,9,

39,44,7,33,12,9,

38,44,8,32,12,9,

38,44,7,31,12,8,

38,44,7,31,12,9,

38,44,9,32,12,7,

38,43,8,32,11,7,

37,43,8,31,12,7,

37,43,7,32,12,8,

37,43,9,31,13,8,

36,43,7,31,13,8,

37,43,7,31,13,9,

37,43,9,31,12,8,

37,43,8,31,12,9,

37,43,7,31,13,7,

36,42,7,30,12,9,

36,42,7,31,12,7,

35,42,7,30,12,9,

36,41,7,30,13,8,

35,41,9,30,12,9,

35,41,7,30,12,7,

35,41,7,31,12,8,

35,41,8,30,12,9,

35,41,9,30,13,7,

35,39,9,30,12,9,

35,41,7,30,12,8,

34,39,7,30,12,9,

34,39,9,30,12,7,

35,39,8,29,12,9,

34,39,8,29,12,9,

33,39,8,29,12,7,

34,39,9,29,12,7,

34,39,8,29,12,8,

33,39,8,28,12,7,

34,39,7,29,12,8,

33,39,9,28,12,9,

33,39,9,29,12,7,

33,38,7,29,12,8,

34,43,8,28,12,8,

34,48,7,29,12,9,

34,48,8,29,12,7,

34,47,7,29,12,9,

33,47,7,28,12,7,

33,46,7,28,12,8,

33,46,8,28,12,8,

33,47,8,28,12,9,

32,46,7,28,12,7,

33,46,9,28,12,7,

33,46,7,28,12,7,

33,45,7,27,12,8,

32,45,9,27,11,8,

31,45,8,27,12,9,

32,47,9,27,12,7,

32,46,9,27,12,7,

31,46,9,27,12,7,

31,46,7,27,12,9,

31,46,9,27,11,9,

31,45,9,27,12,7,

31,45,8,27,11,9,

31,45,9,34,11,7,

31,45,7,33,11,7,

31,45,8,34,12,9,

30,44,8,33,12,9,

31,44,8,33,12,9,

30,45,9,33,12,7,

31,46,8,33,11,7,

30,45,9,33,11,7,

31,45,7,33,11,9,

30,45,9,33,11,9,

30,45,7,32,11,9,

30,44,8,31,12,9,

29,44,7,32,11,8,

30,44,7,32,11,7,

30,44,7,31,12,7,

30,44,9,31,11,9,

29,43,7,31,11,9,

29,43,7,31,10,7,

29,43,9,31,11,9,

29,43,7,31,11,8,

29,43,8,31,11,8,

29,43,9,31,10,9,

29,42,9,30,11,8,

28,42,9,30,11,8,

28,42,9,30,12,7,

28,42,9,31,11,7,

28,41,9,30,11,7,

28,42,8,30,11,7,

28,42,9,30,11,7,

28,41,7,30,10,9,

27,41,7,30,11,8,

28,41,7,30,11,9,

29,41,9,30,11,9,

30,41,7,29,11,9,

30,41,8,29,12,7,

30,40,7,29,11,9,

29,39,9,29,11,8,

29,39,9,28,11,8,

29,39,8,29,11,9,

29,39,9,63,13,9,

29,39,9,95,36,8,

29,39,9,94,36,7,

28,39,8,93,35,7,

28,39,8,93,35,9,

29,39,9,92,36,9,

28,51,9,92,35,9,

28,51,8,92,35,9,

28,51,7,91,35,7,

28,51,9,90,35,9,

28,51,9,89,35,8,

28,51,9,89,34,9,

28,51,9,89,34,9,

28,50,8,89,34,8,

28,50,7,88,34,9,

27,50,9,88,34,8,

27,49,7,88,33,8,

27,49,9,88,34,7,

27,49,9,88,34,9,

28,51,9,86,33,9,

28,53,9,86,33,8,

27,52,8,86,33,9,

27,52,9,85,32,9,

26,51,9,85,32,9,

27,51,9,85,33,9,

27,51,9,84,32,9,

27,51,7,83,33,9,

26,50,7,83,31,9,

27,50,9,84,31,8,

27,50,9,83,31,9,

26,49,8,83,31,9,

26,50,9,83,31,9,

26,50,9,82,31,7,

26,49,8,82,31,7,

26,49,9,81,31,8,

26,49,9,81,30,7,

25,48,7,81,30,8,

26,49,8,80,31,9,

25,48,8,80,30,8,

25,48,8,79,31,9,

25,48,9,79,31,9,

25,48,9,79,30,8,

25,47,9,78,30,9,

25,48,8,78,30,8,

25,48,7,78,30,9,

25,47,8,78,30,7,

25,47,9,78,29,8,

25,46,8,77,29,7,

24,46,9,77,30,9,

25,46,8,77,29,7,

25,46,8,77,29,9,

24,46,8,76,29,9,

24,45,9,75,29,8,

24,45,9,75,28,7,

24,44,9,75,29,9,

24,44,9,75,28,7,

24,45,9,75,28,8,

24,44,9,75,28,7,

24,46,7,74,28,9,

24,46,7,74,28,8,

23,46,9,73,28,7,

24,45,7,73,27,9,

23,46,8,73,28,7,

23,45,9,71,28,9,

24,45,9,71,28,9,

24,44,9,72,27,8,

23,45,9,71,28,8,

24,44,8,71,27,9,

23,45,9,71,28,7,

22,44,9,71,27,9,

24,44,9,71,27,9,

51,54,9,70,27,8,

51,54,9,70,26,9,

50,54,8,70,26,7,

50,54,9,69,26,9,

50,53,9,69,26,9,

49,53,8,69,26,9,

49,53,9,69,26,9,

49,52,8,68,27,9,

49,52,8,67,25,9,

49,51,8,68,26,8,

48,52,8,67,26,9,

49,52,9,67,25,9,

48,51,9,67,25,7,

48,52,7,67,25,9,

47,52,8,67,25,7,

48,52,9,66,25,9,

47,52,8,66,25,7,

46,52,9,66,25,8,

47,51,9,65,24,7,

46,51,8,65,25,7,

47,50,9,65,25,7,

46,51,8,65,25,9,

46,50,9,65,24,7,

46,50,9,64,25,9,

46,50,7,63,24,9,

45,50,8,63,25,9,

45,49,9,63,24,9,

45,50,9,63,24,9,

45,49,9,63,24,7,

44,49,9,62,24,9,

44,49,8,63,24,7,

44,49,9,62,24,7,

44,48,7,62,24,9,

44,48,9,62,24,7,

44,48,9,61,23,9,

44,48,9,62,23,8,

43,48,9,61,24,9,

43,47,9,61,23,8,

43,47,7,61,24,7,

42,47,8,61,23,9,

42,47,9,60,23,8,

42,47,9,60,22,7,

42,46,8,59,23,9,

43,46,8,60,23,7,

42,46,8,60,22,9,

42,46,8,60,24,9,

41,46,7,59,22,8,

41,45,9,59,23,9,

41,45,8,58,22,8,

40,45,9,58,22,7,

39,45,9,59,23,9,

40,78,9,58,22,9,

39,91,7,58,22,7,

39,92,9,58,22,8,

40,91,7,57,22,8,

39,91,8,57,22,7,

39,90,7,57,22,9,

39,89,7,56,21,9,

39,89,9,56,21,9,

39,89,9,56,22,9,

39,88,9,56,23,8,

39,88,9,55,24,9,

39,88,7,56,24,7,

39,87,7,55,24,8,

38,87,8,55,23,9,

39,87,10,56,24,9,

38,86,9,55,23,7,

37,85,9,54,24,7,

38,85,9,54,23,9,

37,85,9,54,23,8,

38,84,7,53,24,9,

37,84,8,54,23,9,

37,83,9,53,23,8,

37,83,9,59,27,7,

37,83,7,59,27,9,

36,82,8,58,27,7,

37,82,9,58,26,9,

36,82,9,58,26,9,

36,81,9,57,26,9,

36,81,7,57,25,9,

35,81,9,57,26,7,

35,81,9,57,26,9,

35,79,8,57,26,9,

35,79,8,57,25,8,

35,79,9,56,25,7,

35,79,7,56,25,9,

35,78,7,56,25,9,

35,78,9,56,26,9,

34,78,8,56,25,7,

35,78,8,55,25,9,

34,77,9,55,25,9,

34,77,9,55,25,8,

34,77,7,55,25,8,

34,77,9,54,25,9,

34,76,8,54,25,7,

33,76,9,53,25,9,

33,76,7,53,25,9,

34,76,9,53,24,7,

33,75,7,53,24,7,

33,75,7,53,24,9,

33,74,9,53,24,8,

33,74,8,51,24,9,

33,73,9,53,24,9,

33,73,7,52,24,8,

33,73,7,51,24,9,

33,72,8,51,24,9,

33,71,9,51,24,9,

32,71,7,51,23,9,

31,71,8,51,23,7,

31,71,9,51,24,8,

31,71,7,51,23,7,

31,71,7,51,23,9,

31,70,9,50,23,8,

31,70,8,50,23,9,

31,70,7,50,22,9,

31,70,9,50,22,8,

31,70,9,50,23,9,

30,70,9,49,23,8,

31,69,9,49,22,8,

30,68,7,49,22,9,

30,69,8,49,22,9,

31,68,7,48,22,9,

30,68,9,48,22,9,

30,67,7,49,22,8,

30,67,7,48,22,8,

30,67,9,48,23,9,

30,67,9,48,45,8,

30,67,9,48,56,7,

29,67,7,47,56,7,

30,66,9,47,55,9,

29,65,9,47,55,7,

30,73,9,46,55,9,

29,88,9,46,54,9,

29,88,9,46,54,9,

28,87,8,46,54,9,

29,87,8,46,53,9,

29,86,9,46,53,9,

28,86,9,46,53,8,

28,86,9,45,53,7,

28,85,9,46,51,9,

28,84,8,46,51,7,

28,84,8,45,52,9,

28,84,7,45,52,9,

28,84,9,44,52,9,

28,83,7,44,52,7,

27,83,8,44,51,9,

28,83,7,44,51,9,

27,82,8,44,51,9,

27,82,9,44,51,7,

28,81,7,44,50,9,

27,81,9,44,51,9,

27,80,9,43,50,7,

27,81,7,43,50,8,

27,81,7,43,50,8,

27,80,9,43,49,8,

27,79,9,43,49,9,

26,79,7,42,49,7,

26,78,9,43,49,7,

26,78,8,43,48,7,

26,78,9,42,48,8,

26,77,8,42,48,9,

25,77,7,41,48,7,

25,77,9,41,48,9,

26,77,7,42,48,9,

26,76,9,41,81,10,

26,76,9,41,162,9,

25,76,9,43,162,9,

26,76,8,81,161,9,

25,75,9,79,160,8,

25,75,7,80,159,7,

25,74,9,79,158,7,

25,74,9,79,157,9,

25,74,7,78,156,7,

25,74,9,77,156,7,

24,73,9,78,155,8,

24,72,8,77,154,9,

24,71,8,77,153,7,

24,71,8,76,153,9,

24,71,9,76,152,9,

24,71,7,76,152,9,

24,71,7,75,150,9,

24,71,8,75,150,9,

24,71,9,75,149,9,

24,70,8,75,148,8,

24,70,9,74,147,9,

24,69,9,73,147,8,

24,69,8,73,147,9,

24,69,8,72,146,9,

23,69,9,71,145,9,

23,68,9,73,145,9,

23,68,9,71,143,7,

24,67,9,71,143,9,

23,67,9,71,143,9,

31,69,9,71,143,9,

31,85,9,71,142,9,

31,84,7,71,141,9,

31,84,8,71,140,8,

30,83,9,70,140,9,

31,83,9,70,139,8,

30,83,9,69,139,8,

30,82,9,69,137,9,

31,82,9,69,137,7,

30,81,9,68,135,7,

30,81,7,68,135,9,

30,81,8,68,135,9,

30,81,8,67,135,8,

30,80,9,67,134,9,

30,79,9,67,134,9,

30,79,8,66,133,9,

29,79,7,66,133,7,

29,78,9,66,132,9,

29,78,9,66,132,9,

29,77,9,65,130,9,

28,77,9,65,130,9,

29,78,8,65,130,9,

29,77,9,65,175,9,

28,77,9,65,207,9,

29,76,9,64,205,9,

29,84,9,65,203,9,

28,107,9,63,202,7,

29,107,9,63,201,9,

28,106,9,63,199,7,

28,105,8,63,199,8,

28,105,7,63,198,7,

27,103,7,63,197,9,

27,103,7,62,196,9,

28,103,9,61,195,9,

27,103,9,62,194,9,

28,102,9,62,193,7,

27,102,9,61,192,9,

38,131,9,61,192,9,

37,129,8,60,190,9,

37,127,9,60,189,9,

37,127,9,60,188,9,

37,127,7,60,187,9,

36,126,9,59,186,8,

37,125,9,59,186,9,

36,125,9,59,184,9,

36,124,9,59,184,7,

35,124,9,59,183,9,

35,123,7,58,183,9,

35,122,9,57,181,9,

35,122,9,58,181,9,

35,121,9,57,179,9,

35,121,9,57,179,7,

35,120,9,56,178,8,

34,120,9,56,177,9,

34,119,7,57,176,9,

34,118,9,56,175,9,

34,117,9,56,175,7,

34,117,9,56,174,9,

34,117,8,56,173,9,

33,116,9,56,173,8,

33,115,9,56,172,7,

33,115,8,55,171,9,

33,114,9,54,170,8,

33,114,9,54,169,8,

33,114,9,54,169,9,

33,113,10,54,168,9,

33,113,9,54,167,9,

33,112,9,57,167,9,

33,111,9,57,166,9,

32,111,9,57,166,9,

31,111,9,56,163,9,

34,110,9,56,163,9,

33,110,9,56,163,9,

53,115,10,56,162,9,

76,122,9,55,162,9,

74,121,9,55,161,9,

74,120,9,55,160,9,

74,120,9,54,159,9,

73,120,9,54,159,9,

73,119,9,55,159,9,

72,118,10,54,158,9,

71,118,10,54,157,10,

71,118,9,53,156,9,

71,116,9,54,155,10,

71,116,10,53,155,10,

71,115,10,52,153,9,

70,115,10,52,153,9,

70,114,9,52,152,9,

70,114,9,52,152,10,

69,113,9,51,152,9,

69,112,10,51,151,10,

69,112,9,51,150,10,

69,111,10,51,149,10,

68,111,10,51,149,10,

68,110,9,50,147,10,

67,109,9,50,147,10,

66,109,9,50,146,10,

66,108,9,49,146,9,

66,108,10,49,145,9,

65,107,9,48,143,10,

65,107,10,48,143,9,

65,106,9,48,142,9,

64,106,9,48,142,9,

65,105,10,48,142,9,

63,105,10,48,140,10,

63,103,9,48,140,9,

63,103,10,48,140,9,

63,103,10,48,139,9,

63,103,9,48,139,9,

62,103,10,46,137,9,

62,102,9,47,137,9,

62,102,10,47,136,9,

62,101,9,46,135,9,

61,101,9,47,135,9,

61,99,9,46,134,9,

61,99,9,46,135,10,

60,99,9,46,134,9,

60,99,10,46,134,9,

60,98,10,45,133,9,

60,98,9,45,132,9,

59,97,9,45,131,9,

59,97,9,45,131,9,

59,97,9,44,131,9,

59,96,9,44,130,9,

58,96,9,45,129,9,

58,96,10,44,129,9,

58,95,9,44,129,10,

57,95,9,44,127,9,

57,94,9,43,127,9,

57,94,9,43,127,9,

57,93,9,43,126,9,

57,93,9,43,126,9,

57,93,9,42,125,9,

56,92,10,49,125,9,

56,92,10,65,124,9,

56,91,9,65,124,9,

56,91,9,64,123,9,

55,90,9,63,123,9,

55,90,9,64,123,9,

54,90,9,63,122,9,

55,89,9,63,122,9,

54,89,9,63,121,10,

54,88,9,63,121,9,

54,88,9,63,120,9,

54,88,10,62,120,9,

54,88,9,62,119,9,

53,88,9,61,119,9,

52,88,10,61,118,9,

53,86,9,61,118,9,

52,86,9,61,117,9,

51,85,9,61,118,9,

52,85,9,60,117,9,

52,85,9,60,115,9,

53,85,9,60,115,9,

52,84,9,60,115,9,

51,83,9,59,114,9,

52,83,9,58,114,9,

51,83,9,59,113,9,

51,83,9,58,114,9,

51,83,9,58,113,9,

51,82,9,58,113,9,

51,82,9,57,112,9,

50,81,9,57,112,9,

50,82,9,57,111,9,

50,81,9,57,112,9,

50,81,9,57,110,9,

50,80,9,56,110,9,

49,80,9,56,110,9,

49,80,9,56,109,9,

49,79,9,56,108,9,

49,79,9,94,108,9,

48,79,9,93,108,9,

48,78,9,93,107,9,

49,78,9,92,107,8,

48,78,9,91,106,9,

47,77,10,91,106,9,

47,77,9,90,105,9,

48,77,9,90,105,9,

48,76,9,89,105,9,

47,76,9,89,103,10,

47,76,10,89,103,9,

46,76,9,88,103,9,

46,76,9,88,103,9,

46,75,9,88,103,9,

46,75,9,87,102,9,

46,74,9,88,102,9,

46,74,9,86,102,9,

45,74,9,86,102,9,

45,73,9,86,101,9,

45,73,9,86,100,9,

44,73,9,85,100,9,

45,71,8,84,100,9,

45,86,9,84,99,9,

45,85,9,83,99,9,

44,84,9,83,99,9,

44,84,9,83,98,10,

44,84,9,82,98,9,

44,83,9,82,98,9,

44,83,9,82,97,9,

44,82,8,81,97,9,

43,82,9,81,97,9,

43,82,9,81,96,9,

43,81,9,80,96,9,

43,81,9,80,95,9,

43,81,9,80,96,9,

42,80,9,79,94,9,

42,79,9,79,94,9,

43,80,9,79,94,9,

42,79,9,78,93,9,

42,79,9,79,93,9,

41,79,8,78,93,9,

42,78,9,78,93,9,

42,78,9,77,93,9,

41,78,9,77,93,9,

41,77,9,76,92,9,

41,77,9,77,92,9,

41,77,9,77,91,9,

41,76,8,76,91,9,

41,76,9,76,90,8,

39,76,9,75,90,9,

39,76,9,75,89,9,

39,76,10,75,89,9,

40,75,9,74,89,9,

39,74,8,74,89,9,

39,75,8,74,88,8,

39,74,9,74,89,9,

39,73,9,74,88,9,

39,73,8,73,88,9,

39,73,9,71,87,8,

39,73,9,73,87,9,

39,71,9,71,88,9,

39,71,9,71,87,9,

38,71,8,71,86,9,

39,71,9,71,85,8,

38,71,9,71,86,9,

38,71,8,71,85,9,

38,71,9,71,85,8,

38,71,9,70,84,9,

38,70,9,70,84,9,

38,70,9,70,83,9,

38,70,9,69,84,9,

37,69,9,69,84,9,

37,69,9,69,83,9,

37,69,9,69,83,9,

37,68,9,69,83,9,

37,67,9,68,82,9,

36,67,9,67,82,9,

37,67,9,68,81,9,

37,67,9,67,81,9,

36,67,9,67,81,9,

37,67,9,67,81,8,

36,67,9,67,80,9,

35,66,8,66,79,8,

36,66,9,66,80,9,

35,66,9,65,79,9,

35,66,9,65,79,8,

35,65,9,65,79,9,

35,65,9,65,79,9,

35,65,8,65,78,9,

35,65,9,64,78,9,

35,64,9,64,78,9,

35,65,9,63,77,9,

35,65,9,63,77,9,

35,63,7,63,77,9,

34,63,9,63,77,7,

34,63,9,63,79,9,

34,63,9,63,79,8,

34,62,9,62,78,9,

34,62,9,62,77,9,

34,62,9,62,78,9,

33,62,9,62,77,9,

36,63,10,62,77,9,

54,63,9,62,77,8,

54,63,9,61,77,9,

53,63,9,61,76,9,

53,62,9,61,76,9,

52,62,9,60,76,9,

52,61,8,60,76,7,

52,61,9,60,75,9,

52,61,9,62,75,8,

52,61,9,62,74,9,

51,60,8,63,74,7,

51,60,9,62,75,10,

99,100,9,61,74,9,

97,99,10,62,73,9,

97,98,9,61,73,9,

97,97,9,61,71,9,

96,97,9,60,72,9,

95,96,9,60,71,9,

95,96,9,60,71,9,

95,96,9,59,71,8,

94,95,9,60,71,9,

94,95,9,60,71,9,

93,94,9,60,71,9,

93,94,9,59,71,9,

92,93,9,59,71,9,

92,93,9,58,70,7,

92,93,9,57,70,9,

91,92,9,58,70,9,

91,91,7,58,70,9,

91,91,9,57,70,9,

90,91,9,57,69,9,

89,92,9,57,69,9,

89,90,9,57,69,9,

89,90,9,57,67,9,

88,89,9,56,69,9,

88,89,9,56,68,9,

88,89,9,56,67,9,

88,89,9,55,67,8,

87,88,9,56,67,9,

87,88,7,56,67,9,

86,88,9,55,67,9,

86,87,7,56,67,7,

86,87,9,54,66,9,

85,86,8,55,66,9,

85,86,9,54,66,9,

84,85,9,53,65,9,

84,85,9,54,65,9,

83,85,9,54,64,9,

83,84,9,53,65,9,

83,84,9,53,65,7,

83,83,9,53,64,9,

83,83,8,53,64,9,

82,83,8,53,64,9,

82,83,9,52,63,9,

82,82,9,52,63,9,

81,82,9,52,63,9,

80,82,9,51,63,9,

81,81,9,51,62,9,

80,81,9,51,62,9,

79,81,8,51,63,9,

79,81,9,51,62,7,

79,80,9,51,62,9,

79,79,9,51,62,7,

78,81,9,50,62,8,

79,83,8,50,61,9,

78,83,9,50,61,9,

78,83,8,50,61,9,

77,83,9,50,61,9,

77,82,9,49,61,9,

77,81,7,49,61,9,

76,81,8,49,60,9,

76,81,9,49,60,8,

76,80,9,48,59,9,

76,80,9,49,59,8,

75,79,9,48,59,7,

75,79,8,48,59,9,

75,79,9,48,59,9,

74,79,10,48,59,9,

75,79,9,47,59,9,

74,78,9,48,59,8,

74,78,7,47,58,8,

74,78,7,47,58,9,

74,77,8,47,58,9,

73,77,9,47,57,7,

73,77,8,46,57,8,

73,77,9,46,57,8,

72,77,9,47,57,7,

73,76,9,46,57,8,

71,76,9,46,56,8,

71,75,7,45,56,9,

71,76,9,45,56,9,

71,75,9,46,56,8,

71,75,7,45,56,8,

70,74,9,45,55,8,

70,73,9,45,55,9,

70,73,9,45,56,9,

70,73,9,45,55,9,

69,73,9,44,54,9,

70,73,9,44,63,9,

69,71,9,45,63,9,

69,71,9,44,63,8,

68,71,9,43,63,7,

68,71,9,44,63,9,

67,71,9,43,63,9,

67,70,9,43,62,9,

67,71,7,43,62,8,

67,70,9,43,61,9,

67,70,7,43,62,9,

67,70,9,43,62,9,

67,70,9,93,61,9,

66,69,9,92,61,9,

65,69,7,91,60,8,

65,69,7,91,61,9,

66,68,9,91,60,9,

70,68,8,91,60,9,

70,71,10,89,60,9,

70,89,9,89,60,7,

69,88,8,89,58,9,

70,88,9,89,59,9,

69,87,9,88,59,9,

69,87,9,88,58,7,

68,86,9,87,57,8,

67,85,9,87,58,9,

67,86,7,87,57,7,

67,85,9,87,57,9,

67,85,9,86,57,9,

67,84,9,86,57,8,

67,85,9,85,57,9,

66,84,9,85,56,8,

66,83,9,84,56,9,

65,83,9,84,56,9,

66,83,8,83,56,9,

65,83,9,83,55,7,

65,82,7,83,55,8,

65,82,9,83,56,9,

64,81,9,83,59,9,

65,81,9,83,121,9,

63,81,9,81,135,9,

63,79,8,81,134,8,

63,79,9,81,133,8,

63,79,9,81,132,9,

63,79,9,80,131,9,

62,79,9,80,131,9,

63,78,9,79,130,9,

62,78,8,79,130,9,

62,78,9,79,129,8,

61,77,9,78,129,8,

61,77,9,78,127,9,

61,77,9,78,127,9,

61,76,8,77,127,9,

60,76,9,77,126,9,

60,76,9,77,126,9,

60,76,9,76,124,9,

60,76,7,76,124,8,

60,75,9,76,124,9,

60,75,8,76,123,7,

59,74,9,76,123,9,

59,74,9,75,122,9,

59,73,8,75,121,9,

58,73,9,75,121,9,

58,72,7,75,121,9,

58,73,9,73,120,7,

58,72,8,73,120,9,

57,71,9,73,119,9,

57,71,9,74,119,8,

56,71,9,72,118,9,

57,71,9,73,118,9,

57,90,8,71,117,9,

57,89,9,71,117,8,

56,89,9,71,116,9,

56,89,9,71,115,9,

56,89,7,71,115,9,

56,88,8,71,115,7,

56,88,9,71,113,7,

56,88,8,70,113,9,

56,86,7,71,113,9,

55,87,7,70,113,7,

55,86,7,69,112,9,

54,86,9,69,112,9,

54,85,9,69,111,9,

53,85,9,68,110,9,

53,85,7,67,110,9,

53,84,8,68,110,9,

53,83,9,68,109,9,

53,83,9,67,108,8,

52,83,9,67,109,9,

52,82,8,67,108,9,

53,82,9,67,108,8,

51,81,7,66,107,9,

52,81,9,66,107,9,

51,81,9,66,106,7,

51,79,9,66,106,9,

51,80,9,65,105,9,

51,79,9,65,105,9,

51,79,9,64,105,8,

50,79,10,64,103,9,

51,79,9,64,126,10,

50,78,9,65,149,9,

50,78,9,65,147,9,

50,78,9,65,146,9,

50,78,9,69,146,9,

49,77,7,68,145,9,

49,76,9,68,143,8,

48,76,9,67,143,9,

49,76,9,67,143,8,

49,75,7,67,142,9,

48,76,9,67,142,9,

49,75,9,66,140,7,

48,75,9,66,140,9,

48,75,9,66,140,7,

48,73,9,66,139,9,

48,74,9,65,138,8,

48,74,9,65,137,9,

48,73,9,65,137,9,

47,73,8,64,137,9,

48,71,9,64,135,7,

47,71,9,63,135,8,

46,71,7,63,135,9,

46,71,9,63,134,9,

46,71,9,63,134,9,

46,71,9,62,133,9,

46,71,8,63,132,9,

45,71,7,62,131,9,

45,70,9,62,131,9,

45,70,7,61,130,9,

45,70,7,62,130,9,

45,69,9,61,130,9,

44,69,9,61,129,9,

44,69,9,61,128,9,

44,68,8,60,127,9,

44,68,9,60,127,8,

44,67,9,60,127,9,

44,67,7,60,126,9,

44,67,9,59,125,9,

44,66,9,59,125,9,

43,67,8,59,124,8,

44,66,8,59,124,9,

43,66,9,59,123,9,

43,65,9,58,123,9,

43,66,9,58,122,9,

43,65,9,58,121,9,

43,65,9,57,121,9,

43,64,8,57,121,8,

42,64,8,57,120,9,

42,63,9,57,120,9,

41,63,9,57,120,9,

41,63,9,56,119,9,

41,63,7,56,118,8,

41,63,9,56,118,9,

41,63,9,56,117,8,

41,63,9,64,117,9,

40,62,9,81,116,9,

41,62,9,81,116,9,

39,61,9,79,115,9,

39,61,9,79,115,9,

39,61,9,79,114,9,

39,61,9,79,113,9,

39,61,9,79,113,9,

39,60,9,79,113,9,

39,60,9,78,113,9,

39,60,9,78,112,9,

39,60,8,78,117,9,

78,61,10,78,210,9,

122,59,9,77,224,9,

121,59,9,77,223,9,

120,59,9,77,221,10,

119,93,8,76,220,9,

120,93,9,76,219,9,

118,93,9,76,217,9,

117,92,9,76,216,9,

117,92,9,75,215,9,

115,91,9,75,214,7,

115,92,9,73,213,9,

115,91,8,74,211,9,

115,91,8,73,211,9,

114,90,9,73,209,7,

113,89,9,73,209,7,

113,89,9,71,207,9,

112,89,9,71,206,8,

111,88,9,71,205,9,

111,88,9,71,205,8,

110,87,9,71,204,9,

110,88,8,71,203,8,

109,87,9,70,202,8,

109,86,9,71,199,9,

109,86,9,70,222,9,

109,85,8,70,275,9,

108,85,9,69,273,8,

107,85,9,69,271,9,

107,84,7,69,270,9,

106,84,7,69,268,7,

106,83,9,68,267,9,

105,83,9,68,265,7,

103,83,9,67,263,9,

103,82,9,67,263,9,

103,82,9,67,262,8,

103,81,7,67,259,9,

103,81,9,67,258,9,

103,81,9,67,258,9,

102,81,9,66,255,9,

102,79,9,66,255,9,

101,79,9,65,254,9,

101,79,9,65,252,9,

101,79,9,65,251,9,

100,79,9,65,250,9,

99,78,9,64,249,9,

99,78,9,64,248,9,

99,77,9,63,246,9,

98,77,9,63,245,10,

98,77,9,63,244,9,

97,76,9,63,243,9,

97,76,9,62,242,9,

97,76,10,62,241,9,

96,76,9,62,240,9,

96,76,9,62,238,9,

96,75,9,62,238,9,

96,75,9,61,236,9,

94,74,9,62,236,9,

94,74,8,61,234,10,

94,74,9,61,233,9,

93,73,9,61,232,9,

93,73,9,60,231,9,

92,73,9,60,231,10,

93,71,9,96,230,10,

92,71,10,117,228,10,

92,71,9,115,227,9,

91,71,9,114,227,10,

90,71,9,114,225,10,

90,71,10,113,224,9,

90,71,9,112,223,9,

89,70,9,112,222,10,

89,69,10,111,221,9,

89,70,10,111,220,10,

88,69,9,110,219,10,

88,69,10,110,218,10,

88,68,9,109,217,10,

87,69,10,109,216,10,

86,76,10,108,214,10,

86,74,11,107,214,10,

86,75,9,108,212,10,

85,73,10,106,211,9,

85,73,10,106,211,10,

84,71,11,105,209,10,

84,71,10,105,208,10,

84,71,10,103,207,10,

83,71,10,103,206,10,

83,71,10,103,206,10,

82,86,11,103,205,10,

82,85,10,102,204,10,

82,84,10,102,202,10,

81,84,10,101,201,10,

80,83,10,101,200,10,

80,83,10,99,199,10,

79,83,10,99,198,11,

79,82,11,99,198,10,

79,81,11,99,197,10,

79,81,11,98,196,10,

78,81,10,98,195,11,

78,81,11,98,194,10,

78,79,10,97,194,10,

78,79,10,97,192,10,

77,79,11,96,192,10,

77,78,11,96,191,10,

77,78,10,96,190,10,

77,78,10,95,189,11,

76,77,11,95,188,11,

76,77,10,94,188,10,

89,76,10,94,187,10,

89,76,11,93,186,9,

89,76,11,93,185,10,

89,76,10,92,184,10,

88,76,11,92,183,10,

88,75,11,103,182,10,

86,75,10,103,181,11,

87,74,11,103,180,11,

86,74,10,103,180,10,

85,73,11,102,179,10,

85,73,10,102,178,10,

85,73,10,165,178,10,

84,72,10,192,177,10,

83,71,10,190,176,10,

83,71,10,189,175,10,

83,71,11,188,175,10,

83,71,10,186,173,10,

82,71,11,186,173,12,

82,71,11,184,172,10,

82,70,10,184,172,11,

81,70,10,184,171,11,

81,70,11,182,170,11,

81,70,11,181,169,11,

80,69,11,180,167,11,

79,69,11,179,167,10,

79,68,11,178,167,10,

79,67,12,177,166,11,

79,67,11,177,165,11,

79,67,11,176,165,11,

78,67,11,174,163,12,

77,67,12,174,163,11,

77,67,11,173,162,11,

77,66,11,172,161,11,

76,66,12,171,161,12,

76,66,12,170,159,12,

75,65,12,169,159,12,

76,65,12,167,159,11,

75,64,12,167,158,12,

74,63,11,167,157,12,

74,63,12,166,156,12,

74,63,12,165,156,12,

73,63,12,164,156,12,

73,63,11,163,155,12,

73,62,12,163,153,11,

71,62,12,162,153,12,

71,62,12,161,153,12,

71,62,13,161,152,12,

71,62,12,159,152,12,

71,61,12,159,152,12,

71,61,13,159,150,13,

71,61,13,158,150,12,

71,61,13,157,149,13,

70,60,13,157,148,12,

70,60,13,156,147,13,

70,60,13,155,147,13,

69,60,13,154,146,13,

69,59,13,153,145,13,

68,59,13,153,145,13,

69,59,14,152,144,14,

69,59,14,190,143,14,

69,59,14,198,143,14,

69,58,14,197,151,14,

68,58,14,195,173,14,

67,58,15,195,211,15,

67,57,15,193,210,15,

67,57,15,192,208,15,

67,57,15,191,207,15,

67,67,15,190,206,15,

67,67,15,189,205,15,

66,66,15,188,204,15,

66,66,15,187,203,15,

66,65,16,185,201,15,

65,65,15,185,199,15,

75,65,16,184,199,15,

74,64,15,184,199,15,

74,64,15,182,198,16,

74,63,15,181,196,15,

72,64,15,179,195,15,

71,66,15,178,194,15,

71,65,15,178,193,15,

71,65,15,177,192,15,

71,64,15,176,191,15,

71,64,15,176,190,15,

70,63,14,174,189,15,

69,63,15,175,188,15,

126,63,15,172,187,15,

125,62,15,172,185,15,

124,63,15,171,184,14,

123,62,15,170,184,15,

122,62,15,169,183,14,

121,61,15,167,183,15,

121,61,14,167,181,14,

121,61,15,167,180,15,

120,60,15,166,179,14,

119,60,14,165,178,15,

119,60,15,165,246,14,

119,60,15,163,291,15,

117,60,14,164,301,14,

116,60,14,163,298,14,

115,59,14,162,295,14,

115,59,14,161,294,14,

115,58,14,160,291,14,

113,58,14,159,291,14,

113,58,14,159,288,14,

112,57,14,158,287,14,

112,57,14,157,285,14,

112,57,14,157,284,14,

111,57,14,156,282,14,

111,56,14,155,280,14,

110,56,13,154,279,13,

110,56,14,154,277,14,

109,56,14,153,275,13,

108,56,14,152,274,14,

108,56,14,152,271,13,

108,55,14,151,271,14,

107,55,13,150,269,13,

107,54,14,150,268,14,

105,54,13,148,266,13,

105,54,14,148,265,13,

103,54,14,147,263,14,

103,54,13,146,262,13,

103,54,14,146,261,13,

103,53,13,145,259,14,

102,52,14,144,257,13,

102,53,13,144,255,13,

102,52,13,143,254,13,

101,51,14,143,253,14,

100,52,14,142,252,14,

100,51,13,141,251,14,

99,52,14,140,249,13,

99,51,13,140,248,13,

99,51,13,140,247,13,

98,51,13,139,246,14,

97,51,13,137,245,14,

97,50,13,137,243,14,

96,50,13,136,242,14,

96,49,13,135,240,14,

96,49,13,135,239,13,

95,50,13,135,238,13,

96,55,14,134,237,13,

95,56,13,134,236,13,

94,55,14,134,235,13,

94,55,13,133,233,13,

94,55,13,132,231,13,

93,54,13,131,231,13,

93,54,13,130,230,13,

92,53,13,130,229,13,

92,53,13,130,227,13,

92,53,13,130,227,13,

91,54,14,129,226,14,

91,52,13,127,224,13,

90,53,13,127,224,14,

89,52,13,127,222,13,

89,51,13,126,221,13,

89,51,13,126,220,13,

88,51,13,125,220,13,

89,51,13,125,217,13,

89,51,13,124,217,13,

88,51,13,124,216,13,

88,50,13,122,215,13,

88,50,13,124,214,13,

88,60,12,124,213,13,

87,59,13,123,211,13,

86,60,12,122,211,13,

86,59,13,121,210,13,

86,59,13,121,209,13,

84,58,13,120,207,13,

85,58,12,120,207,13,

84,57,13,119,206,13,

83,57,13,120,205,13,

83,57,13,119,204,13,

83,69,12,118,203,13,

82,69,13,117,203,13,

82,68,12,117,201,13,

82,68,12,116,199,12,

81,67,12,115,199,13,

81,67,13,115,198,12,

80,66,13,115,197,13,

80,66,13,114,196,13,

79,67,12,114,196,13,

79,65,13,113,195,13,

79,65,12,113,194,13,

79,65,12,112,193,12,

79,71,14,184,193,12,

78,70,13,246,191,13,

78,69,12,243,190,13,

78,69,12,242,192,12,

77,68,13,240,190,12,

77,68,12,238,189,12,

76,68,12,237,188,12,

76,67,12,236,188,13,

76,67,12,234,187,13,

76,67,12,231,187,13,

75,66,13,231,185,12,

75,66,12,231,184,12,

74,66,13,229,184,12,

73,65,12,228,183,12,

73,65,13,227,182,13,

73,64,12,226,188,12,

73,65,13,225,307,12,

71,64,12,224,307,12,

71,63,12,223,305,12,

71,63,12,222,303,12,

71,63,12,221,301,12,

71,63,12,219,300,12,

71,63,12,217,297,12,

70,63,12,217,295,12,

71,62,12,216,294,12,

70,62,12,214,292,12,

69,61,12,214,291,12,

69,61,12,213,289,12,

71,61,12,211,287,12,

71,61,12,210,286,12,

71,60,12,209,284,12,

71,88,12,209,283,12,

96,91,12,207,281,12,

96,91,12,206,280,12,

95,90,11,205,278,12,

94,89,12,205,277,12,

94,89,12,203,275,11,

93,89,12,202,274,12,

93,88,12,201,271,12,

92,88,11,199,270,12,

92,88,12,199,269,12,

91,88,12,199,268,12,

91,86,11,198,267,12,

91,86,12,198,265,12,

90,86,13,197,263,12,

90,85,12,195,263,12,

89,85,12,195,261,12,

89,83,12,193,259,12,

89,84,12,193,259,12,

88,83,13,192,257,12,

88,83,12,191,255,12,

88,82,12,190,255,12,

86,83,13,189,253,12,

87,83,12,189,252,12,

85,82,12,187,251,12,

85,81,13,186,249,12,

85,81,12,185,248,12,

84,81,12,184,247,12,

85,80,13,184,246,12,

84,80,12,184,245,13,

83,79,13,183,243,13,

83,79,13,181,242,13,

82,79,13,181,241,12,

82,81,13,179,239,13,

82,81,13,179,238,13,

81,80,13,178,237,13,

81,80,13,177,236,12,

80,79,13,177,234,13,

79,79,13,175,233,13,

79,79,13,175,232,13,

79,79,13,174,231,13,

79,78,13,173,231,13,

78,78,13,173,229,13,

79,77,13,172,228,12,

78,77,13,171,227,13,

78,76,13,170,226,13,

77,76,13,169,225,13,

77,76,13,169,223,13,

77,75,13,167,222,13,

76,75,13,167,221,13,

76,74,13,166,221,13,

76,74,13,166,220,13,

75,74,13,165,218,13,

75,73,13,164,217,13,

75,73,13,163,216,13,

73,73,13,163,216,13,

73,73,13,162,214,13,

73,71,13,161,213,13,

73,71,13,159,212,13,

72,71,13,159,211,13,

71,71,13,159,210,13,

71,71,13,158,209,13,

71,71,13,158,208,12,

71,70,13,157,207,13,

71,69,13,156,206,13,

71,70,14,157,206,13,

76,133,13,155,204,13,

76,131,13,155,204,13,

75,130,13,153,203,13,

75,130,13,153,201,13,

74,129,12,152,199,13,

73,128,12,151,199,13,

73,127,13,151,198,12,

72,127,12,150,197,13,

71,126,13,242,196,12,

71,125,12,239,195,12,

71,124,12,237,194,12,

71,123,12,236,193,13,

71,123,12,234,192,12,

70,122,12,231,192,12,

69,121,12,231,190,12,

70,121,12,230,189,12,

69,121,12,228,188,12,

68,120,12,227,188,12,

69,120,12,226,187,12,

69,119,12,225,186,12,

68,117,12,224,185,12,

67,117,12,223,184,12,

68,117,12,221,184,12,

67,115,12,220,183,12,

67,115,12,219,183,12,

67,114,12,218,182,12,

67,114,12,216,180,12,

66,114,12,216,179,12,

65,113,12,214,179,12,

65,112,12,213,179,12,

65,111,12,212,177,12,

65,111,12,211,176,12,

64,110,12,210,176,12,

64,110,11,209,176,12,

63,109,12,207,174,11,

63,109,12,207,174,12,

63,109,12,206,173,12,

63,108,12,205,172,12,

63,108,13,204,171,13,

63,107,12,203,170,12,

62,106,12,202,169,12,

62,106,12,200,169,12,

62,105,12,199,169,12,

62,105,12,199,167,12,

61,103,12,198,167,12,

61,103,12,197,166,12,

61,103,12,195,165,12,

60,103,12,195,164,12,

60,102,11,194,163,12,

61,102,12,193,163,12,

60,101,12,192,162,12,

60,100,12,192,162,12,

63,101,12,190,160,12,

63,100,12,189,159,12,

63,99,12,188,159,12,

63,99,11,187,159,12,

62,98,12,187,158,12,

62,98,11,185,157,12,

61,98,12,184,156,12,

61,97,12,184,156,12,

61,97,11,184,155,12,

61,96,12,182,154,11,

60,96,12,182,153,12,

60,96,11,181,153,12,

60,95,12,179,152,11,

59,94,12,179,152,11,

59,93,11,178,150,11,

59,93,11,177,150,12,

57,93,12,176,150,11,

57,92,12,176,148,11,

57,92,11,175,147,12,

57,91,12,174,147,12,

57,91,11,173,146,11,

57,90,11,172,146,11,

57,90,11,171,146,12,

56,89,12,171,145,11,

57,89,11,170,166,11,

56,88,11,169,163,11,

55,88,10,167,163,11,

56,88,12,167,162,11,

56,88,11,167,161,11,

55,88,11,166,159,11,

56,86,11,165,159,11,

54,86,11,165,159,11,

54,86,11,163,158,11,

54,85,11,163,157,10,

54,85,11,162,156,10,

53,85,11,161,156,12,

53,84,11,160,155,10,

53,83,11,159,153,11,

53,83,11,159,153,11,

63,83,10,159,152,11,

63,82,11,158,151,11,

63,82,11,157,151,11,

63,82,10,156,150,11,

62,82,11,156,150,11,

62,81,10,154,147,11,

61,80,11,154,147,10,

61,79,10,153,146,10,

61,79,10,152,146,10,

60,79,10,152,145,10,

60,78,10,152,144,11,

60,78,10,151,143,11,

60,122,10,150,142,10,

59,121,11,150,143,10,

59,121,10,149,141,10,

58,120,11,148,141,10,

59,119,11,147,140,10,

57,118,10,147,140,10,

57,118,10,146,140,10,

57,117,10,145,139,10,

57,116,10,144,138,10,

56,115,10,143,137,10,

56,115,10,143,136,11,

57,116,11,143,135,11,

56,115,10,142,135,10,

56,115,10,141,135,11,

56,115,10,141,134,10,

55,114,10,141,133,10,

56,113,10,140,133,10,

55,113,10,139,133,10,

55,111,10,138,131,10,

54,111,10,137,132,10,

54,111,10,137,131,10,

54,110,9,135,130,10,

53,110,10,135,130,10,

53,109,9,135,129,10,

53,108,10,134,129,10,

53,108,10,167,130,10,

52,107,11,166,131,10,

52,107,9,163,136,10,

51,106,11,163,185,11,

51,105,10,162,238,10,

51,105,10,161,236,10,

51,104,10,160,234,10,

51,103,9,159,233,10,

51,103,10,159,231,10,

50,103,9,159,230,10,

50,103,10,157,229,10,

50,102,10,156,227,10,

50,101,10,156,226,9,

49,101,10,155,225,10,

49,99,10,154,224,10,

49,100,10,154,223,10,

49,99,10,153,221,10,

49,99,10,152,220,10,

48,98,10,152,219,10,

48,98,10,151,217,9,

47,97,9,149,217,10,

48,97,10,149,215,10,

48,96,10,148,215,10,

47,96,10,147,213,11,

48,96,10,147,212,10,

47,95,10,146,211,10,

46,95,10,145,210,10,

46,94,9,145,209,10,

49,93,10,143,207,10,

48,92,9,142,206,9,

47,92,9,142,205,9,

48,92,9,141,204,10,

46,92,9,140,203,9,

46,91,8,140,202,9,

47,90,9,140,201,9,

46,90,9,139,199,9,

46,89,9,138,199,9,

46,89,9,137,199,9,

46,89,10,137,197,9,

45,89,9,135,196,9,

45,88,8,135,196,9,

45,87,9,135,194,9,

45,87,9,135,194,9,

45,87,9,134,193,9,

45,87,9,134,192,9,

44,86,9,133,191,9,

45,86,9,133,191,9,

43,85,9,132,189,9,

43,85,9,131,189,9,

44,84,9,131,188,9,

43,83,9,130,187,9,

44,84,7,130,187,9,

43,83,9,129,185,9,

43,83,9,129,184,9,

42,82,9,128,184,8,

42,82,9,128,183,9,

43,82,9,127,182,9,

42,81,9,127,181,9,

42,81,9,126,181,8,

41,81,9,126,180,9,

42,80,9,126,179,9,

41,81,9,125,178,9,

42,79,9,124,178,9,

41,79,9,124,177,9,

41,79,9,124,176,10,

41,79,9,124,176,9,

39,79,9,123,175,9,

39,78,9,122,174,9,

41,78,9,122,174,9,

39,78,9,121,172,9,

39,77,9,121,172,9,

39,77,9,121,171,9,

39,76,9,120,170,9,

39,76,9,120,169,9,

39,76,10,119,169,9,

39,76,9,119,167,10,

39,76,10,119,167,9,

39,75,9,118,179,9,

39,75,9,117,193,9,

39,75,9,118,192,9,

39,74,9,117,190,9,

39,74,9,116,189,9,

39,73,10,115,188,9,

38,71,9,115,188,9,

38,73,9,115,186,9,

38,73,9,115,186,9,

38,71,9,114,184,9,

38,71,9,114,184,10,

37,71,9,113,182,9,

36,71,9,112,181,9,

37,71,9,112,180,9,

36,71,9,111,180,9,

37,70,9,111,179,9,

37,70,9,110,177,9,

36,69,7,110,177,9,

35,68,9,110,176,9,

35,69,9,109,176,9,

35,67,9,109,176,9,

35,68,9,109,174,9,

35,68,9,108,173,9,

35,67,8,108,172,9,

35,67,9,108,171,8,

35,67,9,107,170,8,

35,67,9,107,195,9,

35,67,9,152,248,9,

35,66,9,184,263,9,

34,66,9,182,263,9,

34,65,9,181,261,9,

34,65,7,180,259,9,

34,64,9,178,258,9,

33,65,8,178,257,9,

34,65,9,177,255,9,

33,64,9,176,254,9,

33,63,9,176,253,9,

34,64,9,263,252,9,

34,63,9,282,323,10,

33,63,7,279,387,9,

32,63,7,278,385,9,

32,63,9,275,383,9,

32,62,9,275,380,9,

32,63,9,272,377,8,

32,62,9,271,375,9,

31,62,9,270,373,9,

31,62,9,268,371,9,

31,61,9,268,368,9,

31,61,9,265,367,7,

31,60,9,263,364,9,

31,60,9,263,362,9,

31,60,9,262,359,9,

31,60,9,261,359,9,

31,60,9,259,357,9,

30,60,7,258,354,9,

31,59,9,257,353,9,

51,59,9,255,350,9,

51,59,9,254,349,9,

51,58,9,253,347,7,

51,58,9,252,345,9,

50,57,9,251,344,9,

51,57,9,249,341,9,

50,57,9,248,340,8,

49,57,9,247,337,8,

49,56,9,246,335,7,

49,57,9,244,334,9,

49,57,9,243,332,9,

49,57,9,242,331,9,

48,56,7,241,329,9,

48,56,9,240,327,9,

48,56,9,240,326,9,

48,56,9,239,324,9,

48,56,10,238,323,10,

49,56,10,237,322,10,

48,56,9,236,319,10,

48,56,10,235,318,9,

47,56,10,233,317,10,

47,55,9,231,316,9,

47,55,10,231,314,10,

48,55,10,230,312,10,

47,54,9,230,310,9,

46,53,9,228,309,9,

46,54,10,227,307,10,

46,53,10,226,306,10,

47,53,9,225,304,10,

46,53,10,224,302,10,

46,52,10,222,301,10,

45,53,10,222,299,10,

45,53,9,221,298,10,

45,52,9,220,296,10,

44,52,9,219,295,9,

45,52,10,218,293,10,

45,52,10,216,292,10,

44,51,10,216,291,10,

44,51,10,216,289,10,

44,50,9,214,287,10,

43,50,10,212,286,10,

43,50,10,211,285,10,

43,50,10,211,284,9,

43,50,10,210,282,9,

42,50,10,209,281,9,

42,49,10,207,279,10,

42,49,9,207,278,9,

42,49,10,206,276,9,

41,48,9,205,275,9,

41,49,9,204,273,9,

41,48,10,203,273,10,

41,48,10,203,271,10,

41,48,10,201,270,10,

41,48,9,201,268,10,

40,48,9,199,268,10,

39,47,9,199,266,9,

39,47,10,198,265,9,

39,47,9,197,263,10,

39,47,9,195,263,10,

39,46,9,195,261,9,

39,46,9,194,259,9,

39,46,9,193,259,9,

39,46,10,193,257,10,

39,46,9,192,255,10,

39,46,9,191,255,9,

38,45,9,191,254,10,

38,45,10,190,253,9,

38,45,9,189,252,10,

38,45,10,188,251,9,

38,44,9,187,249,9,

38,44,9,187,248,9,

38,44,9,186,248,9,

37,44,9,185,247,9,

38,43,10,184,245,9,

37,43,9,184,244,9,

37,43,10,183,242,9,

37,43,9,182,242,9,

36,43,9,181,241,10,

36,42,9,180,240,10,

35,43,9,180,239,10,

36,43,10,179,237,9,

35,43,10,178,236,10,

35,43,9,177,237,9,

36,43,10,176,236,9,

35,42,10,176,234,9,

35,43,9,175,233,10,

35,41,9,174,231,9,

35,43,9,174,231,10,

35,42,9,173,230,9,

34,41,10,173,229,10,

35,78,9,171,228,9,

34,87,10,171,227,9,

34,86,10,169,225,9,

34,86,9,169,225,9,

34,85,10,168,224,9,

34,85,10,167,223,10,

34,84,10,167,222,9,

34,83,10,167,221,10,

33,83,9,166,220,9,

33,83,9,165,219,9,

33,83,9,164,219,9,

33,82,9,164,217,10,

33,82,9,163,216,9,

33,81,10,162,216,10,

32,81,9,162,215,9,

32,80,9,161,214,9,

31,79,9,160,212,10,

31,80,9,159,212,10,

31,79,9,159,211,9,

31,79,9,159,211,9,

31,78,10,158,209,9,

31,78,9,157,208,10,

31,78,10,157,207,9,

31,77,9,157,206,9,

31,77,9,156,205,9,

31,76,9,156,205,10,

31,76,9,154,204,10,

31,76,9,153,203,10,

30,76,9,153,202,9,

30,75,10,152,201,9,

30,75,9,152,201,9,

30,74,9,151,199,9,

30,74,9,151,199,9,

30,74,10,150,198,9,

30,93,9,150,197,9,

29,96,9,149,196,9,

29,96,9,148,195,10,

29,95,9,147,195,9,

29,94,9,147,194,10,

29,93,9,146,193,9,

29,94,9,146,193,9,

28,93,9,145,192,9,

29,93,10,145,191,10,

