
28,39,7,55,33,8,

28,39,8,56,33,8,

28,39,7,56,33,7,

27,39,7,55,32,7,

28,38,7,54,31,8,

27,38,8,54,32,7,

27,38,7,54,31,9,

27,38,8,54,31,8,

27,38,8,53,31,7,

27,39,9,53,31,8,

27,39,8,53,31,9,

27,39,7,53,31,7,

27,39,7,52,31,8,

27,39,7,52,31,9,

27,39,8,52,31,7,

26,39,7,51,31,7,

25,38,8,51,31,8,

26,38,7,51,32,7,

26,39,9,51,46,7,

26,38,7,51,45,7,

25,38,7,51,45,7,

25,38,7,51,45,8,

25,38,7,51,45,7,

25,43,9,50,45,7,

25,44,8,50,44,7,

25,44,9,50,44,7,

25,44,7,50,44,7,

25,43,8,50,44,7,

25,44,7,49,43,7,

24,43,8,49,43,7,

24,44,8,49,43,8,

25,43,7,48,43,8,

24,42,7,48,43,7,

27,43,7,48,42,8,

28,42,7,48,42,7,

28,42,7,48,42,8,

27,41,8,48,42,7,

27,46,7,47,42,7,

27,45,7,48,41,7,

27,45,8,48,41,7,

27,45,8,47,41,8,

27,45,7,47,40,7,

27,45,8,47,41,8,

27,44,8,46,39,8,

26,45,8,46,39,7,

26,44,7,46,39,7,

26,44,7,46,39,7,

26,44,7,46,39,8,

25,44,8,46,39,8,

26,44,7,46,39,8,

25,44,7,45,39,7,

25,44,7,45,39,7,

25,44,7,44,39,8,

25,43,8,44,39,8,

25,43,7,45,39,8,

25,43,7,44,38,7,

25,43,9,44,39,7,

25,42,8,45,39,7,

25,42,7,44,38,7,

25,42,7,44,38,7,

24,42,7,44,38,8,

25,47,8,44,38,8,

24,49,8,43,38,7,

25,48,8,43,37,7,

25,47,7,42,37,8,

24,47,7,43,37,7,

24,47,7,42,37,7,

24,47,7,42,36,7,

24,47,7,42,37,8,

24,47,7,42,37,7,

24,46,7,41,36,8,

23,46,7,41,36,7,

24,46,7,41,36,7,

24,45,8,41,36,7,

24,46,9,41,36,7,

24,45,7,40,35,8,

24,45,7,41,36,7,

23,45,7,39,35,7,

24,44,7,39,35,8,

23,45,9,39,35,7,

23,44,7,39,35,7,

23,44,7,39,35,8,

23,44,7,39,35,7,

22,44,7,39,35,7,

22,44,7,39,34,7,

23,43,8,39,35,7,

30,44,7,39,34,8,

29,43,7,39,34,7,

30,43,7,38,34,7,

29,43,7,39,33,7,

29,42,9,39,33,7,

29,42,7,38,33,7,

29,42,7,38,33,9,

29,43,7,37,33,7,

28,42,7,39,32,7,

29,41,8,38,37,8,

28,42,7,38,63,8,

29,41,8,37,63,7,

29,41,7,37,62,7,

28,41,7,38,62,8,

28,42,8,37,62,8,

28,46,7,36,61,7,

28,46,7,36,61,8,

28,46,7,36,60,7,

28,46,8,36,61,8,

28,46,7,36,61,7,

27,46,7,36,60,7,

27,46,7,36,60,7,

27,45,7,35,59,7,

27,44,7,35,59,7,

26,44,7,35,58,7,

27,45,7,35,59,7,

27,45,7,35,58,7,

27,44,7,35,58,8,

26,44,7,35,58,7,

26,47,7,34,58,7,

26,48,7,34,57,7,

26,47,8,34,57,7,

26,47,7,34,57,7,

26,47,7,34,56,8,

25,47,8,34,56,8,

25,46,7,34,56,7,

25,46,9,33,57,7,

25,46,8,34,56,8,

25,45,7,33,56,7,

25,45,7,33,57,8,

25,45,8,33,56,7,

25,45,8,33,56,8,

25,45,7,33,55,9,

25,45,7,33,56,7,

25,44,7,32,54,7,

25,45,7,33,55,8,

24,44,8,33,54,8,

25,44,7,33,55,7,

24,44,7,32,54,7,

24,44,7,31,54,8,

24,43,8,31,54,7,

30,44,7,31,54,7,

31,43,8,32,54,7,

31,43,9,31,53,9,

31,43,7,31,53,7,

31,42,7,31,53,8,

31,43,7,31,52,7,

31,42,8,31,52,8,

31,42,7,31,52,7,

30,42,7,30,52,7,

30,41,8,30,51,8,

30,41,7,30,51,8,

30,41,7,30,51,7,

30,41,7,30,51,8,

29,41,9,31,51,7,

29,41,7,30,51,7,

30,41,7,30,50,9,

29,60,7,30,50,7,

29,60,7,29,50,8,

29,60,8,29,50,7,

29,59,7,30,49,7,

29,59,9,30,49,7,

28,59,7,30,49,7,

29,58,7,30,49,7,

28,59,7,29,49,7,

28,57,7,29,48,8,

28,58,7,29,48,8,

28,57,7,28,48,7,

28,57,8,29,48,7,

28,57,7,29,47,7,

28,57,7,28,48,7,

28,57,7,29,47,7,

28,57,8,28,48,8,

28,56,7,29,47,7,

27,56,7,29,46,7,

28,56,8,28,46,8,

27,56,7,28,46,9,

27,56,7,28,46,7,

27,56,7,28,46,8,

27,55,9,28,46,8,

27,54,7,27,45,7,

27,54,7,28,45,7,

26,54,7,28,45,7,

26,55,7,27,45,7,

26,55,7,28,45,7,

26,54,7,27,44,9,

26,55,7,27,44,7,

26,54,7,26,44,7,

25,54,7,27,44,8,

25,53,7,26,44,7,

25,53,8,26,43,7,

26,52,7,27,43,7,

25,52,7,27,43,7,

25,52,7,26,43,7,

25,52,8,26,44,7,

25,53,7,28,43,7,

25,52,7,28,43,7,

25,51,7,28,42,7,

25,51,7,30,43,9,

25,51,7,31,42,7,

25,51,8,31,42,7,

25,51,8,31,41,7,

24,50,8,31,41,9,

24,51,8,31,41,7,

24,50,7,31,41,8,

24,50,7,31,41,7,

24,50,7,30,40,8,

24,50,7,30,39,7,

25,49,7,31,39,7,

24,49,8,30,40,7,

24,49,7,30,39,8,

24,50,8,29,39,7,

23,49,7,30,39,7,

24,49,7,29,39,7,

24,49,7,29,39,7,

24,48,7,29,39,8,

23,49,7,29,39,7,

23,48,8,30,39,7,

24,48,7,29,38,8,

23,47,7,29,39,7,

23,48,7,29,38,7,

22,47,7,29,38,7,

22,48,8,28,38,8,

22,50,7,29,38,7,

22,51,8,29,38,8,

22,50,8,28,38,8,

22,50,8,28,37,7,

22,50,7,28,37,8,

22,50,8,28,38,7,

22,50,7,27,37,8,

22,50,7,28,37,7,

21,49,8,28,37,7,

22,49,7,27,36,7,

21,49,8,27,37,8,

22,49,8,27,36,8,

21,49,7,27,36,7,

21,49,7,27,36,8,

21,51,9,35,35,8,

21,50,7,35,35,8,

21,50,7,35,36,7,

21,50,7,34,35,7,

21,50,9,35,35,7,

21,49,8,34,35,7,

21,49,7,34,36,7,

21,50,7,34,35,8,

21,49,7,33,35,7,

21,48,7,33,35,7,

21,49,7,33,35,7,

20,49,7,33,35,7,

20,48,7,33,35,7,

19,51,8,33,34,7,

20,51,7,33,34,9,

20,51,8,32,33,7,

19,50,7,33,34,8,

19,50,7,32,34,7,

19,50,8,32,33,7,

20,50,7,32,34,7,

19,50,8,33,34,7,

19,49,7,31,34,7,

19,49,7,32,34,7,

20,49,8,31,34,7,

19,49,7,31,34,7,

20,51,7,31,34,7,

19,73,7,31,33,8,

19,73,7,31,34,7,

19,71,8,31,34,8,

19,71,8,31,34,7,

19,71,7,31,32,7,

19,71,7,30,33,7,

19,71,7,30,33,8,

18,71,8,30,35,8,

19,70,8,31,37,7,

18,71,9,31,37,8,

19,71,7,70,36,7,

19,70,7,71,37,9,

19,70,9,70,36,7,

19,71,7,70,36,7,

18,71,8,70,36,8,

18,70,8,69,35,7,

18,70,7,69,36,7,

18,70,7,69,35,7,

18,69,8,68,35,8,

18,69,8,67,35,7,

18,69,9,67,58,7,

18,68,7,67,71,7,

17,68,8,67,70,7,

18,67,7,66,70,7,

17,67,7,66,69,7,

18,67,7,66,69,7,

18,67,7,65,69,7,

17,67,7,66,67,8,

18,67,7,65,68,8,

17,67,7,65,67,7,

17,66,9,64,67,7,

19,66,7,64,67,7,

20,65,7,63,67,7,

22,65,7,63,66,8,

22,65,8,63,66,8,

22,64,7,63,66,7,

22,63,7,63,65,7,

22,64,7,62,66,8,

22,63,7,62,65,7,

21,63,8,62,64,7,

21,63,7,62,64,7,

22,63,8,61,63,7,

22,63,7,61,63,7,

21,62,7,61,63,8,

21,62,8,61,63,8,

21,61,7,61,63,8,

21,61,7,61,63,7,

21,61,8,60,63,7,

21,61,8,59,62,9,

21,61,7,60,62,7,

21,61,8,63,62,7,

20,69,7,63,61,8,

21,69,7,62,61,7,

20,69,8,62,61,7,

20,69,8,62,61,7,

20,68,8,61,60,9,

20,68,8,61,60,7,

20,67,7,61,60,7,

20,67,7,60,60,9,

19,67,7,61,59,8,

19,67,7,60,59,8,

20,66,7,60,59,8,

21,66,7,60,59,8,

20,66,7,59,59,8,

21,65,8,59,58,7,

21,65,8,59,57,7,

21,65,7,58,57,7,

21,65,7,59,57,8,

20,65,8,59,57,8,

20,64,7,58,57,7,

19,63,7,58,57,7,

20,63,7,57,57,7,

19,63,7,57,56,7,

19,63,7,57,56,7,

19,63,8,57,56,7,

19,62,7,56,56,7,

19,62,7,56,56,7,

20,62,7,56,56,8,

20,63,8,56,56,7,

19,63,7,56,55,8,

19,62,9,56,55,7,

19,62,7,56,54,7,

19,62,7,56,54,8,

19,61,7,55,54,7,

19,61,7,55,54,7,

19,61,9,54,53,8,

19,61,7,54,53,8,

19,61,7,54,53,7,

19,60,7,53,53,8,

19,59,7,53,53,8,

19,60,7,53,52,7,

19,60,7,53,52,7,

19,59,8,53,52,7,

18,59,7,52,51,7,

19,59,8,52,51,8,

19,59,8,52,51,7,

18,58,7,51,51,7,

18,57,7,52,51,7,

18,57,8,52,52,8,

19,57,8,51,56,8,

19,57,7,51,56,7,

18,57,7,51,56,7,

18,67,7,51,56,9,

18,75,9,51,56,7,

18,99,8,50,54,7,

18,99,8,50,54,7,

18,97,7,50,54,7,

18,97,7,49,53,7,

18,96,9,49,54,8,

18,96,7,50,53,8,

18,96,7,49,53,7,

18,95,8,50,53,9,

27,95,8,49,53,7,

27,94,8,49,53,8,

27,94,8,48,51,7,

28,94,8,48,51,7,

27,93,7,48,52,9,

27,97,8,48,51,8,

27,97,7,48,51,7,

27,97,7,47,51,8,

25,96,7,47,51,7,

27,96,7,47,51,8,

27,95,8,47,51,7,

27,95,8,46,50,8,

26,95,8,46,50,9,

25,94,8,46,49,8,

26,93,7,46,49,9,

25,93,8,46,49,7,

25,93,9,46,49,7,

25,92,8,46,49,7,

25,115,9,46,49,7,

24,115,7,45,48,8,

25,115,8,45,48,7,

25,114,8,45,48,7,

24,114,7,44,47,7,

25,113,8,45,48,7,

25,112,7,44,48,7,

25,112,8,44,47,7,

24,112,7,44,47,7,

24,111,8,44,47,8,

24,110,7,44,47,8,

24,112,8,44,47,7,

24,112,8,44,46,8,

24,111,7,43,46,7,

24,111,7,43,46,7,

24,111,7,43,45,7,

24,110,7,42,46,7,

24,110,7,42,45,7,

24,109,7,41,45,7,

24,109,7,42,45,7,

39,108,8,42,44,7,

46,108,7,42,45,8,

45,107,8,41,44,7,

45,107,7,41,45,8,

45,107,7,41,44,7,

44,106,7,41,44,8,

44,105,7,41,44,7,

44,105,7,40,43,8,

43,103,8,39,43,7,

43,103,7,40,43,7,

44,103,8,39,43,7,

43,103,7,39,43,7,

42,103,7,39,43,7,

81,103,8,39,43,9,

113,102,7,40,42,7,

112,101,7,39,42,8,

111,101,8,39,42,7,

110,101,8,39,41,9,

109,100,8,39,41,8,

109,99,7,39,41,7,

109,99,8,38,41,7,

108,99,8,38,41,7,

108,98,7,38,39,8,

107,98,7,39,41,7,

107,98,9,38,39,9,

106,97,9,38,40,7,

105,96,7,37,39,7,

104,96,7,37,39,8,

103,96,7,37,39,7,

103,96,8,37,39,8,

103,96,7,37,39,7,

103,94,9,37,39,7,

103,94,7,37,39,7,

102,94,8,36,39,9,

101,93,7,37,39,8,

101,93,8,36,38,8,

101,92,7,35,38,7,

100,92,7,35,38,7,

99,92,7,35,38,7,

99,92,9,35,38,7,

99,103,8,35,38,7,

99,105,7,35,37,7,

98,105,7,35,38,7,

98,103,7,35,37,7,

97,103,8,34,37,9,

97,103,7,35,36,8,

96,103,7,35,37,8,

96,103,7,34,37,8,

96,102,7,34,38,7,

95,102,7,34,39,7,

101,101,7,34,38,8,

101,101,7,34,38,8,

99,100,7,33,37,7,

100,99,7,33,37,7,

100,100,7,67,37,7,

98,99,8,67,37,7,

98,99,8,67,38,7,

98,99,7,66,36,8,

97,98,7,66,36,8,

97,98,8,66,37,7,

96,97,8,65,37,7,

96,97,7,65,37,7,

113,97,7,65,35,7,

113,96,7,65,36,7,

113,96,8,64,36,9,

112,95,7,64,36,8,

112,95,7,89,35,7,

111,94,7,88,35,8,

111,94,9,88,35,7,

110,94,7,88,35,9,

109,93,8,87,35,8,

108,93,7,87,35,7,

109,92,8,86,35,8,

108,92,7,86,35,7,

108,91,8,86,34,7,

107,92,7,85,34,7,

107,91,8,84,33,8,

106,90,7,84,34,7,

105,90,7,83,33,7,

105,90,7,83,33,7,

105,89,8,83,33,7,

103,89,8,82,33,9,

103,88,8,82,33,7,

103,88,7,81,33,8,

103,88,7,81,33,7,

102,88,8,81,33,7,

102,88,9,80,69,8,

101,87,8,81,80,7,

101,86,7,79,79,7,

100,85,7,79,79,7,

100,85,9,79,79,9,

99,92,7,79,78,7,

99,99,7,79,78,7,

98,99,7,78,77,8,

98,99,8,78,77,7,

97,98,9,78,77,8,

97,97,7,78,76,7,

97,96,7,77,76,7,

96,96,8,77,76,7,

96,96,9,77,75,7,

96,96,8,77,75,7,

96,96,9,76,75,7,

95,95,8,76,74,8,

95,94,7,75,74,9,

94,94,7,76,73,8,

94,95,7,75,73,7,

94,94,8,74,73,7,

93,94,7,74,72,8,

92,93,7,74,71,7,

92,92,7,73,71,7,

92,92,7,73,71,7,

92,92,8,73,71,7,

91,92,7,73,71,8,

91,91,7,71,71,7,

90,91,7,72,71,9,

91,91,8,71,70,8,

89,90,7,71,70,7,

89,89,8,71,70,7,

89,89,7,71,69,8,

89,89,7,70,68,7,

89,88,7,70,69,7,

88,88,7,70,68,8,

88,89,7,70,68,9,

88,87,7,69,67,8,

87,87,7,69,67,7,

87,87,7,69,67,7,

86,86,7,69,67,7,

86,86,8,68,67,7,

85,86,7,68,66,7,

85,86,7,68,66,8,

85,85,8,67,66,8,

84,85,7,67,66,7,

84,84,7,67,65,8,

83,83,7,67,65,7,

83,83,7,66,65,7,

83,83,7,66,64,7,

83,83,7,66,64,7,

83,83,7,66,64,7,

83,83,7,65,63,7,

82,82,8,65,63,8,

82,81,7,65,63,7,

81,81,8,65,63,7,

81,81,7,65,63,7,

81,81,7,65,63,9,

80,121,8,63,62,8,

80,120,7,63,62,7,

79,120,7,63,62,8,

80,119,7,63,62,7,

79,119,8,63,61,7,

78,118,7,62,61,8,

79,118,7,62,61,7,

78,117,7,62,61,7,

84,116,7,62,60,8,

83,115,7,62,60,7,

83,115,7,62,60,8,

83,115,7,61,60,8,

83,114,8,61,59,7,

82,114,8,60,59,9,

81,113,8,60,59,8,

81,113,8,60,59,7,

81,112,7,60,58,8,

80,112,8,60,58,7,

80,111,7,60,81,7,

79,111,7,60,89,7,

79,111,9,59,88,7,

79,110,7,60,88,8,

79,109,8,59,87,7,

79,109,7,59,86,7,

78,108,7,59,86,7,

78,108,8,57,85,7,

78,108,7,58,85,7,

77,107,7,57,85,7,

77,106,7,57,84,7,

76,105,7,57,84,7,

76,105,7,57,83,7,

76,103,8,56,83,8,

76,103,8,56,83,7,

75,103,8,56,83,8,

75,103,7,56,82,8,

75,103,7,56,82,9,

75,103,7,55,81,8,

75,103,7,55,81,8,

73,103,8,55,81,8,

74,102,7,55,81,7,

73,102,7,54,79,7,

73,101,7,55,79,7,

71,101,7,54,79,7,

71,100,7,53,79,8,

71,100,8,54,79,7,

71,99,7,54,79,7,

71,99,8,53,78,7,

71,99,9,53,78,7,

71,98,7,53,77,7,

71,98,7,53,77,7,

70,97,7,52,77,7,

70,97,8,51,76,8,

70,97,7,52,76,9,

70,96,7,51,75,7,

69,96,7,51,76,7,

69,96,7,52,76,8,

69,95,8,51,75,8,

69,94,7,51,75,7,

67,94,8,50,74,8,

68,94,7,50,73,9,

68,94,8,63,74,8,

67,93,7,62,73,9,

67,93,9,62,73,8,

67,92,8,62,72,8,

66,92,8,61,71,7,

66,92,7,61,71,7,

66,91,8,60,71,7,

66,91,8,61,71,8,

66,91,7,60,71,8,

66,91,7,60,71,7,

65,90,7,60,71,7,

65,90,7,60,70,7,

65,89,7,59,71,7,

65,89,8,60,70,8,

64,89,9,97,70,8,

63,89,7,98,70,7,

63,88,8,97,69,8,

63,88,7,97,68,7,

63,86,8,97,68,7,

63,87,7,96,67,7,

63,86,8,96,68,8,

62,86,8,95,67,8,

62,86,7,94,67,8,

62,85,7,94,67,7,

62,85,7,94,67,9,

61,85,8,93,67,8,

63,84,7,93,66,7,

65,83,8,92,66,7,

65,83,7,92,65,8,

64,83,7,92,66,7,

64,83,7,92,65,8,

64,82,7,91,65,7,

63,82,8,90,64,7,

63,82,7,90,64,7,

63,81,7,90,63,8,

63,81,8,90,64,8,

120,81,7,89,63,8,

117,81,8,88,63,8,

116,80,7,88,63,8,

115,80,7,88,63,9,

115,80,8,88,62,7,

115,79,7,88,62,8,

115,81,9,87,62,8,

114,80,9,86,61,9,

113,79,7,86,61,7,

112,80,9,86,61,7,

112,79,7,85,61,7,

112,79,7,85,61,8,

111,79,8,84,60,7,

110,79,9,84,60,8,

110,78,7,84,60,7,

109,78,7,83,59,7,

109,78,7,83,59,8,

109,77,8,83,60,7,

108,77,8,82,59,7,

108,76,7,82,59,7,

107,77,7,82,58,7,

107,76,7,81,58,8,

106,75,7,81,57,7,

105,76,7,80,57,7,

105,76,7,80,57,9,

103,74,8,80,57,7,

103,75,7,80,57,8,

103,74,9,79,57,8,

103,74,7,79,56,7,

103,73,8,78,56,8,

103,73,8,78,56,8,

102,72,7,78,56,7,

102,71,7,78,56,7,

101,72,7,77,55,7,

100,71,7,77,56,7,

100,71,7,76,55,8,

100,71,9,76,55,7,

99,71,7,76,55,7,

99,71,9,76,54,8,

99,71,9,76,54,7,

98,70,8,75,53,8,

98,70,7,75,53,7,

97,70,9,74,54,8,

97,101,8,75,53,7,

96,127,8,74,53,8,

96,126,8,73,53,7,

96,126,7,73,52,7,

95,125,7,73,52,7,

95,125,8,73,52,7,

95,124,8,73,51,7,

94,123,9,71,51,7,

94,122,8,71,51,8,

93,122,7,71,51,7,

93,121,8,71,51,7,

93,127,8,71,51,8,

93,185,7,71,51,7,

92,235,8,70,51,7,

92,233,7,70,50,9,

90,231,8,70,50,7,

91,230,7,70,50,9,

90,229,7,68,49,7,

89,227,8,69,49,7,

89,227,8,69,49,7,

89,225,7,68,49,8,

89,224,7,68,48,7,

89,223,7,68,49,8,

88,222,7,68,48,7,

88,221,8,67,48,7,

87,219,8,67,48,7,

86,219,8,66,47,7,

87,218,7,67,47,9,

86,217,7,66,47,7,

86,216,8,66,47,7,

86,215,7,65,47,8,

85,214,7,65,47,9,

85,212,8,65,46,7,

85,211,9,65,47,7,

84,211,7,65,46,7,

83,210,7,64,46,8,

83,208,8,63,46,7,

83,207,8,64,45,8,

83,207,7,63,46,7,

82,206,7,63,45,7,

82,205,7,63,45,7,

82,204,7,63,45,9,

81,204,7,62,45,8,

80,202,7,63,45,8,

81,201,7,62,44,7,

79,199,8,62,44,8,

79,199,9,62,44,7,

80,199,8,62,44,8,

79,198,9,61,44,7,

79,197,8,61,43,8,

79,196,7,61,44,9,

79,195,9,61,44,7,

78,195,9,60,43,9,

78,193,8,60,43,7,

78,193,9,60,43,9,

77,192,7,60,43,7,

77,192,7,60,43,7,

76,190,7,59,43,9,

77,190,7,59,43,7,

76,189,9,59,43,9,

76,188,9,59,42,9,

76,187,9,58,42,9,

75,187,8,58,41,9,

75,185,8,59,41,9,

75,185,7,80,41,9,

75,184,7,80,41,7,

74,183,9,79,41,7,

74,184,7,79,40,9,

73,182,9,78,39,9,

73,181,9,78,56,9,

73,181,8,77,62,9,

73,179,9,78,61,9,

72,178,9,77,61,9,

71,178,9,77,61,9,

71,177,9,77,61,9,

71,176,9,76,60,9,

71,175,9,76,60,9,

71,175,9,76,60,9,

70,174,10,76,59,9,

70,174,9,75,59,9,

70,172,9,74,59,9,

70,172,9,74,59,10,

69,171,9,74,59,9,

69,170,9,74,58,9,

69,170,9,73,57,9,

68,169,9,73,58,9,

69,169,9,83,57,9,

68,167,9,83,57,9,

67,167,9,83,56,9,

67,166,9,82,57,9,

68,165,9,82,56,9,

67,165,9,81,56,9,

66,164,9,81,56,9,

67,163,9,80,56,9,

66,163,9,80,55,9,

66,163,9,79,55,9,

66,162,9,79,54,9,

65,161,10,79,54,9,

65,161,10,79,55,9,

64,159,10,79,54,9,

64,159,9,78,54,9,

64,159,10,78,53,9,

64,157,9,77,53,9,

63,157,9,77,53,10,

63,156,9,77,53,10,

63,156,10,77,52,9,

63,155,9,76,52,9,

62,154,9,75,51,9,

62,153,9,75,51,9,

62,152,9,75,51,9,

61,152,9,75,51,9,

61,152,9,74,51,9,

61,150,9,73,51,9,

60,150,9,73,50,9,

60,150,9,73,50,9,

60,149,9,72,50,8,

60,149,9,73,50,9,

60,148,9,71,49,9,

59,147,9,71,59,9,

60,147,9,71,58,9,

59,146,9,71,58,9,

67,145,9,71,58,9,

69,145,9,70,57,9,

69,145,9,70,57,9,

68,143,9,71,57,9,

68,143,9,69,56,10,

68,142,9,70,57,9,

67,142,9,69,56,9,

67,141,9,69,56,9,

67,141,9,69,56,9,

67,140,9,69,56,9,

67,139,9,67,56,9,

66,139,9,68,56,9,

66,139,9,67,54,9,

66,138,9,67,55,9,

65,137,9,67,54,9,

65,137,9,67,54,8,

65,136,9,66,54,9,

64,135,9,66,54,9,

64,135,9,66,53,9,

63,135,7,66,53,9,

63,135,9,65,53,9,

63,134,8,66,52,9,

63,133,9,65,53,8,

63,133,9,65,52,7,

63,132,9,64,52,8,

62,131,9,63,51,9,

62,131,9,63,51,9,

61,131,9,63,51,7,

61,130,7,63,51,9,

61,130,9,63,51,9,

61,129,9,63,50,9,

61,128,7,62,50,8,

60,127,9,62,50,9,

60,127,9,61,50,8,

60,126,7,62,49,9,

60,127,9,62,49,9,

59,126,9,61,49,8,

60,126,8,61,49,9,

60,125,9,60,49,9,

59,124,8,60,49,9,

58,124,8,73,48,8,

58,123,9,71,48,7,

57,123,8,71,48,9,

58,123,9,71,48,8,

57,122,9,71,48,7,

57,122,9,71,48,8,

57,121,9,71,47,9,

57,121,9,71,48,7,

57,120,9,70,48,9,

57,120,8,70,48,8,

58,120,9,69,47,7,

58,119,9,69,47,8,

57,118,9,69,47,7,

57,118,9,68,46,7,

56,117,8,73,47,9,

56,117,9,88,46,9,

56,117,9,88,47,7,

56,116,9,87,55,9,

56,116,8,87,54,8,

55,115,9,87,54,9,

56,115,8,86,53,9,

56,115,7,85,53,7,

55,113,7,85,53,8,

55,113,8,84,52,7,

55,113,9,84,53,9,

54,113,8,85,52,8,

54,112,8,83,52,8,

54,112,8,83,51,8,

53,111,9,83,51,8,

53,111,8,82,51,9,

53,111,8,82,51,8,

53,110,9,82,51,9,

52,110,9,82,51,9,

52,109,7,81,51,7,

52,109,9,80,51,8,

51,108,8,80,51,8,

52,108,9,80,51,8,

51,108,8,79,51,9,

51,107,9,79,51,9,

51,107,9,79,51,7,

51,106,9,79,50,8,

50,106,8,78,50,8,

51,105,9,78,50,8,

51,103,7,77,49,8,

50,104,7,78,50,9,

99,103,9,77,49,8,

97,103,8,77,48,8,

97,103,7,77,49,9,

96,103,7,76,48,8,

96,103,7,76,48,8,

95,102,7,76,48,8,

95,102,9,75,48,8,

94,101,7,75,48,8,

94,101,9,74,47,8,

93,100,7,74,47,8,

93,99,9,74,47,7,

93,100,9,73,47,7,

92,99,7,73,47,9,

92,99,7,73,46,9,

91,99,7,71,46,7,

91,99,8,71,46,9,

90,98,9,71,46,9,

91,145,7,71,45,8,

90,143,9,71,45,8,

89,142,9,71,45,8,

89,142,7,71,45,8,

89,141,9,71,45,8,

89,140,7,71,45,8,

88,139,7,70,49,8,

88,139,9,70,53,9,

87,139,8,70,52,7,

87,138,7,69,52,8,

86,137,9,69,51,9,

86,137,7,68,52,7,

86,135,8,68,52,8,

85,135,7,67,51,7,

85,135,7,67,51,7,

84,134,8,67,51,7,

83,134,7,67,50,8,

83,133,9,67,50,7,

83,132,7,67,50,7,

83,131,9,67,50,8,

82,132,9,66,49,7,

82,131,9,66,49,7,

82,130,8,65,49,8,

82,129,7,65,49,8,

81,129,8,65,49,8,

81,129,7,64,48,8,

80,127,8,65,48,7,

80,127,9,63,48,7,

79,127,7,63,48,8,

79,126,7,63,48,8,

79,125,8,63,47,8,

78,125,8,63,48,9,

78,125,7,63,47,7,

78,124,7,63,47,7,

78,124,8,62,46,7,

78,130,9,62,47,7,

78,137,7,62,46,9,

77,135,9,61,46,7,

77,135,7,61,46,7,

76,135,7,61,46,9,

76,134,7,61,46,8,

76,134,7,60,45,8,

76,133,7,61,45,7,

75,132,8,60,46,8,

75,132,8,60,59,7,

75,131,7,59,59,7,

74,130,8,60,59,8,

74,130,9,59,58,9,

74,129,9,59,59,9,

74,153,7,59,58,7,

73,152,9,58,58,7,

73,151,7,58,58,7,

72,151,7,57,57,9,

71,150,9,57,57,7,

71,148,7,57,57,8,

71,149,7,57,57,8,

71,147,9,57,56,9,

71,147,7,57,56,7,

71,146,7,56,56,7,

71,146,7,56,56,7,

70,144,7,56,55,8,

70,143,7,56,56,8,

70,143,8,56,55,8,

69,143,9,56,55,7,

69,143,8,56,54,7,

69,142,7,55,55,8,

69,141,7,54,54,9,

68,140,7,55,54,8,

68,140,8,54,54,8,

67,139,7,54,53,8,

67,138,8,54,53,8,

66,137,7,54,53,7,

67,137,9,53,52,7,

66,135,7,53,52,7,

66,135,7,52,52,7,

65,135,9,53,51,9,

66,135,8,52,51,7,

65,134,9,74,51,7,

65,134,8,91,51,8,

64,133,8,91,51,8,

65,132,7,91,51,7,

64,132,7,89,51,7,

63,131,8,89,52,7,

63,131,7,89,51,8,

64,130,7,88,51,7,

64,130,9,88,51,7,

63,129,8,88,51,7,

63,129,8,88,51,7,

63,127,7,86,50,7,

63,127,7,86,50,7,

63,127,7,86,49,7,

62,126,7,85,49,8,

62,126,7,85,49,7,

62,125,7,85,49,7,

62,124,7,85,49,9,

105,124,8,84,49,7,

131,124,7,84,48,7,

130,123,8,83,48,7,

129,123,7,99,48,7,

129,122,7,99,47,8,

127,121,8,98,48,7,

127,121,8,97,48,7,

126,120,8,97,48,8,

126,120,7,96,46,7,

126,120,8,96,46,7,

125,119,7,96,47,8,

124,118,7,95,46,7,

123,117,8,95,46,9,

123,118,8,94,46,7,

122,119,7,94,46,7,

121,119,8,94,46,9,

121,118,7,92,45,7,

121,118,8,92,45,7,

120,117,8,92,45,9,

120,117,7,91,45,7,

120,115,8,91,44,7,

118,116,8,91,44,7,

118,115,8,90,44,8,

117,114,7,90,44,7,

115,114,8,89,44,8,

115,114,8,89,43,8,

115,113,7,89,43,7,

115,113,7,89,43,7,

114,112,8,88,43,7,

114,112,7,87,43,7,

113,112,7,87,42,8,

113,111,7,87,42,7,

112,110,7,86,42,7,

111,110,7,86,42,7,

111,109,7,86,42,8,

111,109,9,85,41,9,

110,108,7,85,41,7,

110,108,8,84,41,7,

109,108,9,84,41,7,

109,107,8,84,41,7,

108,106,7,83,40,8,

108,106,7,83,40,7,

107,106,8,83,40,7,

106,105,7,83,39,9,

106,105,8,82,39,7,

106,104,7,82,41,8,

106,103,7,81,41,7,

105,103,8,81,39,7,

103,103,8,81,40,7,

103,103,7,80,40,8,

103,102,7,79,39,7,

103,101,8,80,39,7,

103,101,8,79,39,7,

102,101,8,79,40,7,

102,100,8,79,39,7,

101,99,7,78,39,8,

101,99,7,78,39,7,

100,99,8,78,41,7,

100,99,7,77,43,7,

100,98,9,77,42,7,

99,98,8,77,42,9,

99,97,7,76,41,7,

98,97,7,76,41,9,

98,96,7,76,41,7,

98,96,8,75,41,7,

97,96,8,75,41,9,

97,96,8,75,41,7,

96,95,8,75,41,7,

96,95,7,74,39,8,

96,95,7,74,40,7,

95,94,7,74,39,7,

95,94,7,73,39,7,

94,93,7,73,44,7,

118,93,7,73,43,7,

117,93,8,71,43,8,

117,93,8,72,43,7,

116,92,7,71,43,7,

115,92,7,71,42,8,

115,92,7,71,42,8,

115,92,8,71,42,7,

114,91,7,71,42,7,

113,90,8,71,42,7,

113,90,8,70,41,7,

112,89,8,70,42,8,

112,89,7,70,42,8,

112,89,8,70,41,8,

111,89,7,69,41,8,

110,88,7,69,41,9,

110,88,7,69,41,7,

110,88,9,68,41,7,

109,88,9,68,39,7,

108,88,8,67,39,7,

109,87,7,67,39,7,

108,87,8,67,39,7,

107,86,7,67,39,7,

107,86,8,67,39,7,

106,86,8,67,41,8,

106,85,8,66,40,8,

105,85,7,66,39,8,

105,84,7,66,40,7,

103,84,8,66,41,7,

103,110,7,65,39,8,

103,109,7,64,39,7,

103,108,9,64,39,7,

103,108,7,64,39,7,

102,107,8,63,39,7,

102,107,7,64,79,9,

102,107,9,63,165,7,

101,105,8,63,165,7,

99,105,8,63,163,7,

99,103,7,62,163,7,

99,103,7,62,161,8,

98,103,8,62,161,7,

98,103,8,62,159,8,

98,102,8,61,159,8,

97,102,8,61,158,7,

97,102,7,61,158,8,

96,101,7,60,156,7,

96,101,7,60,156,7,

96,100,7,60,155,8,

96,100,7,60,154,9,

96,99,7,59,153,7,

96,99,7,60,153,7,

95,98,9,59,152,7,

95,98,7,59,152,8,

94,97,8,59,151,8,

94,97,7,59,151,9,

94,97,7,58,149,8,

93,97,8,58,149,8,

93,96,8,58,148,7,

92,95,9,57,147,8,

92,95,8,58,147,7,

92,94,7,57,146,8,

91,94,7,57,146,8,

91,94,7,57,145,7,

91,94,9,56,145,9,

89,124,9,56,143,8,

89,123,7,56,142,9,

89,122,8,56,142,7,

89,122,7,55,142,7,

89,121,8,56,141,8,

88,120,8,56,140,8,

88,120,7,56,139,7,

88,120,8,56,139,7,

88,119,7,55,138,8,

87,118,9,56,137,7,

87,118,7,57,137,8,

86,117,7,57,135,7,

86,116,7,57,135,7,

85,115,8,57,135,7,

85,115,9,56,135,7,

84,114,7,56,134,8,

83,114,8,56,134,8,

84,113,7,56,133,7,

83,113,9,56,132,8,

83,113,9,55,132,7,

82,112,7,56,131,8,

82,112,7,55,130,8,

82,112,7,54,130,8,

82,124,7,55,130,8,

81,140,8,54,129,7,

81,139,7,53,128,8,

81,138,8,53,127,7,

80,137,7,54,127,8,

80,137,7,53,126,7,

79,135,7,53,126,7,

79,135,7,53,126,7,

79,135,7,51,126,7,

79,134,8,52,125,9,

78,133,7,51,125,7,

78,133,8,51,124,7,

78,132,8,51,123,7,

77,131,7,51,124,8,

77,131,7,51,123,7,

77,130,8,51,122,7,

76,129,8,50,121,7,

89,129,8,51,121,7,

92,128,8,50,120,8,

91,127,8,50,120,8,

91,127,7,50,120,7,

90,126,7,49,119,9,

89,126,7,49,118,9,

89,125,8,49,119,9,

88,125,7,49,117,8,

89,124,7,48,116,7,

88,124,7,49,116,8,

88,123,7,48,116,8,

88,123,7,48,115,7,

87,122,7,48,115,9,

89,121,7,47,115,8,

89,121,7,48,172,7,

88,120,7,48,172,8,

88,120,7,47,171,9,

88,120,8,71,169,7,

86,119,7,71,168,8,

86,118,7,70,167,8,

86,117,7,70,167,8,

86,117,8,70,166,7,

85,116,8,70,165,7,

85,115,7,68,163,9,

84,115,9,68,163,7,

83,115,7,68,163,8,

83,114,7,67,162,8,

83,114,8,67,161,8,

83,113,7,67,161,7,

83,112,7,67,159,7,

82,112,7,67,159,8,

82,112,8,66,158,7,

81,112,9,66,157,7,

81,110,9,65,156,8,

81,110,7,65,156,7,

81,110,8,65,155,8,

80,109,8,64,154,8,

79,109,9,64,153,7,

79,108,8,63,153,8,

79,108,8,63,152,8,

78,107,7,63,152,8,

78,107,8,63,151,8,

78,107,7,63,150,8,

77,110,8,63,149,7,

77,109,8,63,149,9,

76,109,7,63,148,8,

77,109,7,143,147,8,

76,108,7,142,147,9,

110,108,8,140,146,7,

110,107,8,140,145,7,

109,106,7,139,145,7,

108,105,7,138,144,8,

107,103,7,137,143,7,

107,104,7,137,142,9,

106,149,8,135,141,8,

106,147,7,135,141,9,

105,147,7,134,140,7,

105,145,7,133,140,9,

103,145,7,133,139,7,

103,143,8,132,138,8,

103,143,8,131,137,7,

103,142,7,131,137,8,

102,141,7,130,135,7,

102,140,8,130,135,8,

101,140,8,129,134,7,

101,139,9,127,134,8,

99,139,9,127,133,7,

99,138,8,127,133,7,

99,135,8,126,132,7,

98,136,7,125,131,8,

98,135,7,125,131,9,

97,135,7,125,130,7,

97,134,7,124,130,8,

97,134,7,123,129,7,

96,133,8,123,129,9,

96,133,8,122,127,8,

95,131,9,122,127,8,

94,131,7,121,126,7,

95,131,7,121,126,7,

93,130,8,120,126,7,

94,129,8,120,125,7,

93,127,7,120,125,7,

92,127,7,119,124,7,

92,127,8,118,124,7,

111,127,9,118,123,9,

110,127,7,117,123,8,

110,126,7,116,122,8,

109,126,7,115,121,7,

108,125,9,115,121,7,

107,124,8,115,120,9,

107,123,7,114,120,9,

107,123,7,113,119,7,

106,122,9,113,121,9,

106,123,7,112,176,8,

104,121,8,111,174,7,

103,120,9,112,174,8,

103,120,8,111,172,7,

103,120,7,110,172,7,

103,119,7,109,170,7,

102,119,8,109,169,8,

102,118,8,109,167,7,

101,117,8,109,167,9,

101,117,7,108,167,7,

100,116,9,107,166,7,

99,115,8,106,165,8,

127,115,9,107,164,7,

156,115,7,105,163,8,

155,114,9,105,162,7,

154,113,8,105,161,8,

153,113,7,104,160,8,

152,112,7,103,159,7,

152,112,8,103,158,8,

151,111,7,103,158,7,

150,111,9,103,157,9,

149,110,7,102,156,8,

147,110,7,101,155,7,

147,108,7,101,155,8,

146,108,8,100,153,8,

146,108,7,100,153,7,

145,108,8,101,153,8,

144,107,7,102,152,7,

143,106,8,101,151,7,

143,105,7,100,150,7,

142,105,7,100,150,7,

141,105,7,100,149,9,

141,105,7,99,148,8,

140,103,7,99,147,7,

139,103,9,98,147,7,

138,103,7,98,146,9,

138,102,9,97,145,9,

137,102,7,97,145,7,

135,101,7,96,143,8,

135,101,8,96,143,8,

135,100,8,96,143,8,

135,100,8,96,142,8,

134,100,7,95,142,7,

134,99,8,94,141,7,

133,99,7,94,140,7,

132,98,7,93,139,7,

131,98,7,93,139,7,

131,97,8,93,138,7,

130,97,7,108,137,7,

130,97,8,108,137,8,

129,97,7,107,135,7,

128,96,8,107,135,7,

127,96,7,106,135,9,

127,96,7,106,177,8,

127,95,8,105,175,9,

126,94,8,104,174,7,

126,94,7,103,173,7,

125,93,8,103,172,8,

125,93,7,103,172,7,

124,103,7,103,171,8,

123,103,7,102,169,9,

123,102,7,101,167,7,

122,101,8,101,167,7,

121,100,7,100,166,7,

121,100,8,100,166,7,

120,99,8,99,165,8,

120,99,7,99,163,8,

119,99,8,99,163,7,

119,98,7,98,163,7,

119,98,7,98,161,9,

118,97,7,97,161,7,

117,97,7,96,159,8,

116,96,7,97,159,8,

116,96,8,96,159,7,

115,95,7,96,158,7,

115,95,9,95,157,7,

114,95,7,95,157,9,

114,94,7,94,156,7,

114,93,8,94,155,9,

113,93,8,94,154,9,

113,93,7,96,154,8,

112,92,8,95,153,7,

112,92,9,94,152,8,

111,92,7,94,152,7,

111,91,7,93,151,9,

110,91,7,93,150,9,

110,91,7,92,149,8,

109,90,8,92,148,8,

109,89,7,92,148,9,

108,89,9,91,147,7,

108,89,8,91,147,7,

107,89,7,91,146,8,

107,88,7,90,146,7,

106,88,8,90,144,7,

105,87,9,89,144,8,

105,87,9,89,143,7,

105,87,7,88,143,8,

103,87,7,88,142,8,

104,86,7,88,141,8,

103,86,7,88,141,7,

103,85,8,88,140,9,

103,85,7,87,140,7,

102,84,8,87,140,7,

102,83,7,86,138,7,

102,83,8,86,138,8,

101,83,7,85,137,7,

101,83,7,85,137,7,

100,83,8,85,135,7,

99,82,8,84,135,7,

99,82,9,83,135,8,

99,81,8,83,135,7,

98,81,7,83,134,9,

98,81,7,83,134,7,

98,80,8,83,133,9,

97,80,7,83,132,7,

97,79,7,82,131,7,

97,80,9,82,131,8,

97,79,7,81,131,7,

96,79,8,81,130,7,

96,78,7,81,130,8,

95,79,7,80,129,7,

94,78,7,79,127,9,

94,78,7,79,127,7,

94,78,7,79,127,7,

93,78,8,79,127,8,

93,77,8,78,127,8,

93,77,8,78,126,8,

92,77,7,78,125,8,

91,76,7,78,125,7,

92,76,7,78,124,7,

91,76,8,77,124,7,

92,75,9,77,124,9,

90,75,8,77,123,8,

91,75,7,77,122,8,

90,75,7,77,122,9,

89,74,7,76,121,7,

89,74,8,76,120,7,

89,74,9,76,120,9,

89,73,8,75,120,7,

88,73,7,75,119,9,

88,73,7,75,119,7,

88,71,8,74,118,8,

87,71,8,74,118,7,

87,71,7,74,118,7,

86,71,8,73,118,9,

87,71,9,135,117,9,

86,71,7,216,115,8,

86,71,7,214,115,7,

85,70,7,211,119,8,

85,71,8,211,118,8,

84,70,7,210,117,7,

84,70,8,209,117,7,

84,69,8,207,116,7,

83,69,7,207,116,7,

83,69,7,205,115,7,

82,69,8,204,114,7,

82,68,8,204,114,8,

82,68,9,203,114,7,

82,68,7,201,113,7,

81,68,7,200,113,7,

80,67,7,199,112,7,

80,67,9,199,111,8,

79,67,7,198,111,8,

80,67,9,197,115,8,

79,66,7,196,114,7,

79,66,7,195,114,7,

79,66,7,194,113,7,

78,65,9,193,113,9,

78,65,7,193,112,7,

78,65,7,192,111,8,

78,65,8,190,111,7,

78,65,9,190,177,9,

77,65,8,189,266,7,

76,63,7,188,275,9,

76,63,8,187,273,7,

76,63,7,185,271,9,

76,63,8,185,270,9,

76,63,7,185,269,7,

75,63,7,184,268,7,

75,62,8,184,266,8,

75,63,8,183,263,7,

75,62,8,182,263,9,

73,62,9,181,262,9,

74,61,7,179,260,8,

74,61,8,179,259,7,

74,62,8,179,258,9,

73,61,7,177,256,9,

71,60,7,177,255,9,

72,61,8,176,254,7,

72,60,9,175,252,8,

71,61,8,175,251,7,

71,60,7,174,250,7,

71,60,7,173,249,9,

71,60,7,172,248,7,

71,60,9,172,246,8,

70,59,9,171,245,9,

70,59,9,170,244,8,

70,59,9,169,243,9,

69,58,7,168,241,9,

70,58,9,167,240,7,

69,57,9,167,240,9,

69,57,9,167,238,9,

69,57,8,166,237,7,

68,57,9,165,236,9,

68,57,8,164,235,9,

67,56,9,164,233,9,

67,56,9,163,233,8,

67,56,9,162,231,9,

67,56,9,162,231,9,

67,56,9,161,230,9,

67,57,9,160,229,10,

66,56,9,159,228,9,

66,56,9,159,227,9,

65,56,10,159,225,10,

66,56,9,158,225,9,

65,56,9,158,223,9,

65,54,10,157,223,10,

65,54,10,156,222,10,

64,55,10,155,220,10,

63,54,10,154,219,10,

63,54,10,153,218,10,

63,54,10,153,217,10,

63,53,11,152,216,11,

63,53,11,152,216,11,

62,53,10,151,214,10,

63,52,11,150,213,11,

62,52,11,150,212,11,

62,52,11,149,210,11,

61,51,11,147,210,12,

61,51,12,148,209,11,

61,51,12,147,207,12,

61,51,11,147,207,12,

102,51,12,145,205,12,

101,51,12,145,205,12,

100,51,12,144,204,12,

99,51,12,143,202,12,

98,49,12,142,201,11,

98,49,11,142,199,11,

97,49,12,141,199,12,

97,49,11,140,198,11,

96,49,11,140,197,12,

96,50,13,141,271,12,

115,49,12,140,398,12,

114,49,12,138,397,12,

113,48,12,137,393,12,

112,48,12,135,391,12,

112,47,12,135,388,11,

111,47,12,135,385,11,

110,47,12,135,383,12,

110,47,11,134,380,12,

109,47,11,134,377,12,

109,47,12,134,380,11,

108,47,11,133,377,11,

107,46,11,131,374,11,

107,46,11,131,371,11,

107,46,12,131,370,12,

106,121,11,130,367,11,

105,120,11,130,364,11,

103,119,11,129,362,11,

104,117,12,127,359,12,

103,117,12,127,358,11,

103,116,12,127,355,11,

103,115,11,126,353,11,

102,115,11,126,350,11,

102,114,11,125,349,11,

101,114,12,125,347,12,

101,113,11,125,345,11,

101,113,12,125,343,11,

100,112,12,124,340,12,

99,111,11,124,339,12,

99,111,12,137,337,11,

99,110,12,135,334,12,

98,110,12,135,333,12,

97,109,12,135,331,12,

97,109,12,134,329,12,

97,108,12,133,327,12,

96,107,13,133,325,13,

96,107,13,132,324,12,

96,106,13,131,322,13,

95,105,13,131,319,13,

94,105,13,130,318,13,

93,103,13,129,316,13,

93,103,13,127,315,13,

92,103,13,127,313,13,

92,103,14,127,311,13,

92,103,13,127,309,13,

91,103,13,126,307,13,

91,102,13,125,306,13,

90,102,13,125,304,13,

90,101,14,124,302,13,

89,101,14,123,301,14,

89,99,14,123,300,14,

89,99,15,175,298,14,

88,99,14,173,296,14,

88,99,14,172,311,14,

88,98,14,171,332,15,

88,137,15,170,355,15,

87,135,15,169,353,15,

87,134,15,167,351,14,

86,133,15,167,348,15,

86,132,15,166,345,15,

85,132,15,165,344,15,

85,130,15,165,341,15,

84,131,15,163,339,15,

84,129,15,163,337,16,

83,129,15,162,335,15,

83,128,15,161,333,15,

82,127,15,160,331,16,

82,127,16,159,329,15,

82,126,15,158,327,15,

81,125,15,158,325,16,

81,124,16,157,323,16,

80,124,16,156,321,16,

80,123,15,155,319,15,

79,123,15,155,317,15,

79,122,16,154,315,16,

79,121,16,153,313,16,

78,121,15,152,312,16,

78,120,16,152,310,16,

78,120,16,151,308,16,

78,119,15,150,306,16,

77,118,16,149,305,15,

77,117,15,148,303,16,

76,117,16,147,301,15,

76,116,16,147,300,16,

76,115,15,146,298,16,

75,115,15,146,295,15,

76,114,15,145,295,15,

75,113,15,144,293,16,

74,113,15,143,291,15,

74,112,15,142,289,15,

73,112,15,142,289,15,

73,112,15,141,286,15,

71,111,15,140,285,16,

71,111,16,140,284,15,

71,111,15,159,283,16,

71,110,16,158,281,15,

71,111,15,157,280,15,

71,110,16,155,278,15,

71,109,15,155,276,15,

70,108,15,153,275,15,

70,108,14,153,273,15,

70,107,15,152,271,15,

69,107,15,152,271,15,

69,106,15,151,270,15,

69,106,15,150,268,15,

68,105,15,149,267,15,

67,105,15,148,265,15,

67,104,15,147,263,15,

67,103,15,147,263,15,

67,103,15,146,261,14,

66,103,15,145,260,14,

67,103,15,144,259,15,

66,102,14,143,257,15,

67,101,14,142,255,14,

69,101,15,142,255,14,

71,100,14,141,253,14,

71,99,15,141,252,14,

71,99,14,140,251,14,

71,98,14,139,249,14,

70,97,14,139,248,14,

70,97,14,138,247,14,

70,97,14,137,246,13,

69,96,13,136,245,14,

69,96,14,135,243,14,

68,96,14,135,243,13,

70,96,14,135,242,14,

69,95,14,135,241,14,

70,94,14,134,239,13,

69,94,13,133,238,14,

68,93,14,133,237,13,

68,93,13,132,236,13,

68,93,13,131,236,13,

68,92,14,131,233,14,

67,92,13,130,231,13,

67,91,13,129,231,13,

67,91,13,129,231,13,

66,90,13,128,229,13,

66,89,13,127,228,13,

66,89,13,127,227,13,

66,89,13,126,226,13,

65,88,13,126,225,13,

65,89,13,125,224,14,

65,88,13,125,223,13,

64,87,13,124,222,12,

63,87,13,123,221,14,

63,87,13,124,220,13,

63,87,12,123,219,13,

63,86,12,122,219,12,

63,85,13,121,217,12,

62,85,13,121,216,13,

62,84,13,120,215,12,

62,83,13,120,214,13,

62,84,13,119,213,12,

61,83,12,120,212,12,

61,83,13,119,211,12,

61,83,12,118,210,12,

60,82,13,117,209,12,

60,82,12,117,207,12,

60,81,12,116,207,12,

60,81,12,115,207,12,

60,80,12,115,206,12,

59,80,12,115,205,12,

59,79,12,114,204,12,

59,79,12,114,204,12,

58,79,12,113,202,12,

58,79,12,113,201,12,

58,79,12,112,199,12,

57,78,12,112,199,12,

57,77,11,112,199,12,

57,77,12,111,198,12,

57,77,12,111,197,12,

57,77,12,110,196,12,

56,77,12,110,195,12,

56,76,12,110,194,12,

56,76,12,120,194,11,

56,75,12,119,192,12,

55,75,12,118,192,12,

56,75,11,118,191,11,

55,75,11,117,190,11,

55,81,12,116,189,12,

54,96,11,115,188,12,

53,95,11,115,188,11,

54,95,11,115,186,12,

54,94,11,114,189,11,

53,94,11,113,188,11,

53,93,11,113,188,11,

52,92,12,112,186,12,

52,93,11,112,185,12,

52,92,12,111,185,12,

52,91,11,111,184,11,

52,91,12,110,183,12,

51,90,11,110,182,11,

51,90,12,109,181,11,

51,89,12,108,181,11,

51,88,11,108,179,12,

50,88,12,108,179,11,

50,88,11,107,178,11,

50,87,11,107,177,11,

50,87,11,106,177,11,

49,87,11,106,176,11,

50,87,11,105,175,11,

50,86,11,103,174,11,

49,85,11,103,173,11,

49,85,11,103,173,11,

49,85,10,103,172,11,

49,84,11,103,171,11,

49,83,11,103,171,11,

48,83,11,103,209,11,

48,83,11,102,207,11,

48,83,11,102,206,11,

48,82,10,102,204,11,

48,81,12,101,203,11,

48,81,11,101,203,11,

47,80,10,99,201,10,

47,80,11,99,200,10,

47,80,11,99,199,11,

46,79,11,98,198,11,

47,79,11,99,197,11,

46,79,10,98,197,11,

46,78,11,97,195,11,

46,78,11,97,195,11,

45,77,11,96,193,10,

45,77,11,96,193,11,

45,77,10,96,192,10,

45,77,11,96,190,11,

45,76,11,95,189,11,

45,76,11,95,189,11,

44,76,11,94,188,11,

44,75,11,93,187,11,

44,75,11,93,185,10,

44,75,11,93,185,10,

44,74,10,93,184,10,

43,74,10,92,183,10,

44,73,10,92,182,9,

43,73,9,91,181,9,

42,71,9,91,179,9,

43,71,9,90,179,9,

42,71,10,90,179,9,

42,71,9,89,178,9,

41,71,10,89,177,9,

41,70,9,89,176,9,

42,71,10,89,175,9,

41,70,10,88,175,10,

39,70,9,88,174,9,

39,69,10,87,173,9,

41,69,9,87,172,10,

41,69,10,88,172,9,

39,69,9,86,171,9,

39,68,9,86,170,9,

40,68,9,86,169,9,

39,67,9,86,169,9,

39,67,9,85,167,9,

39,67,9,85,167,9,

39,67,9,85,167,9,

39,67,10,84,166,9,

42,66,9,83,166,9,

42,66,9,84,165,9,

41,66,9,83,165,9,

41,66,9,83,164,10,

40,66,9,83,163,9,

41,65,9,83,163,9,

41,65,9,82,162,9,

40,64,9,81,161,9,

39,65,9,81,159,9,

39,63,9,81,159,9,

39,63,8,81,159,9,

39,63,9,81,158,9,

39,63,8,79,158,9,

39,62,9,79,158,9,

39,63,9,79,157,9,

39,62,9,79,157,7,

39,62,9,79,156,9,

39,62,9,78,155,8,

38,62,9,78,155,9,

38,61,9,78,153,8,

37,61,9,78,153,8,

38,61,9,77,153,9,

38,61,9,77,153,9,

37,60,9,77,152,9,

37,60,9,77,151,9,

37,60,9,76,151,9,

37,60,9,76,150,9,

36,60,9,76,150,9,

37,59,9,76,149,8,

37,60,9,75,148,9,

37,58,9,75,147,9,

36,59,9,75,147,9,

36,58,7,75,147,9,

