
28,9,0,73,33,0,

27,9,0,71,32,0,

27,9,0,71,32,0,

27,9,0,71,32,0,

27,9,0,71,32,1,

27,10,0,71,31,0,

27,10,0,71,31,0,

27,9,0,71,31,0,

26,10,0,70,31,0,

26,9,0,70,31,0,

26,9,0,70,31,0,

25,9,0,70,31,0,

25,9,0,69,31,0,

26,9,0,69,31,0,

26,9,0,69,31,0,

26,9,0,68,30,0,

25,9,1,69,30,0,

25,9,0,68,30,0,

25,9,0,67,30,1,

25,9,0,67,30,0,

25,11,0,67,30,0,

25,11,0,67,30,0,

25,11,0,67,29,0,

25,11,0,67,29,0,

25,10,0,66,29,0,

24,10,0,66,29,0,

24,11,0,66,29,0,

26,10,0,65,29,0,

26,10,0,65,29,0,

26,11,0,65,29,0,

25,10,1,65,29,0,

25,10,0,64,28,0,

25,28,0,64,28,0,

25,29,0,63,28,0,

25,29,0,63,28,0,

25,28,0,63,28,0,

25,28,0,63,28,0,

25,28,0,63,27,0,

24,28,0,62,28,0,

24,28,0,62,27,0,

24,27,0,62,27,0,

24,27,0,62,27,0,

24,27,0,61,27,0,

24,27,0,61,27,0,

24,27,0,61,27,0,

24,27,0,61,26,0,

24,27,0,60,27,0,

24,27,0,60,26,0,

24,26,0,60,26,0,

23,26,0,60,26,0,

23,26,0,59,26,0,

23,26,0,59,26,0,

23,26,0,59,25,0,

24,25,0,59,28,0,

23,25,0,59,32,0,

24,25,0,58,31,0,

23,25,0,58,31,0,

23,25,0,57,31,0,

22,25,0,57,31,0,

22,24,0,57,31,0,

22,24,0,57,31,0,

22,24,0,57,31,0,

22,24,0,57,30,0,

22,24,0,56,30,0,

22,24,0,56,30,0,

22,24,0,56,30,0,

21,24,0,56,30,0,

22,24,0,56,30,0,

22,24,0,55,30,0,

21,23,0,55,29,0,

21,23,0,55,29,0,

21,23,0,54,29,0,

21,23,0,54,29,0,

21,23,0,54,29,0,

21,23,0,54,29,0,

21,23,0,54,28,0,

20,23,0,54,28,0,

20,22,0,53,28,0,

20,22,0,53,28,0,

20,22,0,53,28,0,

20,22,0,52,28,0,

20,22,0,52,28,0,

20,22,0,52,28,1,

19,23,0,52,28,0,

20,26,0,52,27,0,

19,26,0,51,27,0,

19,26,0,51,27,0,

19,26,0,51,27,0,

19,25,0,51,27,0,

19,25,0,51,27,0,

19,25,0,50,26,0,

19,25,0,50,26,0,

21,25,0,50,26,0,

62,25,0,50,26,0,

65,25,0,50,26,0,

65,25,0,49,26,0,

65,24,0,49,26,0,

64,24,0,49,25,0,

63,24,0,49,25,0,

63,24,0,48,25,0,

63,24,0,48,25,0,

63,24,0,48,25,0,

63,24,0,48,25,0,

62,24,0,48,25,0,

62,24,0,48,26,0,

62,24,0,49,25,0,

61,23,0,48,31,0,

61,23,0,48,32,0,

61,23,0,48,31,0,

60,23,0,48,31,0,

60,22,1,47,31,0,

60,23,0,47,31,0,

60,22,0,47,31,0,

59,22,0,47,31,0,

59,22,0,47,31,0,

59,22,0,47,31,0,

59,22,1,46,30,0,

58,22,0,46,30,0,

58,22,0,46,30,0,

57,22,0,45,30,0,

57,22,0,45,30,0,

57,22,0,45,30,0,

57,21,1,45,30,0,

56,21,0,45,30,0,

57,22,0,44,29,0,

56,21,0,44,29,0,

56,21,0,44,29,0,

56,21,0,44,29,0,

55,21,1,44,28,0,

55,21,1,44,50,0,

55,21,0,44,68,0,

54,21,0,44,67,0,

54,20,0,44,67,0,

54,21,0,44,67,0,

54,20,0,43,66,0,

54,20,0,43,66,0,

53,20,0,43,66,0,

53,20,0,43,65,0,

53,20,1,43,65,0,

52,19,0,42,64,0,

52,19,0,42,64,0,

51,19,0,42,64,1,

51,19,0,41,63,0,

51,19,0,42,63,1,

51,19,0,41,63,0,

51,19,0,41,63,0,

51,19,0,41,63,0,

50,19,0,41,63,1,

51,19,0,41,62,0,

50,18,0,41,62,0,

50,19,0,41,62,0,

50,19,1,41,61,0,

49,19,0,39,61,0,

49,18,0,39,61,0,

49,18,0,39,60,0,

48,18,0,39,60,0,

48,18,1,39,60,0,

48,18,0,39,60,0,

48,18,0,39,60,0,

48,18,0,39,59,1,

48,18,0,39,59,0,

47,18,1,39,59,1,

47,17,0,39,58,0,

47,17,1,39,59,1,

46,18,0,38,58,0,

46,18,0,38,57,0,

46,17,0,38,57,0,

46,17,0,38,57,0,

46,17,0,38,57,0,

46,17,0,38,56,0,

46,17,0,37,56,0,

45,17,0,37,56,0,

45,17,0,37,56,1,

45,17,0,37,56,1,

44,17,1,37,55,0,

44,17,0,37,55,1,

44,18,0,36,55,0,

44,21,0,36,54,0,

44,21,0,36,54,0,

44,21,0,36,54,0,

44,21,0,36,54,0,

43,20,0,84,53,0,

43,21,0,106,53,0,

43,20,0,109,69,0,

42,20,0,109,68,0,

43,20,0,108,68,0,

42,20,0,107,68,1,

42,20,1,107,67,1,

42,19,0,106,67,0,

42,19,0,105,67,0,

41,19,1,105,66,0,

41,19,0,103,66,1,

41,19,0,103,66,0,

40,19,0,103,65,0,

39,19,0,103,65,0,

39,19,0,102,65,0,

39,18,0,102,64,0,

39,19,0,102,63,0,

39,18,0,101,63,0,

39,19,0,100,63,0,

39,18,0,100,63,0,

39,18,1,99,63,0,

39,18,0,99,62,0,

39,18,1,99,62,0,

39,18,1,98,62,0,

39,18,0,98,62,0,

38,18,0,97,62,0,

38,18,0,97,61,0,

38,17,0,96,61,0,

38,17,0,96,61,0,

39,17,1,96,60,0,

39,17,0,95,60,0,

39,18,0,95,60,1,

39,18,0,94,60,0,

39,19,0,94,59,0,

39,19,0,94,59,0,

39,19,0,93,59,0,

38,19,0,93,58,0,

38,18,0,93,58,0,

38,18,0,92,58,0,

38,18,0,92,57,0,

38,18,0,91,57,0,

38,18,0,91,57,0,

38,18,0,90,57,0,

37,18,0,90,56,1,

37,21,0,90,56,0,

37,22,0,89,56,1,

37,22,0,89,56,0,

36,22,0,89,56,0,

36,22,0,88,55,0,

36,21,0,88,55,0,

36,21,0,88,55,0,

36,21,0,87,54,0,

35,21,0,87,54,0,

35,21,0,102,70,0,

35,21,0,122,73,0,

35,20,0,121,71,0,

35,20,0,121,71,0,

35,20,0,120,71,0,

35,31,0,120,71,0,

35,31,0,119,70,0,

34,33,0,118,70,0,

34,33,0,118,69,0,

34,31,0,117,69,0,

34,31,0,116,69,0,

34,31,0,115,69,0,

34,31,0,115,68,0,

33,31,0,115,68,0,

44,31,0,114,67,0,

44,31,0,114,67,0,

43,50,0,117,67,0,

43,67,0,124,67,0,

43,66,0,123,66,0,

43,65,0,122,66,0,

43,65,0,121,65,0,

43,65,0,121,65,0,

42,63,0,121,65,0,

42,63,0,120,65,0,

41,63,0,120,64,1,

41,63,0,119,64,0,

41,62,0,119,63,1,

41,62,0,118,63,0,

41,62,1,118,63,0,

40,62,0,117,63,0,

41,154,0,116,63,0,

40,156,1,115,62,0,

39,155,0,115,62,0,

39,154,0,115,61,1,

39,153,0,114,61,0,

39,152,0,114,61,0,

39,152,0,113,60,0,

39,151,0,112,60,0,

39,150,0,112,60,0,

38,149,0,111,60,0,

39,148,0,111,59,0,

38,147,0,110,59,0,

38,146,0,110,59,0,

38,146,1,109,59,0,

37,145,0,109,59,0,

37,144,0,108,57,0,

37,143,0,108,57,0,

37,143,0,107,57,0,

37,142,0,107,57,0,

36,142,0,107,57,0,

36,141,0,105,56,0,

36,140,1,105,56,0,

35,139,0,105,56,0,

35,139,0,103,56,0,

35,138,0,103,56,1,

35,137,1,103,56,0,

35,137,0,103,55,0,

35,135,0,102,55,0,

35,135,1,102,54,0,

35,135,0,114,56,0,

34,134,0,159,88,0,

34,134,0,158,86,0,

75,133,0,156,88,0,

101,132,0,156,88,0,

99,131,0,155,87,0,

99,131,0,154,86,0,

99,130,0,153,86,1,

98,130,1,152,85,0,

97,129,0,152,85,0,

97,129,0,151,84,0,

96,127,0,150,83,0,

96,127,0,150,83,0,

96,127,0,148,83,0,

95,126,1,148,82,0,

94,125,0,147,82,0,

94,125,0,146,82,1,

93,124,0,146,81,0,

93,124,0,145,81,0,

92,123,1,145,81,0,

92,123,0,143,79,0,

92,121,0,143,79,0,

91,121,1,143,79,0,

91,121,1,141,79,0,

90,120,0,141,79,0,

89,120,0,140,78,0,

89,120,0,140,78,0,

89,119,0,139,77,0,

88,118,0,138,77,0,

88,117,1,137,76,0,

87,117,0,137,76,0,

87,116,0,136,76,0,

86,116,1,135,75,0,

86,115,0,135,75,1,

86,115,0,135,75,0,

85,115,0,134,74,0,

85,114,0,133,74,0,

84,113,0,133,73,0,

84,113,0,131,73,0,

83,112,0,131,73,0,

83,112,0,131,71,0,

83,111,0,131,71,0,

82,111,0,130,71,0,

82,110,0,129,71,0,

82,110,0,129,71,0,

81,109,0,128,71,0,

81,109,0,127,71,0,

80,108,0,127,70,0,

80,108,1,126,70,0,

79,107,0,126,70,0,

79,107,0,125,69,0,

79,106,0,125,69,0,

78,106,0,124,69,0,

78,105,0,124,69,0,

78,105,1,123,69,1,

77,103,0,123,68,0,

77,103,0,122,67,0,

77,103,0,121,67,0,

76,103,0,121,67,0,

76,103,0,120,66,0,

75,102,0,120,66,0,

75,102,0,120,66,1,

75,101,0,118,65,0,

75,100,0,118,65,0,

74,100,0,118,65,1,

74,99,0,117,65,0,

73,99,0,117,64,0,

73,99,0,116,64,0,

73,99,1,115,63,0,

72,98,0,115,63,0,

71,97,0,115,63,0,

71,97,0,114,63,0,

71,97,0,114,63,0,

71,96,0,113,62,1,

71,96,0,113,62,0,

71,96,0,112,62,1,

71,95,0,112,61,0,

70,95,0,112,61,0,

70,94,0,111,61,0,

70,94,0,111,61,0,

69,93,0,110,60,0,

69,93,0,110,60,0,

69,93,0,109,60,0,

68,92,0,109,59,0,

68,92,0,108,60,0,

67,92,1,108,59,0,

67,92,0,108,58,0,

67,91,0,107,58,0,

67,91,0,107,58,0,

67,90,1,106,57,0,

66,89,0,105,57,0,

66,89,0,105,57,0,

65,89,0,105,57,0,

65,88,0,103,57,0,

65,88,0,103,57,0,

65,88,0,103,56,0,

64,87,0,103,59,1,

64,88,0,103,78,0,

63,87,0,103,77,0,

63,86,0,102,77,0,

63,86,0,102,76,0,

63,85,0,101,76,0,

63,85,0,101,75,0,

63,85,0,100,75,0,

62,84,0,99,75,0,

62,84,0,99,74,1,

62,83,0,99,74,0,

61,83,0,99,73,0,

61,83,0,98,73,0,

61,82,0,98,73,0,

63,83,0,98,72,1,

62,82,0,101,71,0,

62,82,0,101,71,0,

62,81,0,100,71,0,

62,81,0,99,71,0,

61,80,0,99,71,0,

61,80,0,99,71,0,

61,79,0,99,70,0,

61,79,0,98,70,0,

60,79,0,98,70,0,

60,79,0,97,69,0,

60,79,0,97,69,0,

60,78,0,97,69,0,

59,78,0,96,69,0,

60,78,0,96,68,0,

60,77,0,96,68,1,

60,77,0,96,67,0,

59,77,0,95,67,0,

59,76,0,94,67,0,

59,76,0,94,66,0,

58,76,0,94,66,0,

58,76,0,93,66,0,

57,76,0,93,65,1,

57,75,1,93,65,0,

57,75,0,92,65,0,

57,74,0,92,65,0,

57,74,0,92,65,0,

56,73,0,91,64,0,

56,73,0,91,63,0,

56,73,1,91,63,0,

56,73,0,90,63,0,

56,72,0,111,63,0,

55,71,0,110,63,0,

56,71,0,109,63,0,

55,71,0,109,62,0,

55,71,1,108,62,0,

54,71,0,108,61,0,

54,71,0,107,61,0,

54,70,0,107,61,0,

53,70,0,106,61,0,

53,70,0,106,60,0,

53,70,0,105,60,0,

53,69,0,105,60,0,

52,69,0,103,60,0,

52,69,0,103,59,0,

52,69,0,103,59,0,

52,68,0,103,59,0,

51,68,0,103,59,0,

51,67,0,102,58,0,

51,67,0,102,58,0,

51,67,0,101,57,0,

51,66,0,101,57,0,

52,66,0,101,57,0,

51,66,0,100,57,0,

51,66,0,99,56,0,

51,65,0,99,56,1,

51,65,0,99,56,0,

51,65,0,98,56,0,

50,65,0,98,55,0,

51,64,0,97,56,1,

50,64,0,97,55,0,

50,64,0,97,55,0,

50,63,0,96,55,0,

50,63,0,96,54,0,

49,63,0,96,54,0,

51,63,0,95,53,0,

51,63,0,95,54,0,

50,62,0,94,53,0,

50,62,0,94,53,0,

50,62,0,93,53,0,

50,62,0,93,53,1,

50,61,0,93,53,0,

49,61,0,92,52,0,

49,61,0,92,51,0,

49,60,1,92,51,0,

48,61,0,91,51,0,

49,60,0,153,81,0,

48,60,1,152,80,0,

48,60,0,152,79,0,

48,60,0,151,79,0,

47,59,0,150,79,0,

47,59,0,149,78,0,

48,59,0,148,78,0,

47,59,0,147,77,0,

47,59,0,147,77,0,

47,58,0,146,77,0,

46,58,1,145,76,1,

46,57,0,145,76,0,

46,57,0,143,75,0,

46,57,0,143,75,0,

45,57,0,143,75,0,

45,57,0,142,74,0,

45,56,0,141,74,1,

45,56,0,141,73,0,

45,56,0,140,73,0,

45,56,0,140,73,0,

44,55,0,139,73,0,

44,56,0,138,72,0,

44,55,0,138,71,0,

44,55,0,137,71,0,

43,54,0,135,71,0,

43,54,0,135,71,1,

43,54,0,135,71,0,

61,54,1,135,88,0,

82,53,1,134,88,0,

81,54,0,133,88,0,

80,53,0,133,87,0,

79,53,0,132,86,0,

79,52,0,131,85,0,

79,52,0,131,85,0,

79,51,0,131,85,0,

78,52,0,130,84,1,

78,51,0,129,84,0,

78,51,0,129,83,0,

81,51,0,128,83,0,

80,51,0,127,82,0,

79,51,0,127,82,0,

79,51,0,127,82,0,

79,50,0,126,81,0,

78,50,0,126,81,0,

78,50,0,125,81,0,

78,71,0,124,80,0,

78,70,0,124,79,0,

77,69,0,124,79,0,

77,69,0,123,79,0,

76,69,0,122,79,0,

76,68,0,122,79,0,

76,68,0,121,78,1,

75,67,0,121,78,0,

75,67,0,120,77,0,

75,67,0,120,77,0,

74,66,0,120,76,0,

74,66,1,122,76,0,

73,66,0,121,76,0,

73,66,0,120,76,0,

73,66,1,120,75,1,

71,65,0,120,75,1,

71,64,0,119,75,0,

71,64,0,118,74,0,

78,64,1,119,74,0,

91,63,0,117,73,0,

90,63,0,117,73,0,

90,63,0,116,73,0,

89,63,0,115,71,0,

89,62,0,115,71,0,

88,62,0,114,71,1,

88,62,0,114,71,0,

88,61,0,114,71,0,

88,62,0,113,71,0,

87,61,0,113,71,0,

87,61,0,112,70,0,

86,60,0,112,70,0,

85,60,0,112,69,0,

85,60,0,111,69,0,

84,60,0,110,69,0,

83,59,0,110,68,0,

83,59,0,110,68,0,

83,59,0,110,67,0,

83,58,0,109,67,0,

82,58,0,109,67,0,

82,58,0,108,67,0,

81,57,0,108,67,0,

81,57,0,107,66,0,

81,57,0,107,66,0,

80,57,0,106,66,0,

81,57,0,106,65,0,

80,56,0,105,75,0,

79,56,0,105,74,1,

79,56,1,104,73,0,

79,56,0,103,73,0,

79,55,0,103,73,0,

78,55,0,103,71,0,

78,54,0,103,71,0,

78,54,0,103,71,0,

77,54,0,102,71,0,

77,54,0,102,71,0,

76,54,0,101,70,0,

76,53,0,101,70,0,

92,57,0,100,70,0,

92,61,0,100,69,1,

91,60,0,99,69,0,

90,60,0,99,69,0,

90,60,0,98,68,0,

89,59,0,98,67,0,

89,59,0,98,67,0,

89,59,0,98,67,0,

88,59,0,97,67,0,

88,58,0,96,67,0,

88,58,1,96,67,0,

87,57,0,96,66,0,

87,57,0,96,66,0,

86,57,0,96,66,0,

86,57,0,95,65,0,

85,56,0,95,65,0,

85,57,0,94,65,0,

85,56,0,94,64,0,

84,56,0,93,64,0,

83,56,0,93,64,1,

83,56,0,92,63,0,

83,56,0,92,63,0,

83,56,0,92,63,0,

83,55,0,92,63,1,

82,55,0,91,62,1,

82,55,0,91,62,0,

81,54,1,91,62,0,

81,54,0,90,62,0,

81,54,0,90,62,0,

80,54,0,89,61,0,

79,53,0,89,61,0,

79,53,0,89,61,0,

79,52,0,88,61,0,

79,52,0,88,60,0,

79,52,0,88,60,0,

78,51,0,88,60,0,

78,52,0,87,59,0,

78,51,0,87,59,0,

77,51,0,87,59,0,

77,51,0,86,59,0,

76,51,1,86,59,0,

76,51,0,86,58,0,

76,50,0,85,58,0,

75,50,1,85,57,1,

75,50,0,84,57,0,

75,49,0,84,57,0,

74,50,0,84,57,0,

74,49,0,83,56,0,

73,49,0,83,57,0,

73,49,0,83,56,0,

73,48,0,83,56,0,

73,48,0,82,56,0,

72,48,0,82,56,0,

71,48,0,82,55,0,

71,48,0,81,55,0,

71,47,0,81,55,0,

71,48,0,81,54,0,

71,47,0,80,54,0,

71,47,0,79,54,0,

70,47,0,79,54,0,

70,47,0,79,53,0,

70,46,0,79,53,0,

70,46,0,79,53,0,

70,46,0,79,53,0,

69,46,0,78,53,0,

69,46,0,78,52,1,

68,46,0,77,52,0,

68,46,1,77,52,0,

68,45,0,77,52,0,

67,45,0,77,51,0,

67,45,0,77,51,0,

67,45,0,76,51,0,

67,45,0,76,51,0,

66,44,0,75,51,0,

66,44,0,76,50,0,

66,44,0,75,50,0,

65,45,0,75,50,0,

65,44,0,82,49,1,

65,44,0,81,49,1,

65,44,0,81,50,0,

64,44,0,81,49,0,

63,44,0,80,49,0,

63,43,0,79,48,0,

63,43,0,79,48,1,

63,42,0,79,48,0,

63,43,0,79,48,0,

62,42,0,78,48,0,

63,42,0,78,48,0,

62,42,0,77,48,1,

75,42,0,78,47,0,

81,41,0,77,47,0,

80,41,0,77,46,1,

80,41,0,77,46,0,

79,41,0,76,46,0,

79,41,0,76,46,1,

79,40,0,76,46,0,

79,50,0,75,45,0,

78,54,0,75,45,0,

78,54,0,75,45,0,

77,54,1,74,45,0,

77,53,0,74,45,0,

77,53,0,73,45,0,

76,53,1,73,45,0,

76,52,0,73,44,0,

76,53,0,73,44,0,

76,52,0,73,44,0,

75,51,0,71,44,0,

75,51,1,71,44,0,

74,51,1,71,43,0,

74,51,0,71,43,0,

74,51,0,71,43,0,

73,51,1,71,43,0,

73,50,0,70,43,0,

73,50,0,70,43,0,

71,50,0,70,42,0,

71,50,1,109,52,0,

71,49,0,141,85,1,

71,49,0,144,85,0,

71,49,1,143,84,0,

71,49,0,142,83,0,

71,48,0,141,83,1,

70,48,0,141,82,0,

70,48,0,140,82,0,

69,48,0,140,81,0,

69,68,0,139,81,0,

69,68,0,138,81,0,

68,67,0,137,80,0,

68,67,1,135,80,1,

68,67,0,135,79,0,

67,67,0,135,79,0,

67,67,0,135,79,0,

67,66,0,135,79,1,

67,66,0,134,78,0,

67,65,0,133,78,0,

67,65,0,132,77,0,

66,65,0,132,77,0,

66,64,0,131,77,0,

66,64,0,131,76,0,

65,63,0,130,76,0,

65,63,0,129,76,0,

65,63,0,129,75,0,

65,63,0,128,75,0,

64,62,0,127,75,0,

64,62,0,127,74,0,

63,62,0,127,74,0,

63,61,0,126,73,0,

63,61,1,125,73,0,

63,61,0,125,73,1,

62,61,0,124,71,0,

62,60,0,124,71,0,

62,60,0,123,71,0,

61,60,0,123,71,1,

61,59,0,122,71,0,

61,59,0,122,71,1,

61,59,0,121,71,0,

60,59,0,121,70,0,

60,59,0,120,70,0,

60,58,0,120,69,0,

60,57,0,120,69,1,

59,57,0,119,69,0,

59,57,0,118,68,0,

59,57,0,118,68,1,

58,57,0,117,67,0,

58,56,0,116,67,0,

58,56,0,116,67,0,

58,56,0,115,67,0,

57,56,0,115,66,0,

57,55,0,115,66,0,

57,55,0,114,66,0,

57,55,1,113,65,0,

56,54,0,113,66,0,

56,66,0,113,65,0,

56,65,0,112,65,0,

56,64,0,112,65,1,

56,64,0,111,63,0,

55,64,0,111,63,0,

55,63,0,110,63,0,

55,63,0,110,63,0,

54,63,0,109,82,0,

54,63,0,109,83,0,

54,63,0,108,82,0,

53,62,0,108,81,0,

54,62,0,108,81,0,

53,62,0,108,80,0,

53,61,0,107,80,0,

53,61,0,106,79,0,

52,61,0,105,79,0,

52,60,0,105,79,0,

51,60,0,105,79,0,

51,60,0,103,78,0,

66,60,0,103,78,0,

71,60,0,103,78,0,

71,59,0,103,77,0,

71,59,0,103,77,0,

71,58,0,102,76,0,

70,58,0,102,76,0,

70,58,0,102,76,0,

69,57,0,101,75,0,

70,57,0,101,75,1,

68,57,0,100,74,0,

68,57,0,99,74,0,

68,57,1,99,74,0,

67,56,0,99,73,0,

68,56,0,98,73,0,

67,56,0,98,73,0,

67,55,0,98,73,0,

67,55,0,97,71,0,

66,55,0,97,71,0,

66,55,0,97,71,0,

66,55,0,96,71,0,

66,54,0,96,71,0,

65,54,0,96,71,0,

65,54,0,95,71,0,

65,53,0,95,70,0,

64,53,0,94,70,0,

64,53,0,94,69,0,

64,52,0,93,69,1,

63,52,0,93,68,0,

63,52,0,93,69,0,

63,52,0,93,68,0,

63,52,0,92,68,0,

63,51,0,92,67,0,

62,51,1,92,67,0,

62,51,0,91,67,0,

62,51,0,91,66,0,

61,51,0,90,66,0,

61,50,0,90,66,0,

61,50,0,90,66,1,

61,50,0,89,65,1,

60,50,0,89,65,0,

60,50,0,88,65,0,

59,49,0,88,65,0,

59,49,0,88,65,0,

59,49,1,88,64,0,

59,49,0,88,64,0,

59,52,0,88,63,0,

58,51,0,87,63,0,

58,51,1,86,63,0,

58,51,0,86,63,0,

58,51,0,86,63,0,

57,51,0,85,62,0,

57,51,0,85,62,0,

57,50,0,85,62,0,

58,51,0,84,61,0,

70,50,1,83,61,0,

70,76,0,84,61,0,

69,86,0,83,61,0,

69,85,0,83,60,0,

68,85,0,83,60,0,

68,84,0,82,60,0,

68,84,0,97,60,0,

68,83,0,142,60,0,

67,83,0,140,59,0,

67,83,0,139,59,0,

67,82,0,139,59,0,

67,82,0,138,58,0,

66,81,0,137,59,0,

66,81,0,137,58,0,

66,81,0,135,58,0,

65,79,0,135,57,0,

64,80,0,135,57,0,

64,79,0,134,56,1,

64,79,0,133,56,0,

64,79,0,133,56,0,

63,78,0,132,56,0,

63,78,1,131,56,0,

63,77,0,131,56,0,

63,77,0,130,56,0,

62,77,0,130,55,0,

62,77,1,129,55,0,

62,76,0,128,54,0,

61,76,0,127,54,1,

62,75,1,127,54,0,

61,75,0,127,54,0,

60,75,0,126,53,0,

60,74,0,126,53,0,

60,74,0,125,53,0,

60,74,1,125,53,0,

60,73,0,124,52,1,

59,72,0,124,52,0,

59,73,0,123,51,0,

59,71,0,122,51,0,

59,71,0,121,51,0,

58,71,0,121,51,0,

58,71,0,121,51,0,

57,71,0,120,51,0,

57,70,0,120,50,0,

57,70,0,120,50,0,

56,70,0,119,50,0,

57,69,0,118,50,0,

56,69,0,118,50,0,

56,69,0,117,49,0,

56,69,0,116,49,0,

56,68,0,116,49,0,

56,67,0,116,48,0,

56,67,0,115,48,0,

55,67,1,114,48,0,

55,67,0,114,48,0,

55,67,0,114,48,0,

54,66,0,113,48,0,

55,66,0,113,48,0,

54,65,0,112,47,1,

54,65,0,112,47,0,

54,65,0,111,47,0,

53,65,0,111,46,0,

54,65,0,110,46,0,

53,64,0,110,46,0,

53,63,0,110,46,0,

53,63,0,109,46,0,

52,124,1,109,46,0,

52,122,0,108,45,0,

51,122,0,108,45,0,

51,120,0,107,45,0,

51,120,0,107,45,0,

51,120,0,106,44,0,

51,118,0,105,44,0,

101,118,0,105,44,0,

101,117,0,105,44,0,

100,116,0,103,44,0,

99,116,0,103,43,0,

99,115,0,103,43,0,

98,115,0,103,43,0,

98,114,0,102,43,0,

97,113,0,102,42,0,

96,113,0,101,42,0,

96,112,1,101,42,0,

96,112,0,100,42,0,

95,111,0,99,41,0,

95,110,0,99,42,0,

94,110,0,99,41,0,

93,110,0,99,41,0,

93,109,0,98,41,1,

93,109,0,98,39,0,

92,108,0,98,39,0,

92,108,0,97,39,0,

92,107,0,97,39,0,

91,107,0,96,39,0,

91,106,0,96,39,0,

90,106,0,96,39,0,

89,105,0,96,39,0,

89,105,0,94,39,0,

89,103,0,94,39,0,

92,103,0,94,39,0,

110,103,0,93,39,0,

109,103,0,93,38,0,

109,102,0,93,38,0,

108,102,0,92,38,0,

108,101,0,92,38,0,

107,101,0,92,38,0,

106,100,0,91,37,0,

105,100,0,91,37,0,

105,99,0,91,37,0,

104,99,0,90,37,0,

127,99,0,89,36,0,

152,98,0,89,36,0,

150,98,0,89,36,0,

149,97,0,89,35,0,

147,97,0,89,36,0,

147,96,0,88,36,0,

147,96,0,88,35,0,

145,96,0,88,35,0,

145,95,0,88,35,0,

144,95,0,87,35,0,

143,94,0,86,35,0,

142,94,0,86,35,0,

142,93,0,85,34,0,

141,93,0,85,34,0,

141,92,1,85,34,0,

140,92,0,85,34,0,

140,92,0,84,34,0,

139,92,0,83,34,0,

138,91,0,83,34,0,

137,90,1,83,33,0,

137,90,0,83,33,0,

135,89,0,83,33,1,

135,89,0,82,33,0,

135,89,0,82,33,0,

135,88,0,81,33,1,

134,88,0,81,33,0,

133,88,0,81,32,0,

132,88,0,80,32,0,

131,87,0,80,32,0,

131,87,0,79,31,0,

131,86,0,79,31,0,

130,86,0,79,31,0,

130,85,0,79,31,0,

129,85,0,78,31,0,

128,84,0,78,31,0,

127,84,0,78,31,0,

152,83,0,78,31,0,

150,83,0,77,31,0,

149,83,0,77,31,0,

148,83,0,77,30,0,

147,82,0,77,30,0,

147,82,0,76,30,0,

146,82,0,76,30,0,

146,81,0,76,30,0,

145,81,0,75,30,0,

143,80,0,75,30,0,

143,80,1,74,30,0,

142,79,0,75,29,1,

142,79,0,74,30,0,

142,79,0,74,29,0,

141,79,0,73,29,0,

140,78,0,73,29,0,

139,78,0,73,29,0,

139,78,0,71,29,0,

138,77,0,71,28,0,

137,77,0,71,28,0,

137,77,0,71,28,0,

135,76,0,71,28,0,

135,76,0,71,28,0,

135,76,0,71,28,0,

135,75,0,70,28,1,

134,75,0,70,27,0,

133,75,0,70,28,1,

133,74,0,69,27,0,

131,74,0,69,28,0,

131,74,0,69,27,0,

131,74,0,68,27,0,

130,73,0,68,27,0,

130,111,0,68,27,0,

129,110,0,68,27,0,

128,110,0,67,26,0,

127,109,0,67,27,1,

127,108,0,67,26,0,

127,108,0,67,26,0,

159,107,0,67,25,0,

158,107,0,66,26,0,

157,106,0,66,25,0,

156,105,0,66,26,0,

156,105,0,65,25,0,

155,103,0,65,25,0,

153,103,0,65,25,1,

153,103,0,64,25,0,

152,103,0,63,25,0,

152,102,0,63,25,0,

151,102,0,63,25,0,

150,101,1,63,25,0,

149,101,0,63,24,0,

149,100,1,62,24,0,

148,99,0,62,24,0,

147,99,0,62,24,0,

146,99,0,62,24,0,

145,98,0,62,24,0,

145,98,0,61,24,0,

144,97,0,61,23,0,

143,97,0,61,23,0,

143,96,0,61,23,0,

142,96,0,60,24,0,

142,96,0,60,23,0,

141,96,0,60,23,0,

140,94,0,60,23,0,

140,94,0,60,23,0,

140,94,0,59,23,0,

139,93,0,59,22,0,

138,93,0,59,22,1,

137,93,0,59,22,0,

137,92,0,58,22,1,

135,92,0,58,22,0,

135,91,0,58,22,0,

135,91,0,57,22,0,

135,91,0,57,22,0,

134,89,0,57,22,0,

133,89,0,57,31,0,

133,89,0,57,31,0,

132,89,0,57,31,0,

131,89,0,56,31,0,

131,88,0,56,30,0,

130,88,0,56,30,0,

130,87,0,56,30,0,

129,87,0,56,30,0,

129,87,0,55,30,0,

127,86,0,55,30,0,

127,86,1,55,30,0,

127,85,0,55,107,1,

126,85,0,128,117,0,

125,84,0,127,115,1,

125,84,0,126,115,0,

124,83,0,125,114,0,

124,83,0,125,113,0,

123,82,0,124,113,1,

123,82,0,123,112,0,

122,82,0,122,112,0,

121,81,1,122,111,1,

121,81,0,121,110,0,

120,80,0,120,110,1,

120,80,0,120,109,1,

120,80,0,120,108,0,

119,79,0,119,108,0,

118,79,0,118,108,0,

118,79,0,118,107,0,

117,78,0,117,106,0,

116,78,0,116,105,0,

116,77,0,115,105,0,

115,77,0,115,103,0,

115,77,0,115,103,0,

114,76,0,114,103,0,

114,76,0,113,103,0,

113,76,0,113,102,0,

112,76,0,112,102,0,

112,75,0,112,101,1,

112,75,1,111,101,0,

111,74,0,111,100,0,

111,74,0,110,99,0,

110,73,1,110,99,0,

110,73,1,109,99,0,

109,73,0,109,98,0,

108,71,0,108,98,0,

108,71,0,108,97,0,

108,71,1,108,97,0,

107,71,0,107,97,0,

107,71,0,106,96,0,

106,71,0,105,96,0,

106,70,0,105,95,0,

105,70,0,103,94,0,

103,70,0,103,94,0,

103,70,0,103,94,0,

103,69,1,103,93,0,

103,69,0,103,93,0,

103,69,0,102,92,0,

103,68,0,102,92,0,

102,67,1,102,92,0,

102,67,0,101,91,0,

120,68,0,100,90,0,

119,68,0,100,90,0,

118,67,0,99,89,0,

117,67,0,99,89,0,

117,79,0,99,89,0,

117,79,0,99,89,0,

115,78,0,98,88,0,

115,78,0,98,88,0,

114,77,0,97,88,0,

114,77,0,97,87,0,

114,77,0,97,87,0,

113,77,0,96,86,0,

112,76,0,96,86,0,

112,76,0,96,86,0,

112,76,0,95,85,0,

111,75,0,94,85,0,

111,74,0,94,84,0,

110,74,0,94,83,0,

109,74,0,93,83,0,

109,73,0,93,83,0,

108,73,0,93,83,0,

108,73,0,92,82,0,

107,71,0,103,82,0,

107,71,0,108,81,0,

106,71,0,107,81,0,

106,71,0,106,81,1,

105,71,1,106,81,0,

105,71,0,105,80,0,

103,71,0,105,79,0,

103,70,0,103,79,0,

103,71,0,103,79,0,

103,70,0,103,79,0,

103,69,0,103,78,0,

102,69,0,103,78,0,

105,69,0,103,77,0,

103,69,0,102,77,1,

103,68,0,102,77,0,

103,68,0,102,76,0,

103,67,0,101,76,0,

102,67,0,100,76,0,

102,67,1,99,76,0,

101,67,0,99,75,0,

101,66,0,99,75,1,

100,66,0,99,75,0,

99,66,1,101,107,0,

99,66,0,120,114,0,

99,65,0,119,113,0,

99,65,0,118,112,0,

98,65,1,117,112,0,

98,64,0,117,111,0,

97,63,0,116,110,0,

97,63,0,115,110,0,

96,63,0,115,110,0,

96,63,0,114,109,0,

96,63,0,114,109,0,

95,63,0,113,108,0,

95,62,0,113,107,0,

94,62,0,112,107,0,

93,61,0,112,106,0,

93,61,0,111,105,0,

93,61,0,111,105,0,

92,61,0,110,105,0,

92,60,0,110,103,0,

92,60,0,109,103,0,

91,60,0,109,103,0,

91,59,0,108,102,0,

90,60,1,108,102,0,

90,59,0,107,102,0,

89,58,0,107,101,0,

89,59,0,106,101,0,

89,58,0,105,100,0,

89,58,0,105,99,0,

88,58,0,103,99,1,

88,58,0,103,99,1,

88,57,0,103,98,0,

88,58,0,103,98,0,

87,57,0,103,97,0,

86,57,0,102,97,0,

86,57,0,102,97,0,

85,57,0,101,96,0,

86,56,0,101,96,0,

85,56,0,101,95,0,

85,56,0,100,95,0,

84,56,0,100,94,0,

84,56,0,99,94,0,

83,56,0,99,94,0,

83,56,1,98,93,0,

83,56,1,98,93,0,

83,56,1,98,92,0,

82,56,0,97,92,0,

82,55,1,97,92,0,

82,55,0,97,91,0,

81,55,0,96,91,0,

81,54,0,96,90,0,

81,54,0,95,90,0,

92,54,0,95,90,0,

127,54,0,94,89,0,

126,53,0,94,89,0,

126,53,1,94,89,0,

125,53,1,93,88,0,

124,53,0,93,88,0,

124,52,0,92,87,1,

123,52,0,92,87,1,

123,52,0,92,86,0,

122,52,0,91,86,1,

121,51,0,91,85,0,

121,51,0,91,85,0,

120,51,0,90,85,0,

120,51,0,90,84,0,

119,51,0,89,84,0,

119,50,0,89,83,0,

118,50,0,88,83,0,

117,50,0,88,83,0,

117,50,0,88,83,0,

116,49,0,88,82,0,

115,49,0,87,82,1,

115,49,0,87,81,1,

115,49,0,86,81,0,

114,48,0,86,81,0,

113,48,0,86,80,0,

113,48,0,85,79,0,

112,48,0,85,79,1,

112,48,0,84,79,0,

111,48,0,84,79,0,

111,47,1,83,79,0,

110,47,0,83,78,0,

110,47,0,83,78,0,

110,47,0,83,78,0,

109,46,0,82,77,0,

109,46,0,82,77,0,

108,46,0,81,76,0,

108,46,0,81,76,0,

107,46,0,81,76,0,

107,45,0,81,76,1,

107,45,0,80,75,0,

106,45,0,79,75,0,

105,45,0,79,75,0,

105,45,0,79,74,0,

103,44,0,79,73,0,

103,44,0,79,73,0,

103,44,0,78,73,0,

103,44,0,78,73,0,

103,44,0,78,73,0,

102,43,0,77,71,0,

102,43,0,77,71,0,

101,43,0,77,71,0,

101,43,0,76,71,1,

100,43,0,76,71,0,

99,43,0,76,71,1,

99,42,1,76,71,0,

99,42,0,75,70,0,

98,42,0,75,70,0,

98,41,1,75,69,0,

97,41,0,75,69,0,

97,41,0,103,69,0,

97,41,0,102,69,0,

96,41,0,101,69,0,

96,41,0,100,68,0,

96,41,0,99,67,0,

95,39,0,99,68,0,

95,44,0,99,67,0,

94,44,0,98,67,0,

94,44,0,98,67,0,

93,93,0,98,67,0,

93,94,0,97,66,0,

93,93,0,96,66,0,

92,92,0,96,65,0,

92,92,0,96,68,0,

92,91,0,96,112,0,

92,91,0,96,111,0,

91,91,0,96,110,0,

90,90,0,95,109,0,

90,90,1,95,109,0,

89,89,0,94,108,0,

89,88,0,93,108,0,

89,88,0,93,107,0,

89,88,0,93,107,0,

88,87,0,92,107,0,

88,87,0,92,106,0,

88,86,0,92,105,0,

87,86,0,91,105,0,

87,86,0,91,103,0,

86,85,0,91,103,1,

114,85,0,90,103,0,

114,84,0,90,103,1,

113,84,0,89,102,0,

112,83,0,89,102,0,

112,83,0,88,101,0,

111,83,0,88,101,0,

111,82,0,88,100,0,

110,82,0,87,99,0,

110,81,1,87,99,0,

109,81,0,87,99,0,

108,81,0,86,98,0,

108,79,0,85,98,0,

108,80,0,85,116,0,

107,79,0,85,151,0,

106,79,0,84,150,0,

106,79,0,84,149,0,

105,78,0,83,147,0,

103,78,0,83,147,0,

103,78,0,83,146,0,

103,77,0,82,145,0,

103,77,0,82,145,0,

103,76,0,81,144,0,

102,76,0,81,143,0,

102,75,0,81,143,0,

102,75,0,81,142,0,

101,75,0,80,141,0,

100,75,0,79,141,0,

100,74,1,79,140,0,

99,74,0,79,139,0,

99,73,0,79,139,0,

99,73,0,78,138,0,

98,73,0,78,137,0,

97,71,0,78,150,1,

97,71,0,78,239,0,

97,71,0,77,329,0,

96,71,0,77,425,0,

96,71,0,77,419,0,

96,71,0,76,417,0,

95,71,0,76,414,0,

95,70,0,75,412,0,

94,70,0,75,409,0,

94,70,0,75,406,0,

93,69,0,75,403,0,

93,69,0,74,402,0,

92,69,0,74,399,0,

92,68,0,73,397,0,

92,68,0,73,395,1,

91,67,0,73,392,0,

91,67,0,73,390,0,

90,67,0,72,387,0,

90,67,0,71,385,0,

90,66,0,71,384,0,

89,66,0,71,381,0,

89,66,1,71,380,0,

88,65,0,71,377,0,

88,65,0,70,376,0,

88,65,1,70,373,0,

87,65,0,70,371,1,

88,64,0,70,369,0,

87,63,0,70,368,1,

86,63,1,69,365,0,

86,63,0,69,364,0,

85,63,0,69,362,0,

85,63,0,68,359,1,

85,63,0,124,482,0,

84,63,0,181,496,1,

84,62,0,179,491,0,

83,62,0,178,487,0,

83,62,0,177,484,1,

83,62,0,176,481,1,

82,62,1,175,478,0,

82,61,0,175,474,0,

81,61,1,174,472,0,

81,60,0,173,469,1,

81,60,0,172,465,1,

80,60,1,171,463,0,

80,60,1,170,459,1,

79,60,0,169,457,0,

79,60,0,169,453,1,

79,59,1,167,451,0,

79,59,0,167,449,1,

78,58,1,166,446,0,

78,58,0,165,444,1,

78,58,0,164,440,1,

77,57,0,163,438,0,

77,57,0,163,435,0,

77,57,0,162,433,1,

76,57,0,161,430,0,

76,57,1,160,427,0,

76,57,0,159,425,0,

76,56,0,159,423,0,

75,56,0,158,420,0,

75,56,0,157,418,1,

75,55,0,157,415,0,

73,55,0,156,413,0,

74,55,1,156,411,1,

73,55,0,155,408,1,

73,54,1,154,407,0,

71,54,1,153,403,1,

71,54,1,153,402,1,

72,53,0,152,399,1,

71,53,1,152,398,0,

71,53,0,151,395,1,

71,52,0,150,393,1,

71,52,1,149,391,0,

71,51,0,149,389,1,

70,52,1,148,387,0,

70,51,0,147,384,1,

70,51,1,146,382,1,

70,51,1,146,381,1,

69,51,1,145,379,0,

69,51,1,144,377,1,

69,51,1,143,375,1,

68,51,1,143,372,0,

68,50,1,143,370,1,

67,50,1,142,369,0,

67,50,1,141,367,0,

67,49,1,141,365,1,

67,49,1,140,363,1,

66,49,1,140,361,1,

66,48,0,139,359,1,

66,49,1,139,358,1,

65,49,1,138,355,0,

65,48,1,137,354,0,

65,48,1,135,352,1,

65,48,1,135,351,0,

64,48,1,135,348,0,

64,47,1,135,347,2,

64,47,1,134,345,1,

63,47,1,134,344,1,

63,47,1,133,342,1,

63,46,1,133,339,0,

63,46,1,131,339,0,

63,46,1,131,336,1,

62,46,1,131,335,1,

62,46,1,130,334,1,

62,45,1,130,332,1,

61,45,1,129,330,1,

61,45,1,129,327,1,

61,44,1,127,327,1,

61,44,1,127,326,1,

61,44,1,127,323,1,

60,44,1,127,322,1,

60,43,1,126,319,1,

60,44,1,125,319,1,

59,43,1,124,318,0,

59,44,1,124,316,1,

59,43,1,123,315,1,

59,43,1,123,313,0,

59,42,1,122,312,1,

58,43,1,121,311,0,

58,42,1,121,309,1,

57,42,1,121,307,0,

57,42,1,120,306,1,

57,41,1,120,305,0,

57,41,1,120,303,1,

57,41,1,119,302,1,

57,41,1,119,300,1,

56,41,1,118,299,0,

56,41,1,117,297,1,

56,40,1,117,295,1,

55,39,1,116,295,1,

55,39,1,116,293,0,

55,39,1,115,292,1,

54,39,0,115,291,0,

57,39,1,115,289,1,

57,39,1,114,289,1,

57,39,1,113,287,1,

57,39,0,113,286,1,

57,39,0,112,284,1,

56,38,1,112,283,1,

56,38,1,112,282,1,

56,38,1,111,280,0,

56,38,0,111,280,0,

55,38,1,110,278,1,

55,38,1,109,276,1,

55,38,0,109,275,1,

54,37,1,109,274,0,

54,37,1,108,273,1,

73,37,1,108,271,0,

71,36,1,108,271,1,

72,37,1,107,270,1,

71,36,1,106,268,0,

71,36,1,106,268,0,

71,35,1,105,266,0,

71,35,0,105,265,0,

70,35,1,105,263,1,

70,35,1,103,262,1,

70,35,1,103,262,1,

69,35,1,103,260,1,

69,35,1,103,259,1,

68,35,1,102,258,0,

68,35,1,102,257,1,

67,35,1,102,255,0,

67,37,1,101,254,0,

67,37,0,101,254,0,

67,37,1,100,252,0,

66,36,1,99,251,1,

67,54,1,100,251,1,

66,80,1,99,249,0,

66,80,0,99,248,1,

65,79,1,98,248,1,

65,79,1,98,246,0,

64,78,0,97,245,0,

64,78,1,97,244,1,

63,77,0,97,243,0,

63,77,1,97,242,1,

63,77,0,96,241,1,

63,77,1,96,240,1,

62,76,1,96,240,1,

62,76,0,95,238,1,

62,75,0,94,237,1,

61,75,1,94,236,1,

87,75,1,94,236,1,

86,74,0,108,235,1,

88,73,1,152,233,1,

88,73,0,150,231,0,

87,73,1,150,231,1,

86,73,1,147,231,1,

86,71,1,147,230,0,

85,71,0,147,229,0,

85,71,1,146,227,1,

84,71,1,145,227,0,

84,71,0,144,226,0,

83,70,1,143,225,1,

83,70,1,143,224,0,

82,70,0,143,223,0,

82,69,0,142,222,1,

82,69,0,141,222,0,

81,69,0,141,220,0,

80,71,1,140,220,1,

81,71,1,140,218,0,

80,71,1,138,217,0,

79,70,0,138,217,1,

79,70,0,137,216,1,

79,70,1,135,215,0,

78,69,1,135,214,1,

82,69,0,135,213,1,

83,69,1,135,211,0,

82,68,0,134,211,1,

82,68,0,133,211,1,

81,67,1,132,209,1,

81,70,0,132,209,1,

81,69,0,131,207,1,

80,69,0,131,207,1,

79,69,0,130,206,0,

79,68,1,130,205,1,

79,67,0,129,205,0,

78,67,0,129,204,1,

78,67,0,127,203,1,

78,67,0,127,202,1,

78,67,0,127,201,0,

77,66,0,126,199,1,

77,65,1,126,199,1,

77,65,0,125,199,0,

76,65,0,125,198,1,

76,65,0,124,197,0,

76,64,0,124,197,1,

75,63,1,123,195,1,

75,63,1,123,195,1,

74,63,0,121,194,0,

74,63,0,121,193,0,

74,63,0,121,192,1,

73,62,0,120,192,0,

73,62,0,120,191,0,

71,62,0,119,190,0,

72,62,0,119,190,0,

71,62,0,118,189,1,

71,62,0,131,215,0,

71,61,0,222,316,0,

71,61,0,252,371,1,

71,61,1,249,370,0,

71,61,0,248,367,1,

70,60,1,247,364,1,

70,60,1,245,361,0,

69,60,0,243,359,0,

69,59,0,243,358,0,

68,62,0,241,355,1,

68,62,0,240,353,0,

68,61,0,239,352,0,

67,61,0,238,349,0,

67,61,1,236,348,1,

67,61,0,235,345,0,

67,61,0,234,344,0,

66,60,1,233,342,0,

66,59,0,231,339,0,

67,59,0,231,338,0,

66,59,0,229,335,0,

66,59,0,228,335,0,

65,58,1,227,333,1,

65,58,0,226,331,0,

65,58,0,225,329,1,

64,57,0,224,327,0,

64,57,1,223,325,0,

63,57,0,222,323,0,

63,57,0,221,323,0,

63,57,1,220,319,0,

63,56,1,219,319,0,

63,56,0,217,317,0,

62,56,1,217,316,0,

62,56,0,216,314,0,

62,56,0,216,312,0,

62,56,1,214,312,0,

61,55,0,213,309,1,

61,55,1,211,307,0,

61,55,1,211,306,1,

60,54,1,210,305,1,

69,54,1,209,303,0,

74,53,1,207,302,0,

74,53,1,207,300,0,

73,53,1,206,299,1,

73,53,1,205,297,1,

73,52,1,204,295,0,

71,52,1,203,295,0,

71,52,1,203,293,0,

71,51,0,201,291,1,

71,51,0,199,290,1,

71,51,1,199,288,1,

71,51,0,199,287,0,

70,51,0,198,286,1,

83,51,1,197,284,0,

82,50,0,196,283,0,

81,50,1,195,281,0,

81,50,0,195,281,1,

80,49,1,194,280,1,

81,49,1,193,278,0,

79,49,0,192,277,1,

79,49,0,192,275,1,

79,48,1,190,274,1,

79,48,1,190,272,0,

78,48,0,189,271,0,

77,48,0,188,270,1,

77,48,1,187,269,0,

77,47,0,186,268,1,

76,47,1,185,267,1,

76,47,1,184,265,1,

76,47,0,184,263,1,

75,46,1,184,263,0,

75,46,0,182,262,1,

74,46,0,181,259,1,

74,46,0,181,259,1,

74,45,1,180,258,0,

73,45,1,179,257,0,

73,45,1,179,255,1,

73,45,0,177,254,1,

72,44,0,177,253,0,

71,45,1,176,252,1,

71,44,0,175,251,1,

71,44,1,174,249,1,

71,44,0,174,248,1,

71,43,1,173,248,1,

70,44,0,172,246,0,

70,43,0,172,245,1,

69,43,0,171,244,1,

69,43,0,171,243,1,

69,43,1,169,242,1,

69,42,1,169,240,0,

68,42,0,167,240,0,

67,42,1,167,239,1,

67,41,0,167,238,1,

67,41,1,166,236,1,

67,41,0,165,236,1,

67,41,1,164,235,1,

66,41,0,164,233,1,

65,41,1,163,231,1,

65,39,1,163,231,1,

65,39,0,162,231,1,

65,39,0,161,229,0,

64,39,0,161,228,1,

64,39,1,159,227,0,

63,39,1,159,226,1,

63,39,0,158,226,1,

63,39,1,158,224,1,

63,39,0,157,224,1,

63,39,1,157,223,1,

63,39,0,156,221,0,

62,38,1,155,221,1,

62,38,1,155,219,1,

61,37,0,154,219,1,

61,38,1,153,217,1,

61,37,0,153,217,1,

61,37,1,152,216,1,

61,37,1,152,215,1,

61,37,0,151,214,0,

61,37,1,150,213,1,

60,37,0,150,212,1,

60,36,0,149,211,1,

60,36,1,149,210,1,

59,36,0,147,209,1,

59,35,1,147,209,0,

59,35,0,147,207,1,

58,35,1,146,207,1,

58,35,0,145,206,1,

57,35,1,145,205,0,

57,35,1,143,204,0,

57,35,0,143,203,1,

57,34,0,143,203,1,

57,34,1,142,201,0,

56,34,0,142,201,1,

56,34,1,141,199,0,

56,34,0,141,199,0,

56,34,1,140,289,1,

56,33,0,140,299,0,

55,33,1,139,297,0,

55,33,0,139,295,0,

55,33,0,137,293,1,

54,33,0,137,291,0,

54,32,1,135,290,1,

54,32,0,135,288,1,

54,32,0,135,286,0,

53,31,1,135,285,0,

53,31,1,135,284,0,

53,31,0,134,282,0,

53,31,0,133,280,0,

53,31,0,133,279,0,

53,31,0,132,278,1,

52,31,0,131,275,1,

52,31,0,131,275,1,

52,39,0,131,273,1,

51,74,1,130,271,1,

51,73,0,129,271,1,

51,71,0,129,269,0,

51,71,0,129,268,1,

50,71,1,128,266,0,

50,71,0,127,265,0,

50,71,0,127,263,1,

49,71,0,127,263,0,

50,70,0,126,261,0,

49,70,0,126,259,1,

49,69,1,125,258,0,

49,69,0,125,257,1,

49,69,0,124,255,0,

48,68,0,123,255,1,

48,67,1,123,253,0,

48,67,0,122,252,0,

48,67,0,122,251,0,

48,67,0,121,249,0,

48,66,0,121,248,1,

47,66,0,121,247,0,

47,66,0,120,246,1,

47,66,0,120,245,0,

46,65,0,120,243,0,

47,82,0,119,242,0,

46,81,1,118,241,0,

46,80,0,118,241,0,

46,79,1,117,239,1,

46,79,0,117,238,0,

45,79,0,116,236,1,

45,79,1,115,236,0,

45,78,0,115,235,0,

45,78,0,115,233,1,

44,78,1,115,233,0,

44,77,0,114,231,0,

44,77,0,113,231,0,

44,76,0,113,229,1,

44,76,0,113,228,0,

44,75,0,112,227,0,

44,75,0,112,226,0,

43,75,0,111,225,0,

43,74,0,111,224,1,

43,74,1,110,223,0,

51,73,0,110,222,1,

50,73,0,109,221,0,

50,73,0,109,220,0,

50,71,0,109,219,1,

50,71,0,108,218,1,

49,71,0,108,217,1,

49,71,0,107,216,0,

49,71,0,107,216,1,

49,71,0,107,214,0,

48,71,0,106,213,0,

48,71,0,106,212,0,

48,71,1,105,211,0,

48,71,0,105,210,0,

47,70,0,105,209,0,

47,70,0,103,207,0,

47,69,0,103,207,0,

47,69,0,103,206,0,

46,68,0,103,205,1,

47,68,0,103,205,0,

46,67,1,102,204,0,

46,67,0,102,203,0,

45,67,1,101,202,0,

45,67,0,101,201,0,

45,67,1,101,199,1,

45,66,0,99,199,0,

45,66,0,100,199,1,

44,65,0,99,198,0,

44,65,0,99,197,0,

44,65,0,99,195,0,

44,65,1,98,195,0,

44,64,0,98,194,0,

43,63,0,97,194,1,

43,63,0,97,193,0,

43,63,0,97,192,0,

43,63,0,96,192,0,

43,63,0,96,191,0,

43,62,0,96,190,1,

43,62,0,96,189,1,

42,62,0,95,188,0,

42,61,0,95,188,1,

41,61,0,94,187,0,

41,61,0,94,186,0,

41,61,0,94,185,1,

41,60,0,93,185,0,

41,60,0,93,184,0,

41,60,1,93,184,0,

39,60,0,92,183,0,

41,59,0,92,182,0,

41,59,0,91,182,0,

41,59,1,91,180,0,

39,59,0,91,180,1,

39,58,1,90,179,0,

39,58,0,90,179,0,

39,58,0,89,178,0,

39,57,0,89,177,1,

39,57,0,89,177,0,

39,57,0,89,176,1,

39,57,0,89,175,1,

39,56,0,88,175,0,

39,56,0,88,174,0,

39,56,0,88,173,0,

39,56,0,87,172,0,

38,56,0,87,172,0,

38,56,0,86,171,0,

38,55,1,86,171,0,

38,55,0,86,170,0,

38,54,0,85,169,0,

37,54,0,85,169,0,

37,54,0,85,167,0,

37,54,0,84,167,1,

37,53,0,84,167,1,

37,53,0,84,166,0,

36,53,0,83,166,0,

36,52,1,83,165,0,

36,52,1,83,164,0,

36,52,0,83,163,0,

35,51,0,82,163,0,

35,67,0,82,163,0,

35,66,0,81,162,0,

35,66,0,81,161,1,

35,65,0,109,166,0,

35,65,0,110,171,1,

35,65,0,109,170,0,

35,64,1,109,169,0,

34,64,0,108,167,0,

34,63,0,108,167,0,

35,63,0,107,166,0,

34,63,0,106,165,1,

34,62,0,106,164,0,

34,62,0,106,163,0,

34,62,0,105,163,0,

33,62,0,103,162,0,

33,61,0,103,161,0,

33,61,0,103,161,0,

33,61,0,103,160,0,

33,60,0,103,159,0,

