
24,13,0,17,35,0,

24,14,0,17,35,0,

24,13,1,17,35,1,

24,14,0,17,35,3,

25,13,0,17,34,0,

24,13,0,16,34,0,

24,13,1,17,34,3,

24,13,0,16,34,3,

24,13,1,16,33,1,

24,13,0,16,33,3,

24,12,1,16,33,1,

24,13,0,16,33,0,

24,12,0,16,33,3,

24,13,1,15,33,1,

24,12,1,15,33,3,

23,12,1,16,32,0,

23,12,0,15,32,0,

23,12,1,15,35,1,

23,12,1,15,35,0,

22,12,1,15,34,0,

23,12,1,15,34,0,

23,12,1,15,34,3,

22,12,1,15,34,0,

22,12,1,15,33,3,

23,12,0,15,33,0,

22,12,1,15,33,1,

22,12,1,15,33,0,

22,12,1,15,33,3,

22,12,1,15,32,1,

21,11,1,15,32,0,

21,11,1,15,32,3,

21,11,0,15,32,0,

21,12,1,14,32,3,

21,11,1,14,31,3,

21,11,1,14,31,3,

21,11,1,14,31,1,

21,12,0,14,31,3,

21,11,1,14,31,0,

20,11,1,14,31,3,

20,11,1,14,31,3,

20,11,1,14,31,2,

20,11,1,14,30,3,

20,11,1,13,30,1,

20,11,1,13,30,0,

19,11,1,14,30,3,

20,11,0,13,30,2,

19,10,1,13,30,0,

19,10,1,13,30,0,

19,11,0,13,29,0,

19,10,1,13,29,0,

19,10,1,13,29,0,

19,10,1,13,29,2,

19,10,1,13,29,0,

19,10,1,13,29,0,

19,10,1,13,28,0,

19,10,1,15,29,3,

19,10,1,24,31,3,

21,10,0,23,31,0,

21,10,1,23,31,0,

21,10,1,24,31,3,

20,9,1,24,31,0,

20,9,1,23,30,1,

20,10,1,23,30,1,

20,15,1,22,30,0,

20,15,1,22,30,3,

20,15,0,22,30,0,

19,15,1,22,30,3,

20,14,1,22,29,3,

20,14,1,22,29,0,

20,14,1,45,39,2,

21,14,1,45,39,0,

21,14,0,45,39,0,

21,14,1,44,39,3,

21,14,1,44,38,1,

21,14,1,44,38,1,

21,17,1,44,38,3,

21,17,1,43,38,0,

21,17,0,43,38,3,

21,17,0,43,38,3,

21,17,1,43,37,0,

20,16,1,42,37,0,

19,16,1,42,37,0,

20,16,1,42,37,0,

20,16,1,42,37,1,

20,17,1,41,36,0,

19,16,1,41,36,0,

19,16,1,41,36,3,

19,16,1,41,35,0,

19,16,0,40,35,1,

19,16,1,39,35,0,

19,15,0,39,35,3,

19,16,1,39,35,0,

19,15,1,39,35,2,

19,16,1,39,34,0,

19,15,1,39,35,1,

19,15,1,39,35,0,

19,15,1,39,35,0,

19,15,1,39,35,3,

18,15,1,39,36,3,

18,15,0,39,35,3,

18,15,1,39,35,0,

18,14,1,38,35,1,

18,14,1,38,35,0,

18,14,1,38,34,1,

18,15,1,50,34,0,

18,14,1,49,34,3,

18,15,1,49,34,0,

18,14,0,49,34,3,

18,14,1,49,34,3,

17,14,1,48,34,3,

18,14,0,48,34,0,

17,14,1,48,33,3,

17,14,1,48,33,3,

17,14,0,48,33,1,

17,14,1,47,33,2,

17,14,1,47,32,1,

17,14,1,47,32,2,

16,13,1,46,32,3,

16,13,0,46,32,0,

16,13,1,46,32,3,

16,13,1,46,31,0,

16,13,1,46,31,0,

16,13,1,46,31,2,

15,13,0,45,31,0,

16,13,0,45,31,0,

16,13,1,45,31,0,

16,13,1,44,31,1,

15,13,1,45,31,3,

16,13,1,44,31,2,

15,13,1,44,31,0,

15,13,1,44,30,3,

15,13,0,43,30,3,

15,12,1,44,30,1,

15,12,0,43,30,2,

15,12,1,43,30,0,

15,12,1,43,30,0,

18,12,1,43,29,2,

18,12,1,43,29,1,

18,12,1,42,29,1,

18,12,1,42,29,3,

17,12,1,41,29,0,

17,12,1,41,29,1,

17,12,1,41,28,0,

17,12,0,41,28,0,

17,12,1,41,28,0,

17,11,1,40,28,3,

17,12,1,40,28,0,

17,12,1,40,35,2,

17,11,1,39,35,0,

16,12,1,39,35,0,

16,11,1,39,35,2,

16,11,0,39,35,4,

16,12,1,39,34,3,

16,12,1,39,35,0,

16,12,1,39,34,3,

16,12,1,38,34,0,

15,11,1,39,34,3,

16,11,1,39,33,0,

15,12,0,38,33,2,

15,11,0,38,34,0,

15,11,1,38,33,2,

15,11,1,38,34,2,

15,11,1,37,34,3,

15,11,1,37,34,3,

15,11,1,37,34,3,

15,11,1,37,33,0,

15,12,1,37,33,1,

15,12,0,37,33,0,

15,12,1,36,33,1,

15,12,1,36,33,2,

15,12,1,36,33,0,

15,11,1,36,32,0,

15,12,1,36,32,3,

15,11,1,35,31,0,

15,12,1,35,37,0,

15,11,1,35,39,2,

15,12,1,35,39,0,

15,11,1,35,39,0,

15,11,0,35,39,0,

15,12,1,35,38,1,

15,12,1,35,38,3,

15,12,1,34,38,0,

15,11,1,34,38,0,

15,12,1,34,38,3,

15,11,1,34,38,2,

15,11,0,34,38,0,

15,11,0,34,37,2,

15,11,1,34,39,0,

14,11,1,33,39,0,

14,11,1,33,39,2,

14,11,1,33,38,0,

14,14,1,33,38,1,

14,14,1,33,38,0,

14,13,1,33,38,0,

14,13,1,32,37,0,

14,13,1,31,37,0,

14,13,1,31,37,0,

14,13,1,31,37,0,

14,14,1,31,36,3,

13,13,1,31,36,0,

13,13,1,31,36,3,

14,13,1,31,36,0,

13,13,1,31,36,0,

13,18,1,31,35,0,

13,28,0,31,35,3,

13,27,1,31,35,3,

13,27,1,30,35,0,

13,27,1,30,35,3,

13,27,0,30,35,0,

13,27,0,30,35,3,

13,27,1,30,35,3,

13,26,1,29,34,2,

13,26,1,29,34,0,

12,26,1,30,39,2,

12,26,1,29,39,0,

12,25,1,29,39,3,

12,26,1,29,39,0,

12,26,1,29,38,2,

12,25,1,29,38,0,

12,25,1,29,38,0,

12,25,1,29,38,0,

12,25,0,28,38,3,

12,25,1,28,38,2,

12,25,1,28,37,0,

12,24,1,28,37,0,

12,24,1,28,37,0,

12,24,1,28,37,0,

12,24,1,27,36,0,

12,24,1,28,36,2,

12,24,1,28,36,3,

12,24,1,27,36,0,

12,24,1,27,36,0,

12,24,1,27,35,3,

11,24,1,27,35,2,

11,24,1,26,35,0,

11,23,1,26,35,0,

11,23,1,27,35,2,

11,23,1,26,35,0,

13,22,0,26,34,0,

13,23,1,26,35,2,

13,22,1,26,34,0,

12,23,0,26,34,0,

13,22,0,26,33,0,

12,22,1,25,34,3,

13,22,1,25,33,1,

13,22,0,25,33,0,

12,22,1,25,33,0,

12,22,0,25,33,0,

12,22,1,25,33,0,

12,22,1,25,33,0,

12,21,0,25,33,0,

12,21,1,25,39,3,

12,21,1,25,51,0,

12,21,1,25,51,3,

12,21,1,24,51,3,

12,21,1,24,51,0,

12,21,1,25,50,0,

12,21,1,24,50,3,

12,20,1,24,50,3,

11,20,1,24,50,0,

11,20,1,24,50,3,

11,20,1,24,49,0,

11,20,1,24,49,2,

11,19,1,24,49,2,

12,19,1,23,48,0,

11,19,1,24,48,3,

11,19,1,23,48,2,

11,19,0,23,48,0,

11,19,1,23,47,3,

11,19,1,23,47,3,

11,19,1,23,47,0,

11,19,0,22,47,0,

11,19,1,23,47,1,

10,19,0,22,46,0,

11,19,0,22,46,3,

11,18,1,22,46,0,

11,19,1,22,46,2,

10,18,1,22,46,2,

10,18,1,22,45,0,

10,18,1,22,45,0,

10,18,1,21,45,0,

10,18,1,21,44,0,

10,18,1,22,45,0,

10,17,1,29,44,0,

10,18,1,62,44,0,

9,17,1,62,44,3,

9,17,1,61,44,0,

10,18,1,61,44,0,

9,17,1,60,43,0,

9,17,1,60,43,0,

9,17,1,60,43,0,

9,17,1,59,43,0,

10,17,1,59,42,0,

10,17,0,59,42,3,

10,17,1,59,42,2,

10,16,0,58,42,3,

10,17,1,58,41,0,

9,17,1,57,41,3,

10,17,1,57,41,0,

10,17,1,57,41,0,

10,17,0,57,40,0,

9,17,1,57,41,0,

9,17,1,57,39,3,

9,17,1,56,39,0,

13,16,1,56,39,0,

38,17,0,56,39,1,

38,16,1,56,39,1,

38,16,1,56,39,1,

38,16,1,56,39,1,

37,16,1,55,39,1,

37,16,1,55,39,4,

37,16,1,54,39,3,

37,15,1,54,39,1,

37,15,1,54,38,1,

36,15,1,54,38,0,

36,15,1,54,38,1,

35,15,1,53,38,0,

35,15,0,53,37,2,

35,15,1,52,44,3,

35,15,1,52,48,0,

35,15,1,52,48,0,

35,15,1,51,48,3,

35,15,1,51,48,3,

34,15,0,51,48,1,

35,15,1,51,47,0,

34,15,0,51,47,3,

34,15,0,50,46,0,

34,14,1,50,46,1,

34,14,1,50,46,3,

34,14,0,50,46,1,

33,14,1,50,46,0,

34,14,0,49,45,3,

33,14,1,49,45,3,

33,14,1,49,45,1,

33,14,0,49,45,1,

32,14,1,49,44,1,

32,13,1,48,44,1,

33,13,1,48,44,1,

31,13,1,48,44,1,

31,14,0,48,43,1,

31,13,1,48,43,3,

31,13,1,47,43,0,

31,13,1,47,43,3,

31,13,1,47,43,3,

31,13,1,47,43,1,

31,13,1,46,43,0,

31,13,1,46,42,3,

31,13,1,46,42,3,

30,13,0,46,41,1,

30,13,1,45,41,3,

30,13,1,46,41,1,

30,13,1,45,41,3,

30,12,1,45,41,3,

30,12,1,45,41,0,

29,12,1,45,41,3,

30,12,0,44,39,3,

29,12,1,44,39,1,

31,12,1,44,39,3,

35,12,0,44,39,1,

35,12,0,44,39,0,

34,12,1,44,39,3,

34,12,1,43,39,2,

34,12,0,43,39,1,

34,12,1,43,39,3,

34,12,1,43,39,0,

34,12,1,54,38,3,

33,11,1,54,39,3,

33,11,1,54,38,1,

33,11,0,53,38,1,

33,11,1,53,38,1,

32,11,1,53,37,0,

32,11,1,53,37,2,

32,11,1,52,37,1,

31,11,1,52,37,0,

31,13,1,52,37,3,

31,21,1,51,37,0,

31,22,1,51,37,1,

31,22,1,51,36,0,

31,22,0,51,36,3,

31,22,1,51,36,0,

31,21,1,50,35,3,

30,21,1,50,35,0,

30,20,1,50,35,1,

30,21,1,50,36,1,

30,20,0,49,36,1,

30,20,1,49,36,3,

30,20,1,49,36,3,

29,20,0,49,35,3,

29,20,1,49,35,1,

29,19,0,48,35,1,

29,20,1,48,35,1,

29,19,1,48,35,2,

29,20,0,48,35,1,

29,19,1,47,34,3,

29,19,1,47,34,0,

28,19,0,47,34,3,

29,19,1,47,34,3,

28,19,1,46,34,3,

28,19,1,46,35,1,

28,19,1,46,34,3,

28,19,1,46,34,1,

28,19,1,46,34,1,

27,19,1,45,34,2,

28,19,1,45,33,1,

27,18,1,45,33,3,

27,18,1,45,33,3,

27,18,0,45,33,0,

27,18,1,44,33,3,

27,18,1,44,32,0,

27,18,1,44,32,0,

26,18,1,44,32,2,

26,17,1,44,31,3,

26,17,1,43,32,0,

26,19,1,43,31,2,

26,20,1,43,31,1,

26,20,1,43,31,3,

26,20,1,43,31,3,

25,19,1,43,31,0,

25,20,1,42,31,3,

25,19,1,42,31,3,

25,19,1,42,31,1,

25,19,0,41,30,3,

25,19,1,41,30,1,

25,19,1,41,30,0,

25,19,1,41,30,2,

25,19,1,41,30,1,

24,19,1,41,30,1,

24,18,0,41,30,3,

24,19,1,39,30,0,

24,18,0,39,30,1,

24,18,1,39,29,0,

24,18,0,39,29,0,

24,18,1,39,29,0,

24,18,1,39,29,3,

24,18,1,39,28,0,

23,18,0,39,29,2,

24,18,1,39,29,1,

23,18,1,39,30,0,

23,18,1,39,30,3,

23,18,1,39,30,3,

22,17,1,38,29,0,

23,17,1,38,29,0,

23,17,1,38,29,3,

22,17,0,38,29,1,

22,17,1,38,29,3,

22,17,1,37,29,0,

22,17,0,37,28,3,

22,17,1,37,28,0,

22,17,1,37,28,3,

21,16,1,37,28,3,

22,16,1,36,28,3,

21,16,1,36,28,0,

21,16,1,36,28,3,

21,16,1,35,28,3,

21,16,1,36,28,1,

21,15,1,35,27,1,

21,16,1,35,27,1,

21,16,1,35,27,2,

21,15,1,35,27,0,

20,15,1,35,27,0,

20,15,1,35,26,2,

22,15,1,35,26,0,

22,15,1,35,26,0,

21,15,1,35,26,3,

21,15,1,34,26,3,

22,15,1,34,26,0,

21,15,1,34,26,0,

21,15,1,33,25,1,

21,14,1,34,25,3,

21,15,1,33,25,0,

21,14,1,33,25,0,

21,14,1,33,25,3,

20,14,0,33,25,3,

21,14,0,33,25,1,

25,14,1,33,25,3,

25,14,1,33,25,1,

25,14,0,32,25,0,

25,14,0,31,25,3,

24,14,1,32,24,1,

24,14,1,31,24,1,

24,16,1,31,24,1,

24,16,1,31,24,0,

24,16,1,31,24,1,

24,16,0,31,24,0,

24,15,0,31,24,0,

24,16,1,31,24,0,

23,15,1,31,24,3,

24,15,1,31,23,0,

24,15,0,30,28,3,

24,15,1,30,30,0,

24,15,0,30,30,1,

24,15,0,30,30,0,

24,15,1,30,30,3,

24,15,1,30,29,1,

24,15,1,30,29,1,

23,14,1,30,29,3,

24,15,1,29,29,1,

24,14,1,29,29,3,

23,15,1,29,28,3,

23,14,1,29,28,2,

22,14,1,29,28,1,

31,14,1,29,28,3,

30,14,1,29,28,0,

30,14,1,29,28,3,

30,14,1,29,28,3,

30,14,0,28,28,2,

30,13,1,28,27,3,

30,14,1,28,27,1,

29,13,0,28,27,1,

29,14,1,28,27,4,

29,13,1,28,27,2,

28,13,1,27,27,0,

28,13,1,28,27,0,

28,13,1,27,26,0,

28,13,1,27,26,0,

28,13,0,27,26,0,

28,13,1,27,26,2,

28,12,1,27,26,1,

28,13,1,27,25,1,

28,13,0,26,26,1,

28,13,1,26,25,4,

27,13,1,26,25,3,

27,13,1,26,25,0,

27,12,1,26,25,0,

27,12,1,26,24,3,

27,12,0,26,25,0,

27,12,1,25,24,1,

30,12,0,25,24,3,

30,12,1,26,25,1,

29,12,1,25,25,0,

30,12,0,25,25,1,

29,12,1,25,24,3,

29,12,1,25,24,1,

29,12,1,25,24,1,

29,12,1,25,24,1,

29,12,0,25,24,1,

29,12,1,24,24,1,

29,11,1,24,24,0,

28,12,1,24,23,1,

28,11,1,24,23,3,

31,11,1,24,24,1,

31,11,0,24,24,3,

31,11,1,24,24,3,

31,11,1,23,23,1,

31,11,1,24,24,0,

31,11,1,24,23,3,

30,11,1,23,23,3,

30,10,1,23,23,1,

30,10,1,23,23,3,

30,10,0,24,23,1,

30,10,1,23,23,3,

30,10,1,23,22,3,

30,10,1,23,22,0,

32,10,1,22,25,3,

35,10,1,22,25,3,

35,10,1,22,25,1,

35,10,1,22,25,3,

35,11,1,22,24,3,

34,11,1,22,24,0,

34,10,1,21,24,3,

34,11,1,22,24,1,

34,10,0,21,24,1,

34,10,1,21,24,4,

34,10,1,21,24,0,

34,10,1,21,24,3,

33,10,1,21,24,3,

33,10,1,21,24,1,

33,10,1,21,25,0,

33,9,1,21,24,1,

32,10,1,21,24,0,

32,10,1,20,24,3,

32,10,1,20,24,1,

31,10,1,20,24,1,

31,10,1,20,24,3,

32,9,1,20,24,3,

31,10,0,20,24,3,

31,9,1,20,24,1,

31,9,1,19,24,1,

31,10,1,20,23,1,

31,9,0,19,24,2,

31,9,1,19,27,1,

30,9,0,19,27,3,

30,9,0,19,26,3,

30,9,1,19,26,3,

30,9,1,19,26,1,

30,9,0,19,25,1,

30,9,1,19,25,0,

29,9,1,18,25,3,

29,9,1,19,25,3,

30,9,1,19,25,1,

29,9,1,19,25,0,

29,9,1,18,25,1,

29,9,1,18,24,0,

29,9,1,24,31,0,

28,9,0,23,31,3,

28,7,0,24,31,0,

29,9,1,22,31,0,

29,8,1,23,30,3,

28,8,1,22,31,1,

28,9,1,22,30,0,

28,8,1,23,30,3,

28,9,0,22,30,1,

28,9,0,22,30,3,

27,9,1,22,29,1,

27,8,1,22,30,0,

27,8,1,21,29,1,

27,7,1,22,29,1,

27,8,1,21,29,1,

27,7,1,21,29,3,

27,7,1,21,29,0,

27,7,0,21,29,3,

26,12,1,21,29,0,

26,12,1,21,28,1,

26,13,1,21,28,1,

26,12,0,20,28,2,

26,12,1,20,28,1,

25,12,1,20,28,3,

25,12,1,20,27,3,

25,12,0,20,27,0,

25,12,1,20,27,3,

25,11,0,20,27,3,

25,11,0,20,27,1,

25,11,1,19,27,3,

25,11,0,19,27,1,

25,11,1,21,27,0,

24,11,0,20,26,1,

24,11,0,20,26,1,

24,11,1,20,26,0,

24,11,1,19,26,3,

24,11,1,19,25,0,

24,11,0,19,26,1,

24,10,1,19,25,0,

24,11,1,19,25,0,

24,11,0,19,25,0,

24,10,0,19,25,3,

23,10,0,19,25,0,

23,10,0,19,25,2,

23,10,1,19,25,0,

23,11,1,19,25,0,

23,14,0,19,25,3,

22,14,0,19,24,3,

22,14,1,19,25,1,

23,14,0,19,24,0,

22,14,1,18,24,3,

22,13,0,19,24,1,

22,13,1,56,24,3,

22,14,1,55,24,0,

22,13,0,55,25,3,

22,13,1,54,24,1,

22,13,0,54,25,3,

21,13,1,54,24,3,

21,13,0,53,24,3,

21,13,1,53,24,0,

21,13,1,53,24,3,

21,13,1,53,24,3,

21,13,1,52,24,1,

21,13,1,52,24,0,

21,13,0,52,24,1,

21,13,1,51,24,2,

21,13,1,51,24,0,

20,12,1,51,24,0,

20,12,0,51,24,3,

20,12,1,51,24,0,

20,12,0,51,24,0,

19,12,1,50,24,3,

19,12,1,50,24,0,

19,12,1,50,24,0,

19,12,0,49,24,1,

19,12,1,49,24,1,

19,12,1,49,23,3,

19,12,0,48,23,0,

19,12,1,48,23,0,

19,12,1,48,23,3,

24,12,0,48,23,2,

24,11,0,48,23,1,

24,11,1,48,23,3,

23,11,1,47,22,0,

23,11,0,47,22,0,

23,12,0,47,22,3,

23,11,1,47,22,1,

23,12,1,46,22,1,

22,11,1,47,22,0,

22,11,1,46,22,0,

23,11,1,46,22,1,

22,11,1,46,22,0,

22,11,1,46,25,0,

22,11,1,45,26,0,

22,11,1,45,27,3,

22,11,1,45,26,0,

21,11,1,45,27,3,

22,11,0,44,26,0,

21,11,0,44,26,1,

21,10,1,44,25,0,

21,10,1,44,26,3,

21,10,1,44,25,1,

21,10,1,44,25,1,

21,10,1,43,25,3,

21,10,1,43,25,1,

21,10,1,43,25,3,

20,10,1,43,25,3,

20,10,1,43,24,2,

20,10,1,42,24,1,

20,10,1,42,24,3,

20,10,1,42,24,0,

19,10,1,41,24,3,

20,10,1,41,24,0,

19,10,0,41,24,3,

19,10,1,41,24,0,

19,10,0,41,24,1,

19,9,1,41,23,0,

19,10,1,41,23,3,

19,9,1,40,24,2,

19,9,1,40,24,0,

19,9,1,39,24,0,

19,9,0,39,24,3,

19,9,1,39,23,0,

19,9,1,39,23,0,

19,9,1,39,23,3,

19,9,1,39,23,3,

19,9,1,39,23,0,

19,9,1,39,22,2,

18,9,1,38,22,3,

18,9,1,39,22,0,

18,9,0,38,22,3,

18,9,1,38,22,1,

18,9,1,38,22,2,

18,9,1,38,30,0,

18,9,1,37,30,0,

18,9,1,37,30,3,

18,9,0,37,29,0,

17,9,0,37,29,3,

18,9,1,37,29,3,

17,9,1,37,29,3,

17,9,1,37,29,0,

17,9,1,36,28,3,

18,8,1,36,29,2,

17,9,1,36,28,0,

17,7,0,36,28,0,

17,9,1,35,28,0,

17,7,1,35,28,2,

16,7,1,35,28,0,

17,7,0,35,28,2,

16,9,0,35,28,1,

16,8,1,35,28,0,

16,7,1,35,27,3,

17,11,1,35,27,3,

16,16,1,34,27,2,

16,16,1,34,27,0,

16,16,0,34,27,0,

16,16,1,34,26,1,

15,15,1,34,27,0,

15,15,1,33,26,0,

15,15,0,33,26,0,

15,15,1,33,31,3,

15,15,1,33,32,0,

15,15,0,33,32,3,

15,15,1,33,33,3,

15,15,0,32,31,0,

15,18,1,33,31,0,

15,22,0,32,31,3,

15,22,1,32,31,3,

15,22,1,32,31,0,

14,22,1,32,31,3,

14,22,1,31,31,0,

15,21,1,31,31,2,

14,21,1,31,31,2,

15,21,1,31,44,0,

14,21,1,31,45,3,

15,21,1,31,44,2,

14,21,1,31,44,0,

14,21,1,31,44,2,

14,20,0,31,43,3,

14,21,0,31,43,0,

14,20,1,30,43,0,

14,20,1,30,42,1,

14,20,1,30,42,1,

14,20,1,30,42,3,

14,19,0,29,42,0,

14,19,1,30,42,3,

13,19,1,30,41,2,

14,19,1,29,41,0,

14,19,1,29,41,0,

14,19,1,29,41,0,

14,19,1,29,41,0,

14,19,1,29,41,1,

14,19,1,29,39,0,

14,19,1,29,39,0,

13,19,1,28,39,3,

13,19,0,28,39,0,

13,18,0,28,39,0,

13,18,1,28,39,0,

13,18,0,28,39,2,

13,18,1,28,39,0,

14,18,1,28,38,2,

14,18,1,28,38,0,

14,18,0,27,39,1,

14,18,0,27,38,0,

14,18,1,27,38,3,

13,17,1,27,38,3,

14,17,1,27,38,3,

13,17,0,27,38,3,

13,17,0,27,37,0,

13,17,0,26,37,0,

13,17,1,26,37,0,

13,17,1,26,37,1,

13,17,1,26,37,0,

13,17,1,26,36,3,

14,17,0,26,36,0,

13,16,1,26,36,3,

13,16,1,25,35,3,

13,16,1,25,36,3,

13,16,1,25,36,3,

13,16,1,25,35,3,

13,16,1,25,35,3,

13,16,1,25,35,0,

13,15,1,25,35,1,

13,15,1,25,35,0,

13,16,1,25,35,2,

13,16,1,24,35,3,

13,15,1,25,35,0,

13,15,1,24,35,2,

13,15,1,24,34,0,

12,15,1,24,34,0,

13,15,1,24,34,2,

12,15,1,24,34,3,

13,15,1,24,33,0,

12,15,1,24,33,0,

13,15,1,24,33,1,

12,15,1,24,33,3,

12,15,1,24,33,3,

12,14,0,23,33,0,

12,15,1,23,33,2,

12,14,1,23,33,3,

12,14,0,23,32,0,

12,14,0,23,32,3,

11,14,1,22,32,0,

12,14,1,22,31,0,

11,14,1,23,31,1,

11,14,1,22,31,0,

11,14,1,22,31,0,

11,14,1,22,31,3,

11,13,1,22,31,0,

11,14,1,21,30,0,

11,14,1,22,31,0,

12,13,0,22,31,0,

13,14,1,22,35,0,

13,13,1,21,34,3,

13,13,0,22,34,0,

12,19,1,21,34,2,

12,19,1,21,34,0,

12,19,0,21,34,0,

12,19,1,21,34,2,

12,18,1,21,34,3,

12,18,1,21,34,3,

12,18,1,20,33,0,

12,18,1,20,32,3,

12,18,0,20,33,0,

13,18,1,19,32,3,

15,18,0,20,32,0,

15,18,0,19,32,3,

15,18,1,19,32,0,

14,18,0,20,31,3,

14,18,1,19,31,2,

14,18,1,19,31,3,

14,17,0,19,31,0,

14,17,1,19,31,3,

14,17,1,19,31,0,

14,17,1,19,31,0,

13,17,0,19,31,0,

14,17,1,19,30,1,

14,17,1,28,31,2,

14,16,1,28,31,0,

14,17,0,28,31,0,

14,17,1,28,31,3,

13,16,1,28,30,0,

13,16,1,28,30,0,

13,16,1,27,30,2,

13,16,1,27,30,2,

13,16,1,27,30,0,

13,16,1,27,30,0,

13,16,1,27,29,1,

12,16,0,27,29,2,

13,16,1,27,29,0,

14,15,1,26,29,0,

14,16,1,26,29,3,

14,15,0,25,29,2,

14,15,0,26,29,1,

13,15,1,26,29,2,

13,15,1,25,28,0,

13,15,1,25,29,0,

13,15,1,25,29,0,

13,15,1,25,28,0,

13,15,1,25,28,0,

13,14,1,25,28,0,

13,15,0,24,28,0,

13,14,0,25,28,0,

13,15,1,25,27,0,

13,15,0,25,29,0,

13,14,1,25,29,0,

13,14,1,25,28,3,

13,14,1,25,28,0,

13,14,1,24,28,3,

13,14,1,24,28,0,

13,15,1,24,28,0,

13,14,1,24,28,0,

13,14,0,24,28,3,

13,14,1,24,27,3,

12,14,1,24,27,0,

12,13,1,24,27,3,

12,14,0,24,27,0,

12,14,1,23,27,3,

13,14,0,23,27,3,

13,13,0,23,27,2,

13,13,1,23,27,0,

13,13,1,24,27,2,

12,13,1,25,26,0,

13,13,1,25,27,3,

13,13,1,25,26,3,

12,13,0,25,26,2,

12,12,1,25,26,0,

12,13,1,24,26,1,

12,12,1,24,26,0,

12,12,1,24,25,3,

12,12,0,24,27,2,

12,12,1,24,26,0,

12,12,1,24,26,0,

12,12,1,24,25,0,

12,12,1,24,25,0,

12,12,1,24,25,0,

12,12,1,24,25,2,

11,12,1,24,25,3,

12,12,1,23,25,0,

12,12,1,23,25,0,

11,12,1,23,25,3,

11,12,1,23,25,3,

12,12,0,23,31,0,

12,12,1,28,63,0,

12,12,0,71,63,2,

12,12,0,71,62,0,

12,11,0,70,61,1,

12,11,0,69,61,2,

12,11,1,69,61,0,

12,12,0,69,61,0,

12,12,1,69,60,0,

11,12,1,68,60,3,

12,11,1,67,59,0,

11,11,1,67,59,0,

11,11,1,67,59,0,

11,11,1,67,59,0,

11,11,1,66,58,0,

11,11,0,66,58,0,

11,11,1,66,58,0,

11,11,1,65,57,3,

12,11,1,65,57,0,

11,11,0,65,57,3,

11,10,1,65,57,3,

11,10,0,65,56,0,

11,11,1,63,56,0,

11,10,1,63,56,3,

10,11,1,63,56,3,

10,10,0,63,55,0,

11,10,0,63,56,3,

10,10,0,63,55,0,

11,11,1,62,54,2,

11,10,1,62,54,3,

11,10,0,62,54,0,

10,11,1,61,54,3,

11,13,1,61,54,2,

10,14,1,61,53,0,

10,13,1,61,53,3,

10,13,1,60,53,3,

10,13,1,60,52,0,

10,13,1,60,52,0,

10,13,1,60,52,1,

10,13,1,60,51,0,

21,13,1,59,51,3,

21,13,1,59,51,0,

21,13,1,59,51,3,

21,27,1,58,51,3,

21,39,0,58,51,0,

21,39,0,58,50,0,

20,39,1,57,50,1,

20,39,1,57,50,0,

20,38,1,57,50,0,

20,38,1,57,49,1,

20,38,1,57,49,1,

20,38,1,57,49,3,

20,38,1,56,49,0,

20,37,1,56,49,0,

20,37,1,56,48,0,

20,37,0,56,48,3,

20,37,0,55,48,0,

19,46,1,55,47,2,

19,48,0,54,47,0,

20,48,1,54,47,1,

19,48,0,54,47,0,

19,47,0,54,47,1,

19,47,1,54,47,3,

19,47,1,54,46,4,

19,47,0,53,46,3,

19,47,1,53,46,0,

19,46,1,53,46,1,

20,46,0,52,45,0,

20,46,1,52,45,2,

19,46,1,52,45,1,

19,45,1,52,45,3,

19,45,1,52,45,1,

20,45,0,51,44,3,

19,44,1,51,44,3,

19,44,1,51,44,3,

19,44,1,51,44,0,

19,44,0,51,44,3,

19,43,1,51,43,3,

19,43,1,51,43,1,

18,43,1,50,43,2,

19,43,1,50,43,1,

18,43,1,50,43,3,

18,42,1,49,42,3,

19,42,1,49,42,0,

18,42,1,49,42,3,

18,42,1,49,42,0,

18,41,0,49,41,0,

17,42,1,49,41,2,

18,41,1,48,41,0,

18,41,1,48,41,0,

17,41,1,48,41,0,

17,41,1,48,39,1,

17,41,1,48,39,3,

17,41,1,48,39,3,

17,39,1,47,39,0,

17,39,1,47,39,3,

17,63,1,47,39,2,

17,63,1,46,39,1,

17,63,1,46,39,3,

17,62,1,46,39,0,

16,62,1,46,39,0,

17,61,0,46,39,2,

16,61,1,46,39,1,

16,61,1,45,38,0,

16,61,1,45,38,3,

16,60,1,45,38,0,

16,60,1,45,38,0,

16,60,1,45,38,0,

16,59,1,45,38,0,

15,59,1,44,37,0,

15,59,1,44,37,3,

15,58,1,44,37,0,

15,58,1,44,37,2,

15,58,0,43,37,0,

15,57,1,43,37,0,

15,57,1,43,37,3,

15,57,1,43,36,3,

15,57,0,43,36,3,

16,56,1,42,36,0,

18,56,1,42,36,3,

18,56,0,42,36,0,

18,56,1,42,35,3,

18,56,1,42,35,0,

17,56,1,41,35,3,

17,55,1,41,35,1,

17,54,1,41,35,3,

17,54,0,41,35,2,

17,54,1,41,35,2,

17,54,1,41,34,3,

17,54,1,39,34,2,

16,53,1,39,34,0,

17,53,1,39,34,1,

17,53,1,39,34,0,

17,53,1,39,34,1,

17,52,1,39,34,2,

17,52,1,39,33,0,

17,51,1,39,33,0,

17,51,0,39,33,3,

17,51,1,39,33,0,

16,51,1,39,33,0,

16,51,1,38,33,2,

16,51,1,38,33,3,

16,50,1,38,32,0,

16,50,1,38,31,0,

16,50,1,38,31,1,

16,50,1,38,31,3,

17,49,1,37,31,0,

16,49,1,38,31,0,

16,49,1,37,31,3,

15,48,0,37,31,2,

15,48,1,37,31,1,

15,48,0,37,31,2,

15,48,1,36,31,0,

15,48,1,37,31,0,

15,48,1,36,30,2,

15,48,1,35,30,0,

15,48,1,36,30,1,

15,47,1,35,31,0,

15,47,0,35,46,0,

15,47,1,35,45,1,

15,46,1,35,45,0,

15,46,0,35,45,0,

15,46,0,35,45,0,

15,46,1,35,44,3,

15,45,1,35,44,0,

15,45,0,34,44,3,

15,45,0,34,44,0,

15,45,1,34,44,0,

15,45,1,34,43,0,

15,44,1,34,43,3,

24,44,1,33,44,3,

25,44,0,33,44,0,

25,44,1,33,44,3,

25,44,1,33,44,1,

24,43,1,33,44,3,

24,44,1,33,43,3,

24,43,0,32,43,3,

24,43,1,32,43,1,

24,43,1,32,42,2,

24,42,0,31,42,0,

24,42,1,31,42,3,

24,42,0,32,41,0,

24,41,1,31,41,2,

24,41,1,31,42,3,

23,42,1,31,49,1,

24,41,0,43,63,1,

23,41,0,42,63,3,

24,41,0,43,63,2,

23,41,1,41,62,0,

23,41,1,41,62,0,

23,39,0,41,62,0,

23,39,1,41,61,0,

22,39,1,41,61,0,

22,39,1,41,61,2,

22,39,1,41,60,2,

22,39,1,39,60,0,

25,39,1,40,60,0,

25,39,1,39,60,4,

25,39,1,39,59,3,

25,39,0,39,59,0,

25,39,0,39,59,0,

25,38,1,39,58,3,

25,38,0,39,58,0,

25,38,0,39,57,1,

25,38,1,39,57,3,

25,37,1,38,57,1,

24,38,1,38,57,0,

24,37,0,38,57,3,

24,37,1,38,57,3,

24,37,1,38,56,1,

24,37,0,38,56,1,

24,36,1,38,56,0,

24,36,0,37,55,1,

24,36,1,37,55,0,

24,39,1,37,55,0,

23,40,1,36,55,1,

24,39,1,36,54,3,

23,39,1,36,54,0,

23,39,0,36,54,3,

23,39,1,35,54,3,

22,39,1,36,54,0,

22,39,1,35,53,0,

22,39,1,35,53,3,

22,39,1,35,52,1,

22,39,1,35,52,1,

22,38,0,35,52,3,

22,38,0,35,52,1,

22,38,1,34,52,3,

22,38,1,35,51,3,

21,37,0,34,51,0,

21,38,1,34,51,3,

21,37,0,34,51,2,

21,37,0,34,50,0,

21,37,1,33,51,3,

21,37,1,34,50,3,

21,36,1,33,50,0,

21,36,1,33,49,3,

21,36,1,33,50,1,

22,36,1,33,49,1,

23,35,1,32,49,3,

22,35,1,32,49,0,

22,35,1,32,49,3,

22,35,1,32,48,3,

22,35,1,32,48,0,

22,35,1,31,48,0,

22,34,0,31,48,0,

21,34,1,31,48,0,

21,34,1,31,47,3,

21,35,1,31,71,0,

36,34,1,31,71,1,

51,43,1,31,71,4,

53,43,1,31,71,1,

53,43,1,31,70,1,

53,43,1,30,70,1,

52,43,1,31,70,3,

52,42,1,30,69,1,

52,41,1,30,69,3,

51,41,1,30,68,0,

51,41,1,30,68,2,

51,41,1,30,67,2,

51,41,1,30,67,1,

51,41,1,29,67,3,

50,41,0,29,73,4,

50,40,1,30,78,3,

50,39,1,29,77,1,

49,39,1,29,76,1,

49,39,1,29,76,1,

49,39,1,29,76,3,

49,39,1,29,75,2,

48,39,1,28,75,3,

49,39,1,28,75,1,

48,39,1,28,75,3,

48,39,1,28,74,3,

47,38,1,28,73,3,

48,38,0,28,73,1,

47,38,1,27,73,3,

47,38,0,27,75,2,

47,38,1,28,75,2,

47,37,0,28,75,2,

46,37,1,28,74,2,

46,38,1,27,74,3,

46,110,1,27,73,1,

46,108,1,27,73,1,

46,107,1,27,73,4,

45,107,0,27,71,0,

45,106,1,27,72,3,

45,105,1,27,71,0,

45,104,0,27,71,1,

45,103,1,27,79,4,

44,103,1,26,78,1,

44,103,1,26,78,4,

43,103,1,26,78,1,

44,102,1,25,77,3,

43,101,1,26,77,2,

43,102,1,25,77,3,

43,101,1,25,76,1,

43,100,0,25,76,1,

42,99,1,25,75,0,

42,99,0,25,75,2,

42,99,0,24,75,3,

41,99,1,25,74,1,

41,98,1,25,74,3,

41,97,1,24,73,3,

41,97,1,24,73,4,

41,96,0,24,73,3,

41,96,1,24,71,3,

39,96,1,24,71,1,

39,96,1,24,71,1,

39,95,1,24,71,1,

39,94,1,24,71,1,

39,94,1,24,71,3,

39,93,1,24,70,0,

39,93,1,24,70,1,

39,93,1,24,94,3,

39,92,1,52,108,1,

39,92,1,52,108,1,

39,92,1,51,107,3,

38,91,0,51,106,0,

38,91,0,51,105,3,

38,90,1,51,105,1,

38,90,1,51,104,0,

38,89,1,50,103,1,

37,89,1,50,103,0,

38,88,1,50,103,1,

37,88,1,49,102,1,

37,88,1,49,102,3,

37,87,1,49,102,1,

37,87,1,48,101,1,

37,86,1,48,100,3,

36,86,1,48,99,0,

36,86,1,48,99,1,

35,86,1,48,99,0,

36,85,0,48,99,0,

35,85,1,47,98,0,

35,84,1,47,98,1,

35,84,1,48,97,3,

35,83,1,48,97,1,

35,83,1,48,96,0,

35,83,0,48,96,0,

35,82,1,48,96,4,

35,82,1,48,96,3,

34,82,0,46,95,1,

34,81,1,47,94,1,

34,81,1,47,94,3,

34,81,1,47,94,0,

34,81,1,46,93,4,

33,80,1,46,92,3,

34,79,1,46,93,1,

33,79,0,45,92,0,

33,79,0,45,92,0,

33,78,1,45,92,3,

33,78,1,45,91,1,

33,78,0,45,91,1,

33,78,1,44,90,0,

32,77,1,44,90,1,

33,77,1,44,89,1,

32,76,1,44,89,0,

32,76,1,43,89,1,

32,76,1,43,88,3,

31,76,1,43,88,1,

31,76,1,43,88,3,

31,75,1,42,88,3,

31,74,1,43,87,1,

31,74,1,43,86,1,

31,74,1,43,87,3,

31,74,1,42,88,3,

31,73,1,42,87,1,

31,73,1,41,86,3,

30,73,0,42,86,1,

30,73,1,41,86,3,

30,71,1,41,85,3,

30,71,1,41,84,0,

30,71,1,39,84,3,

30,71,1,41,83,3,

30,71,1,39,83,1,

30,70,1,39,83,3,

29,70,1,39,82,1,

29,70,1,39,98,0,

34,70,1,48,117,3,

33,70,1,52,115,2,

33,69,1,52,115,1,

33,69,1,52,115,1,

33,68,1,52,114,3,

33,68,1,51,113,3,

33,67,0,51,113,1,

33,67,1,51,113,1,

32,67,1,51,112,0,

32,67,1,50,111,0,

31,67,1,50,111,1,

31,66,0,50,110,3,

31,66,1,50,110,3,

37,66,0,49,109,1,

36,66,1,49,109,4,

37,65,0,49,108,1,

35,65,1,48,108,3,

36,64,0,48,107,1,

35,64,1,48,107,3,

35,64,1,48,106,1,

35,63,1,48,105,0,

35,63,1,47,105,1,

35,63,1,47,105,3,

36,63,1,47,103,2,

38,63,1,47,103,0,

37,62,1,46,103,3,

37,62,1,46,103,0,

37,62,1,46,103,4,

37,61,1,46,101,1,

37,61,0,46,102,3,

36,61,1,45,101,1,

36,61,1,45,100,3,

36,60,1,45,99,3,

35,60,1,45,99,0,

35,60,0,45,99,1,

35,60,1,44,98,1,

35,60,1,44,98,4,

36,59,0,44,98,2,

59,59,1,43,98,4,

58,59,1,44,97,2,

57,59,1,43,97,3,

57,59,0,43,96,2,

57,58,1,43,96,4,

57,57,1,43,96,3,

56,57,0,42,96,3,

56,57,1,43,95,4,

56,57,1,42,94,3,

56,57,1,41,94,1,

55,56,1,42,93,2,

55,56,1,41,93,1,

55,56,1,41,94,2,

54,56,1,41,95,3,

54,56,1,41,94,1,

54,55,1,41,94,1,

54,55,0,39,93,4,

54,55,1,40,93,1,

53,55,1,39,93,1,

53,55,1,39,92,3,

52,54,1,39,92,2,

52,54,1,39,92,1,

51,53,1,39,91,4,

52,53,1,39,91,2,

51,53,1,39,90,3,

51,53,0,39,90,1,

51,53,1,39,89,0,

51,53,1,38,89,4,

50,53,1,38,89,3,

51,52,0,38,88,2,

50,55,1,38,88,3,

50,62,1,38,87,2,

50,62,1,38,87,1,

49,61,1,38,87,1,

49,61,1,37,86,1,

49,61,1,37,86,1,

48,60,1,37,86,1,

49,60,1,37,85,1,

48,60,1,36,85,1,

48,60,1,36,84,1,

48,60,1,37,84,1,

48,59,1,37,83,1,

47,59,1,36,83,4,

47,59,1,36,83,1,

47,59,1,36,83,4,

47,58,1,36,83,1,

47,58,1,36,82,0,

46,57,1,36,82,1,

46,57,1,35,81,4,

46,57,1,35,81,1,

46,57,1,35,81,1,

45,56,1,35,81,4,

45,56,0,35,83,1,

45,56,1,35,83,3,

45,56,1,35,83,3,

44,56,1,34,82,3,

44,56,1,34,82,1,

44,55,1,34,82,3,

44,55,1,34,81,0,

44,54,1,34,81,3,

44,54,1,34,80,1,

43,54,1,34,79,3,

43,53,1,33,80,2,

43,53,1,33,79,2,

43,53,1,34,110,1,

43,53,1,35,108,0,

42,52,0,34,108,0,

42,52,1,34,107,1,

42,52,0,34,107,3,

42,51,1,34,106,1,

41,51,1,34,105,3,

41,51,0,33,105,3,

41,51,1,33,103,1,

41,51,1,33,103,3,

41,50,1,33,103,0,

39,50,1,33,103,3,

39,50,1,33,103,3,

39,50,1,32,102,1,

39,50,1,32,102,1,

39,49,1,32,101,1,

39,49,1,32,100,0,

39,49,1,31,100,1,

39,49,1,31,99,3,

39,48,1,31,99,0,

39,48,1,31,99,1,

39,48,1,31,98,1,

38,48,1,31,97,3,

39,48,1,31,97,1,

38,47,0,31,97,1,

38,47,1,31,96,1,

38,47,1,31,96,1,

37,47,1,31,96,1,

37,47,1,37,96,1,

37,46,1,36,94,1,

37,46,1,36,94,3,

37,46,1,36,94,1,

36,46,1,36,94,3,

37,46,1,35,93,3,

36,45,1,35,92,0,

36,45,1,36,92,1,

36,45,1,35,92,3,

36,45,1,35,92,3,

35,45,1,35,91,1,

35,44,1,35,91,3,

35,44,1,35,90,2,

35,44,1,34,90,3,

35,44,1,34,89,3,

35,44,0,34,89,0,

35,44,1,34,89,3,

34,43,1,34,88,3,

34,43,1,34,88,1,

34,43,1,33,88,3,

33,43,1,33,87,1,

34,43,1,33,87,0,

34,42,1,32,87,3,

34,42,1,33,86,1,

33,42,1,32,86,1,

33,42,1,32,85,3,

33,41,1,32,85,0,

33,41,0,31,85,3,

32,41,1,32,85,3,

32,41,1,31,84,1,

32,41,1,31,83,1,

32,41,1,31,83,1,

31,40,1,31,83,0,

31,39,1,31,83,3,

31,39,1,31,82,1,

31,39,0,31,82,1,

38,39,1,31,82,4,

41,39,1,31,86,1,

41,39,0,30,86,1,

41,39,1,30,85,0,

39,39,0,30,85,3,

39,39,1,30,84,1,

39,39,1,30,84,3,

39,39,1,30,83,0,

39,38,1,29,83,2,

39,38,1,29,83,1,

39,38,1,29,82,1,

39,38,1,29,82,3,

39,37,0,29,82,4,

39,37,1,29,82,3,

38,38,1,46,92,1,

39,37,0,54,92,2,

39,37,1,54,91,1,

39,37,1,53,90,2,

39,37,0,53,90,1,

38,37,1,53,90,3,

38,37,1,52,89,1,

38,36,1,52,89,3,

37,36,1,51,89,3,

37,36,1,51,88,3,

37,36,1,51,88,1,

37,35,1,51,88,3,

37,35,1,51,87,3,

36,35,1,51,87,1,

36,35,1,50,86,2,

36,35,1,50,86,1,

36,35,1,50,86,3,

35,34,1,50,85,3,

36,35,1,50,85,1,

35,34,1,49,84,3,

35,34,1,49,84,0,

35,34,0,49,83,1,

35,34,1,49,83,3,

35,33,0,48,83,3,

35,34,1,48,83,0,

35,33,0,48,82,1,

35,33,1,48,92,1,

34,33,1,48,143,3,

34,33,1,47,142,1,

34,33,1,47,141,0,

34,33,1,47,140,3,

34,32,1,47,139,0,

33,32,1,46,138,3,

33,32,1,46,137,3,

33,32,0,46,137,1,

33,31,1,46,135,1,

33,31,1,46,135,0,

33,31,1,48,135,0,

32,31,1,48,134,3,

32,31,1,48,134,3,

32,31,1,47,133,3,

31,31,1,47,132,3,

31,31,1,47,131,0,

31,33,1,46,131,0,

31,32,1,46,131,0,

31,32,1,46,130,0,

31,31,1,46,129,2,

31,31,1,45,128,1,

31,31,1,45,127,1,

31,31,1,45,127,1,

31,31,1,45,127,1,

30,31,1,44,126,3,

30,31,1,45,125,3,

30,31,1,44,125,3,

30,31,0,44,124,1,

30,31,1,44,124,1,

30,30,1,44,123,3,

29,30,0,43,123,0,

29,30,1,43,122,3,

29,30,1,43,121,3,

29,30,1,43,121,2,

29,30,1,42,121,3,

29,30,1,43,120,3,

29,29,0,42,119,3,

28,29,1,41,119,0,

29,29,1,41,118,3,

29,29,1,41,118,0,

28,34,0,41,117,2,

28,34,1,41,117,1,

28,34,1,41,116,0,

28,34,1,40,116,1,

28,33,1,39,115,0,

28,33,1,39,115,3,

27,33,0,39,114,0,

27,33,1,39,114,3,

27,33,1,39,113,1,

27,32,0,39,113,0,

27,32,1,39,112,1,

27,32,1,39,112,0,

27,31,1,39,111,3,

26,31,1,39,111,0,

26,31,1,39,110,3,

26,31,1,38,110,0,

25,31,1,38,109,3,

26,31,1,38,109,1,

25,31,1,38,108,3,

26,31,1,37,108,1,

25,31,1,37,108,0,

43,30,1,37,107,2,

43,31,1,37,106,0,

42,30,1,37,106,1,

42,30,1,37,105,1,

41,30,1,37,105,3,

41,30,1,36,103,1,

41,30,0,36,103,4,

41,30,1,36,103,3,

40,29,1,35,103,3,

39,29,1,35,103,1,

39,29,0,35,102,3,

39,29,0,35,102,0,

41,29,1,35,102,1,

44,28,1,35,101,3,

44,28,1,35,101,1,

44,31,0,34,100,3,

44,31,1,35,99,3,

44,30,1,34,99,1,

43,30,1,34,99,2,

43,31,1,34,98,3,

43,30,1,34,98,1,

43,31,1,33,98,3,

42,30,0,33,97,1,

42,30,1,33,97,3,

42,29,1,33,96,3,

42,30,1,33,96,4,

42,29,1,32,96,1,

41,29,1,32,96,3,

41,29,1,31,95,2,

41,29,1,32,95,1,

41,29,1,31,94,1,

40,29,0,31,94,2,

39,29,1,31,94,3,

40,28,1,31,93,1,

39,28,1,31,93,1,

39,28,0,31,92,3,

39,28,1,31,92,0,

39,28,1,31,92,1,

39,28,1,31,92,3,

39,28,1,31,92,0,

39,28,1,31,101,0,

38,27,0,30,101,0,

38,27,1,31,100,0,

38,27,0,30,99,3,

38,27,1,30,99,1,

38,27,1,30,98,3,

38,27,1,30,98,3,

38,27,0,30,98,3,

37,26,0,30,97,3,

37,26,1,30,97,1,

37,26,1,29,96,3,

37,26,0,29,97,1,

41,26,1,29,96,3,

41,26,1,29,96,1,

41,25,1,29,95,3,

41,25,1,28,95,1,

40,26,1,29,94,3,

40,25,1,28,94,3,

39,25,0,28,94,4,

39,25,1,28,93,1,

39,25,1,28,93,3,

39,25,1,28,92,3,

39,25,1,27,92,1,

39,25,1,27,91,1,

39,24,1,27,92,2,

39,24,0,27,92,3,

39,24,1,27,91,1,

39,24,1,27,91,1,

39,24,0,27,90,3,

39,24,0,26,90,0,

38,24,1,27,89,1,

38,24,1,26,89,3,

38,24,1,26,89,0,

38,24,1,26,88,0,

37,24,1,25,88,0,

37,23,1,26,88,1,

37,24,1,26,88,3,

37,24,1,25,94,0,

37,23,1,25,94,0,

37,24,0,25,94,3,

36,24,1,25,93,3,

37,23,1,25,93,1,

36,22,0,25,92,3,

35,22,1,24,92,1,

36,22,1,25,92,0,

35,22,0,25,91,3,

35,22,0,24,91,1,

35,22,1,25,90,1,

35,22,1,24,90,1,

35,22,1,24,89,1,

34,22,0,24,120,1,

35,22,1,24,119,3,

36,21,1,24,119,1,

35,21,1,24,117,3,

35,21,1,24,117,1,

35,22,1,24,116,3,

35,21,1,24,115,1,

35,20,0,24,115,0,

35,21,1,24,115,3,

35,21,0,23,114,0,

34,20,1,23,114,1,

34,21,0,23,112,1,

34,20,1,23,112,3,

34,20,0,23,118,0,

34,20,1,23,118,3,

34,20,1,23,117,3,

33,20,0,22,116,3,

33,20,0,22,116,1,

33,20,1,22,115,3,

33,19,0,22,115,0,

33,19,0,22,114,1,

33,19,1,22,113,3,

33,19,1,22,112,0,

32,19,0,22,112,3,

31,19,1,22,112,3,

31,19,1,21,113,1,

31,19,1,21,113,3,

31,21,1,21,112,3,

31,21,1,21,112,0,

31,21,0,21,111,1,

31,21,1,21,111,0,

31,20,1,21,110,1,

31,20,0,20,109,1,

30,20,1,21,109,1,

30,20,1,20,109,1,

30,20,1,20,108,1,

30,19,1,20,107,3,

30,20,0,20,107,1,

30,19,1,20,107,1,

30,20,0,20,106,3,

29,20,0,20,106,0,

29,20,0,19,105,3,

29,20,0,19,105,3,

29,19,1,19,103,3,

29,19,1,19,103,0,

29,19,1,19,103,3,

28,19,0,19,103,3,

28,19,1,19,102,2,

29,19,1,19,101,3,

28,19,1,19,102,0,

28,19,1,19,103,3,

30,19,1,19,103,0,

30,19,1,19,102,0,

30,19,1,19,101,1,

30,18,1,18,101,0,

29,18,0,19,100,0,

29,18,1,18,100,0,

29,18,1,18,99,3,

29,18,1,18,99,1,

29,18,1,18,99,0,

29,18,1,18,98,0,

29,18,0,18,98,1,

31,17,0,21,171,0,

33,18,1,33,204,0,

33,17,1,32,202,2,

33,17,0,32,199,0,

32,17,1,32,199,3,

32,17,1,31,198,3,

32,17,1,31,197,0,

31,17,1,31,196,0,

31,17,0,31,195,0,

31,17,0,31,195,3,

31,16,1,31,193,1,

31,17,1,31,192,1,

31,17,1,31,192,1,

31,16,1,30,191,3,

31,16,1,30,190,3,

30,16,0,30,188,3,

30,16,1,30,188,3,

30,16,1,30,187,0,

29,16,0,30,186,1,

30,15,1,29,185,3,

29,16,1,29,184,0,

30,25,1,29,184,3,

29,25,1,29,183,3,

29,25,1,29,182,2,

29,25,0,29,181,3,

29,25,1,28,179,3,

29,25,1,28,179,3,

28,24,1,28,179,0,

29,24,1,28,178,3,

28,24,1,28,177,0,

28,24,1,28,176,2,

28,24,1,28,176,0,

28,24,1,28,175,0,

28,24,1,27,174,1,

28,24,1,28,173,0,

27,24,0,27,173,3,

28,23,1,27,172,1,

27,23,1,27,172,3,

27,23,1,27,170,1,

27,23,0,26,169,0,

27,23,1,26,169,1,

27,23,0,26,167,0,

27,23,1,26,167,3,

26,22,0,25,166,0,

26,23,1,25,166,4,

26,22,0,25,165,0,

25,22,0,25,164,2,

26,22,1,25,163,1,

26,22,1,25,163,3,

29,21,1,26,163,2,

58,22,1,26,161,1,

58,21,1,26,161,3,

57,21,1,26,159,1,

57,21,1,26,159,2,

56,21,1,26,159,2,

56,21,1,25,158,4,

56,21,1,41,158,1,

56,21,1,44,157,4,

55,21,1,44,156,4,

55,21,1,44,155,4,

55,21,1,44,155,1,

54,21,1,44,154,4,

54,21,1,43,153,1,

54,20,1,42,153,1,

53,20,1,42,152,4,

53,19,1,43,152,1,

53,20,0,42,152,2,

53,48,1,42,150,4,

52,53,1,41,149,4,

52,53,1,41,149,4,

51,52,1,41,148,2,

52,52,1,41,147,1,

51,51,1,41,147,3,

51,51,1,40,147,1,

51,51,1,39,146,3,

51,51,1,39,145,2,

50,50,1,39,144,1,

50,50,1,39,143,1,

50,50,1,39,143,2,

49,49,1,105,143,4,

49,49,0,103,142,4,

49,49,1,102,141,2,

49,49,1,101,141,2,

48,48,1,101,140,1,

48,48,1,100,140,3,

48,48,1,99,139,2,

48,47,0,99,153,1,

48,48,1,99,220,3,

48,47,1,98,219,4,

47,47,1,98,218,3,

47,47,1,97,216,4,

46,48,1,97,216,1,

46,47,1,96,214,3,

46,47,1,96,213,1,

46,46,1,96,211,3,

46,46,0,95,211,1,

45,46,0,94,209,3,

45,46,1,94,209,3,

45,46,1,94,207,3,

45,45,1,93,207,1,

44,45,1,93,205,0,

44,45,1,93,205,3,

44,45,1,92,204,0,

44,44,0,92,203,3,

44,44,1,91,201,1,

44,44,1,91,201,1,

43,44,0,90,199,1,

43,44,1,90,199,3,

43,43,1,89,198,3,

43,43,1,89,197,2,

42,43,1,89,197,3,

42,43,1,89,195,1,

42,43,1,88,195,1,

41,42,1,88,194,1,

41,42,1,87,193,0,

41,41,1,87,192,3,

41,42,1,86,191,1,

41,41,0,86,190,4,

41,41,1,86,190,1,

39,41,1,85,188,3,

39,41,1,85,187,1,

39,41,1,84,187,3,

40,39,1,83,186,1,

39,39,1,83,185,0,

39,39,1,83,184,2,

39,39,1,83,184,0,

39,39,1,83,183,2,

39,42,0,82,182,1,

39,43,1,82,181,3,

39,42,1,81,180,1,

38,42,0,81,179,3,

39,42,1,81,178,3,

38,41,1,80,178,3,

38,41,1,79,177,1,

38,41,1,79,176,3,

38,40,1,79,176,0,

43,41,1,79,175,1,

48,39,1,79,174,3,

48,39,1,78,173,1,

48,39,1,78,173,4,

48,39,1,78,172,3,

47,39,1,78,171,1,

47,39,1,77,170,3,

47,39,1,76,169,3,

47,39,1,76,169,0,

47,39,1,76,167,3,

46,39,1,76,167,0,

46,39,1,76,167,0,

46,38,1,75,166,1,

45,38,1,75,166,3,

45,38,1,75,165,1,

45,38,1,74,164,2,

45,38,1,73,163,4,

45,37,1,73,162,1,

45,38,1,73,162,1,

44,37,1,73,161,4,

44,37,1,73,161,1,

44,37,1,71,159,3,

44,36,1,71,159,3,

43,36,1,73,159,3,

43,36,1,73,158,4,

57,36,1,73,157,3,

63,36,1,71,156,4,

62,35,1,71,156,3,

62,35,1,71,155,4,

61,36,1,71,154,1,

61,50,1,71,154,4,

61,49,1,71,153,1,

60,49,1,70,152,3,

60,49,1,70,152,2,

60,49,1,69,152,2,

59,48,1,69,151,1,

59,48,1,69,150,5,

59,48,1,69,149,4,

59,48,1,68,149,1,

58,47,1,68,148,2,

58,47,1,68,147,2,

58,46,1,67,147,1,

57,46,1,67,147,2,

57,46,1,67,146,3,

57,46,1,67,145,5,

57,46,1,67,145,2,

56,46,1,66,143,5,

56,45,1,66,143,1,

56,45,1,66,143,4,

56,44,1,65,142,2,

55,45,1,65,142,4,

55,44,1,65,141,2,

55,44,1,64,140,0,

54,44,1,64,140,2,

54,44,1,63,139,3,

54,43,1,63,139,2,

54,43,1,63,138,1,

53,43,1,63,137,4,

53,43,1,63,137,1,

53,42,0,62,135,4,

53,42,1,62,135,2,

52,42,1,62,135,3,

52,42,0,61,135,2,

52,41,1,62,134,4,

51,42,1,61,134,3,

51,41,1,61,133,1,

51,41,1,61,133,4,

51,41,1,61,132,1,

51,41,0,60,131,4,

51,41,0,60,131,4,

50,39,1,60,130,2,

50,41,1,59,130,1,

