9,32,1,43,81,9,9,32,1,43,81,9,9,31,1,43,80,8,9,31,1,42,80,10,7,31,1,42,79,7,7,31,1,42,79,9,7,31,1,42,79,6,8,31,1,41,79,5,8,31,0,41,78,9,7,31,1,41,78,6,7,31,1,41,78,7,8,31,1,41,78,10,8,30,1,41,77,9,7,30,1,41,77,9,7,30,1,39,77,11,7,30,1,39,76,7,7,30,1,39,76,7,7,30,1,39,76,9,7,30,1,39,75,7,7,30,1,39,75,9,7,29,1,39,75,7,7,29,0,39,75,5,7,29,1,39,74,7,7,29,1,39,74,6,7,29,1,38,73,9,7,29,1,38,73,9,7,28,1,38,73,11,7,29,0,38,73,9,7,28,1,38,72,11,7,28,1,38,71,7,7,28,0,37,71,7,7,28,1,37,71,7,7,28,1,37,71,7,7,28,0,37,71,7,7,28,0,37,70,6,7,27,0,37,70,3,7,27,1,36,70,7,7,27,0,36,70,5,7,27,1,35,69,6,7,27,1,35,69,7,6,27,1,35,69,11,7,27,0,35,68,7,6,26,1,35,68,10,7,26,1,35,68,7,7,26,1,35,68,9,7,26,1,35,67,6,6,26,1,35,67,5,6,26,1,34,67,6,6,25,1,34,67,5,6,25,1,34,66,6,6,25,0,34,66,3,6,26,1,34,66,3,6,25,1,34,66,7,6,25,1,33,65,7,6,25,1,33,65,10,6,25,1,33,65,10,6,24,0,33,64,10,6,25,1,33,65,7,6,25,0,34,65,7,6,24,1,33,64,4,6,24,1,33,64,3,6,24,1,33,63,5,6,24,1,33,63,3,5,24,0,32,63,6,6,24,0,32,63,3,6,24,0,32,63,5,6,24,1,32,63,9,6,24,1,31,62,7,6,24,1,31,62,7,5,24,1,31,62,9,6,23,1,31,61,6,6,23,0,31,62,9,5,23,1,31,61,7,5,22,1,31,61,4,5,23,1,31,60,3,5,22,1,31,60,3,5,23,0,30,60,3,6,22,1,31,60,6,6,22,0,30,59,4,6,22,0,30,60,8,6,22,1,30,59,7,6,22,1,30,59,7,6,22,0,30,59,9,6,21,1,30,58,9,6,22,1,30,58,9,6,21,1,29,58,5,5,21,1,29,58,5,5,21,1,29,57,6,5,21,0,29,57,4,6,21,1,29,57,7,5,21,0,28,57,5,5,21,1,29,56,3,5,21,0,29,56,4,5,21,1,28,56,7,6,20,1,28,56,5,5,20,1,28,56,7,5,20,0,28,56,9,5,20,1,28,56,7,5,20,1,28,55,9,5,20,0,28,55,7,5,20,1,28,55,5,5,19,1,27,55,5,5,19,1,27,54,3,5,19,0,27,54,5,5,19,1,27,53,6,5,19,0,27,54,3,5,19,1,27,53,6,5,19,1,27,53,5,5,19,1,27,53,7,5,19,1,26,52,7,5,19,1,26,52,7,5,19,0,26,52,6,5,19,1,26,52,6,5,18,0,26,51,9,5,18,1,26,51,7,5,18,0,27,51,4,5,18,1,51,51,3,5,18,0,51,51,4,5,18,0,50,51,4,5,18,1,50,51,4,5,18,1,50,51,6,5,18,0,49,50,5,5,18,1,49,50,6,5,20,1,49,50,5,4,21,1,49,49,7,5,21,1,49,49,9,5,21,0,48,49,6,5,21,1,49,49,7,4,21,0,48,48,3,4,20,1,48,49,6,5,20,1,48,48,5,4,20,0,47,48,4,5,20,1,47,48,1,4,19,0,47,48,2,4,20,1,47,47,7,4,19,1,46,48,4,4,19,1,46,48,6,4,19,0,46,47,6,4,19,0,46,47,9,4,19,1,46,46,7,5,19,0,46,46,7,4,19,0,45,46,7,4,19,1,45,46,3,4,19,1,45,46,5,4,19,1,45,46,2,4,19,1,45,45,1,4,19,0,44,45,1,4,18,1,44,45,2,4,18,1,44,44,6,4,18,1,44,44,5,4,19,1,43,45,8,4,18,1,44,44,8,4,18,0,43,44,7,4,18,0,43,53,4,4,18,1,43,53,7,3,18,1,43,52,3,4,18,1,43,53,3,3,18,1,42,53,3,3,18,1,42,52,1,3,18,0,47,52,3,4,17,1,103,51,3,4,17,0,102,51,2,4,17,1,101,51,7,3,17,1,100,50,7,3,17,0,100,51,5,3,17,1,100,51,4,3,17,0,99,51,4,4,17,1,98,51,5,3,16,1,99,51,7,3,17,0,98,50,3,3,16,1,97,50,3,3,16,1,97,50,3,3,16,1,96,49,1,3,16,0,96,49,1,3,16,1,96,49,1,3,16,1,95,49,2,3,16,1,95,49,7,3,15,1,95,48,7,3,15,0,94,48,4,3,16,1,94,48,5,3,15,0,93,48,5,3,16,0,93,48,4,3,15,1,93,47,7,3,15,1,92,47,3,3,15,1,92,47,6,3,15,1,92,47,2,3,15,1,91,46,0,3,15,0,91,46,0,3,15,1,90,46,4,3,15,0,90,46,5,3,15,0,89,46,3,3,16,0,89,46,4,3,17,1,89,45,6,3,21,1,88,45,6,3,28,1,88,47,6,3,27,1,88,46,7,3,27,1,88,46,4,3,27,1,88,46,3,3,27,1,87,46,5,3,27,1,86,46,0,3,27,0,86,45,0,3,27,0,85,45,3,3,27,0,86,45,1,3,26,0,86,45,5,3,26,0,85,45,7,3,26,0,85,45,4,3,64,1,85,44,5,3,67,1,85,44,4,3,67,0,83,45,7,3,67,1,83,45,6,3,66,1,83,45,3,3,66,0,83,44,4,3,65,1,83,44,1,3,65,1,83,44,3,3,64,1,82,44,0,5,64,1,81,44,1,4,63,0,81,44,1,4,63,1,81,43,4,5,63,1,80,43,5,4,63,1,81,43,9,4,63,1,80,43,6,4,63,1,80,42,6,5,62,0,79,42,7,4,62,1,79,43,7,4,62,0,79,41,6,4,61,0,78,41,3,4,61,0,78,41,3,4,61,1,77,41,2,4,60,1,77,41,0,4,60,0,77,41,2,4,60,1,77,41,5,4,60,1,77,41,5,4,59,1,76,41,7,4,59,1,76,39,5,4,59,1,75,39,7,4,59,1,75,39,8,4,58,1,75,45,5,4,58,1,75,49,4,4,58,0,74,49,3,4,57,1,74,48,3,4,57,1,74,48,1,4,57,1,74,48,1,4,57,1,73,48,1,4,57,0,73,47,5,3,56,1,73,47,5,4,56,1,72,47,6,4,56,1,72,47,4,3,56,0,71,47,5,4,56,0,71,46,7,3,55,1,71,46,4,3,55,0,71,46,5,3,55,1,71,46,4,4,54,0,71,46,4,3,54,1,71,46,5,3,54,1,70,45,2,3,54,1,70,45,4,3,53,0,70,45,3,3,53,0,69,44,4,3,53,0,69,45,1,4,53,1,69,44,6,3,53,1,68,44,6,3,52,1,68,44,5,3,52,1,68,44,6,3,51,1,67,44,5,3,51,0,67,44,7,3,51,1,67,43,6,3,51,0,67,43,6,3,51,1,67,43,3,3,51,1,66,42,2,4,51,0,66,42,5,10,50,0,66,42,7,10,50,0,65,42,7,10,50,1,65,42,7,9,49,1,65,41,9,9,49,1,65,41,10,10,49,1,64,41,10,9,49,0,64,41,13,9,48,1,63,41,13,10,48,1,63,41,10,9,48,0,63,41,7,9,48,1,63,41,7,9,48,1,63,41,8,9,48,0,62,39,7,9,47,0,62,39,6,9,47,1,62,39,6,9,47,0,62,39,6,9,47,1,62,39,9,9,46,0,62,39,13,9,46,1,61,39,13,9,46,1,61,39,14,9,46,1,61,40,10,9,45,1,60,39,12,8,45,1,60,39,11,7,45,0,60,39,9,9,45,1,59,39,7,9,45,1,60,39,6,11,44,1,59,39,9,10,44,1,59,39,7,10,44,1,59,39,11,11,44,1,58,39,12,10,43,1,58,38,14,10,44,1,57,38,11,10,43,0,57,38,12,10,43,1,57,50,14,10,43,0,57,82,14,10,43,1,57,82,9,10,43,1,56,81,9,9,42,1,56,80,9,10,43,1,56,79,7,10,42,1,56,79,10,9,42,0,56,79,6,9,41,1,56,79,10,9,41,1,55,79,12,9,41,1,56,78,13,9,41,1,55,78,10,9,41,1,55,77,12,9,40,1,55,77,12,9,39,0,55,77,10,9,39,1,54,76,10,9,39,1,54,76,7,9,39,1,54,76,11,9,39,0,53,75,9,9,39,1,53,75,6,9,39,1,53,75,7,9,39,1,53,74,9,9,39,1,52,74,7,9,39,1,52,73,7,9,39,1,52,73,9,9,39,1,51,73,10,8,38,1,51,72,12,8,38,1,51,71,7,9,38,1,51,72,8,7,38,1,51,71,7,8,38,1,51,71,7,7,37,1,51,71,10,8,38,1,50,71,7,8,37,1,50,71,7,8,37,1,50,70,5,8,37,0,50,70,7,7,36,1,49,69,7,7,36,1,49,69,7,7,36,1,49,69,11,7,36,0,49,69,7,7,35,1,49,68,12,7,35,1,48,67,12,7,35,1,49,68,7,7,35,1,48,67,9,7,35,1,49,67,6,7,35,1,49,67,7,7,35,0,49,66,7,7,35,1,48,66,5,7,35,0,48,66,3,7,35,0,48,66,5,7,34,1,48,65,10,7,34,1,48,65,7,7,39,1,47,65,8,7,41,1,47,64,7,7,42,0,47,65,11,7,42,0,47,63,10,7,42,0,47,63,7,7,41,1,46,63,6,7,41,1,46,63,5,7,41,0,46,63,6,7,41,1,46,63,4,7,41,0,45,62,4,7,39,1,45,62,4,7,39,1,45,62,7,7,39,1,45,62,6,7,44,1,45,61,11,7,45,1,45,61,7,6,44,0,44,61,7,7,44,1,44,60,10,6,44,1,44,60,9,6,44,1,44,61,9,6,43,0,44,60,5,6,43,1,43,60,4,6,43,0,44,60,5,6,42,1,43,59,3,6,43,1,43,59,4,6,42,1,43,59,6,6,42,0,43,59,9,6,42,1,43,58,6,6,42,0,42,58,9,6,41,0,42,57,9,5,41,0,42,57,6,6,41,1,42,57,9,6,41,1,41,57,6,6,41,1,42,57,7,6,40,1,43,56,4,6,39,1,42,56,3,6,39,1,42,56,5,6,39,1,42,56,3,6,39,1,41,56,6,6,39,1,41,56,6,5,39,1,41,56,7,5,39,0,41,56,6,5,39,0,41,55,8,6,39,1,41,55,9,5,39,1,40,54,6,5,39,1,39,54,6,6,39,1,39,81,7,5,38,1,39,113,9,5,38,0,39,112,6,5,38,1,39,112,3,5,38,0,39,111,5,6,38,0,39,111,5,5,37,1,39,110,3,6,37,1,39,110,5,6,37,0,39,109,9,6,37,1,39,109,7,6,37,1,39,108,9,6,37,0,39,108,7,6,35,0,38,107,7,6,36,0,38,106,10,6,35,1,38,106,9,6,36,1,38,105,7,5,35,0,38,105,5,5,35,1,37,105,1,5,35,1,37,103,3,7,35,0,37,103,6,7,35,1,37,103,6,7,35,1,37,103,9,7,34,1,36,102,8,7,35,0,36,102,9,7,35,0,36,101,12,7,34,1,36,101,11,7,34,0,35,101,9,7,34,1,35,99,8,7,34,1,35,99,5,7,34,0,39,99,5,7,34,1,60,99,4,7,33,1,60,99,4,7,33,1,60,98,6,7,33,0,59,97,3,7,33,1,59,97,6,6,32,1,59,96,7,7,32,1,59,96,8,6,32,1,58,96,11,6,32,1,58,96,10,6,32,1,58,95,7,6,32,0,58,95,7,6,31,1,57,94,5,6,31,0,57,94,7,6,31,0,57,93,3,6,31,0,57,93,6,6,31,1,56,93,5,27,31,1,56,93,21,27,31,1,56,92,25,27,31,1,56,92,26,27,30,1,55,91,27,25,31,1,55,91,29,26,30,1,55,90,26,25,30,1,55,89,27,25,30,0,54,89,24,25,30,1,54,89,24,25,29,1,53,88,22,25,29,1,63,88,21,25,29,1,62,88,21,25,29,1,62,88,21,25,29,1,62,87,23,24,29,1,61,86,23,24,29,1,61,86,27,24,30,1,60,86,28,24,30,0,60,86,28,24,30,1,60,85,25,24,29,1,60,85,26,24,29,0,59,85,23,23,29,0,59,84,25,23,29,1,59,83,22,31,29,0,59,83,28,37,29,1,58,83,34,37,28,1,58,82,33,36,28,1,58,82,37,36,28,0,57,82,38,36,28,0,57,81,39,36,28,1,57,81,35,35,28,1,57,81,35,35,28,1,57,80,35,35,27,1,56,80,37,35,27,1,56,79,36,35,27,1,56,79,32,35,27,1,56,79,30,34,27,1,55,79,33,34,27,1,55,78,29,34,26,1,55,78,34,34,27,1,54,77,33,33,27,1,54,77,34,33,28,1,54,77,33,33,28,1,54,77,33,33,28,1,53,76,34,33,28,1,53,76,35,33,28,1,53,76,34,32,28,1,54,75,33,33,28,1,54,76,28,32,27,1,53,75,30,32,28,0,53,74,29,31,27,1,53,75,31,31,27,1,53,73,29,31,27,0,52,73,31,31,27,1,52,73,34,31,27,1,52,72,34,31,26,1,51,71,35,31,26,1,51,71,30,30,26,1,51,71,29,31,26,1,51,71,29,30,26,1,50,71,27,31,26,1,50,71,27,31,25,1,50,71,28,31,25,1,50,70,28,31,25,1,50,70,30,31,25,1,49,70,32,30,25,1,49,69,34,30,25,1,49,69,34,30,25,1,49,68,34,30,25,1,48,69,30,30,25,0,48,67,31,30,25,1,48,68,28,30,24,1,48,67,30,29,24,1,48,66,25,29,24,1,47,67,25,29,24,1,47,66,25,29,24,1,47,66,29,29,24,1,47,66,28,29,24,1,46,65,28,28,26,1,46,65,29,28,27,1,46,65,28,28,26,1,46,65,30,28,26,1,45,64,27,28,26,1,45,64,28,28,25,1,45,63,25,28,25,1,45,63,28,27,25,1,45,63,27,27,25,0,44,63,28,27,25,1,44,63,27,27,25,1,44,62,25,27,54,1,45,62,29,27,54,1,45,62,30,27,54,0,45,62,26,26,54,1,45,61,26,26,53,1,45,61,29,26,53,1,44,60,26,26,53,1,44,60,24,26,52,1,44,60,26,26,51,0,44,60,25,25,52,1,44,60,25,27,51,1,43,60,27,27,51,1,43,59,25,27,51,1,43,59,29,27,51,1,43,59,28,27,50,1,43,59,28,27,50,1,42,58,28,26,50,1,42,58,27,26,50,1,41,57,25,26,49,1,41,57,25,26,49,1,41,57,26,26,49,1,41,57,25,25,49,1,41,57,25,25,48,1,41,56,25,25,48,1,40,56,22,25,48,1,39,56,27,25,48,1,39,56,25,25,47,1,39,56,29,25,47,1,39,56,25,25,47,1,39,55,28,25,47,0,39,55,28,25,46,1,39,54,27,25,46,1,39,54,23,24,46,1,39,54,22,24,46,1,39,53,20,24,45,1,39,53,21,24,45,1,38,53,21,24,45,1,38,53,23,24,45,1,38,53,24,24,45,1,38,52,25,24,44,1,38,52,28,23,44,1,37,52,27,24,44,1,37,51,27,24,44,1,39,51,25,23,43,1,39,51,22,23,43,1,39,51,19,23,43,1,39,51,21,23,43,1,39,51,19,22,43,1,39,50,22,22,42,1,38,50,19,22,42,1,38,50,24,22,42,1,38,50,22,22,41,1,38,49,25,22,41,1,38,49,21,22,41,1,37,49,22,22,41,1,37,49,21,22,41,1,37,48,19,21,41,1,36,48,20,21,39,1,36,48,19,22,39,1,36,48,21,27,39,1,36,48,21,27,39,1,36,47,27,27,39,1,35,47,29,26,39,1,35,48,30,27,39,1,35,46,30,26,39,1,35,46,29,26,39,1,35,46,26,26,39,1,35,46,28,26,38,1,35,46,24,26,38,1,35,46,25,25,38,1,35,45,24,25,38,1,34,45,22,25,38,1,34,45,21,25,37,1,34,45,24,25,37,1,35,45,23,25,37,1,34,44,27,25,37,1,34,44,28,25,37,1,34,44,26,25,36,1,33,44,26,24,36,1,33,44,25,24,36,1,33,44,27,24,36,1,33,44,24,24,36,1,103,43,26,24,35,1,102,43,20,24,35,1,101,43,23,24,35,1,101,42,19,23,35,1,99,42,20,24,35,1,99,42,22,24,35,1,99,42,24,23,34,1,98,41,24,23,34,1,98,41,24,23,34,1,97,41,26,23,34,1,96,41,26,22,34,1,96,41,25,22,34,1,96,41,24,22,33,1,96,41,18,22,33,1,95,39,19,24,33,1,94,39,19,24,33,1,94,39,24,23,33,1,94,39,21,24,37,1,93,39,22,23,37,1,93,39,23,23,37,1,92,39,26,22,37,1,92,39,23,23,36,1,91,39,23,23,36,1,91,39,21,22,36,1,91,38,20,22,35,1,89,39,22,25,35,1,90,38,21,28,35,1,89,38,25,28,35,1,89,38,24,28,35,1,88,38,29,27,35,1,88,38,29,27,35,1,88,38,31,27,34,1,88,37,30,27,34,1,87,37,27,26,34,1,86,37,29,27,34,1,87,37,28,27,34,1,86,37,24,26,34,1,85,36,24,26,33,1,85,36,25,26,33,1,84,35,23,28,33,1,84,35,24,28,33,1,83,36,28,28,32,1,83,35,30,28,59,1,83,35,32,31,82,1,82,35,34,31,81,1,83,35,31,31,81,1,82,35,31,30,81,1,82,35,30,31,80,1,81,35,29,31,79,1,81,35,29,30,79,1,81,34,28,30,79,1,80,34,25,30,78,1,79,34,27,31,78,1,79,34,30,31,78,1,79,34,31,31,78,1,79,34,33,31,77,1,78,33,34,31,77,1,78,33,31,31,76,1,78,33,32,31,76,1,77,33,30,30,75,1,77,33,31,30,75,1,77,32,31,30,75,1,76,33,30,30,74,1,76,32,30,31,74,1,76,32,29,31,73,1,75,31,30,30,73,1,75,31,27,30,73,1,75,31,28,30,73,1,74,31,30,29,71,0,74,31,33,30,71,1,73,31,29,29,71,1,73,31,30,29,71,1,73,31,29,29,71,1,73,31,31,29,71,1,71,31,30,29,70,1,71,31,29,29,70,1,71,31,28,28,70,1,71,30,25,28,69,0,71,30,25,29,69,1,71,30,29,28,69,1,71,30,28,28,68,1,70,30,31,28,67,1,70,29,29,28,67,1,70,29,31,28,67,1,70,29,27,28,67,1,69,29,28,27,66,1,69,29,24,27,66,1,68,29,23,27,66,1,68,29,23,27,65,1,67,29,22,27,65,1,67,29,24,27,65,1,67,29,25,27,64,1,67,29,27,26,71,1,67,28,27,26,103,1,67,28,30,26,102,1,66,28,27,25,101,1,66,28,29,25,101,1,65,28,25,26,100,1,65,28,24,25,99,1,65,28,23,26,99,1,65,33,31,67,99,1,64,32,54,74,98,1,64,32,67,73,97,1,63,31,71,73,97,1,63,31,74,71,96,1,63,31,75,71,96,1,63,31,74,71,96,1,62,31,70,71,96,1,62,31,71,71,94,0,62,31,68,70,94,1,62,31,70,70,94,1,62,30,67,70,94,1,61,30,65,70,93,1,61,30,63,69,92,1,61,30,66,68,92,1,61,30,64,68,92,1,60,30,65,67,91,1,60,30,67,67,91,1,60,30,66,67,90,1,59,29,69,67,89,1,59,29,65,67,89,1,59,29,66,66,89,1,59,29,63,66,89,1,59,29,66,65,88,1,58,29,64,65,88,1,57,29,63,65,88,1,58,28,63,64,87,1,57,28,60,64,86,1,57,28,63,63,86,1,57,28,65,63,86,1,57,28,62,63,85,1,56,28,62,63,85,1,56,28,65,63,84,1,56,28,63,62,84,1,56,27,63,62,83,1,55,27,63,62,83,1,56,27,61,62,83,1,55,27,59,61,82,1,55,27,60,63,82,1,55,27,58,63,82,1,54,26,58,62,81,1,54,26,61,62,81,1,54,26,63,62,81,1,53,26,62,61,80,1,53,26,62,61,79,1,53,26,60,61,79,1,53,26,60,60,79,1,52,25,60,60,79,1,52,25,60,60,79,1,52,26,57,60,78,1,51,25,57,59,78,1,51,25,54,59,77,1,51,25,57,59,77,1,51,25,56,59,77,1,51,25,60,58,76,1,51,25,61,58,76,0,50,24,60,57,76,1,50,24,58,57,75,1,50,24,58,57,75,1,50,24,58,56,75,1,50,24,54,56,75,1,49,24,56,56,74,1,49,24,52,56,73,1,49,24,54,56,73,1,48,24,52,56,73,1,48,24,53,55,73,1,48,24,54,55,71,1,48,24,58,55,71,1,48,24,57,55,71,1,48,23,57,54,71,1,47,24,56,54,71,1,48,23,53,54,71,1,47,24,50,53,71,1,47,23,53,53,70,1,47,22,49,53,70,1,46,23,51,52,70,1,46,23,49,52,70,1,46,22,52,52,69,1,46,23,50,51,68,1,46,22,53,52,68,1,45,22,51,51,68,1,45,22,50,51,67,1,45,22,50,51,67,1,45,22,48,51,67,1,44,22,49,50,67,1,44,22,47,50,66,1,44,22,46,50,66,1,44,22,45,50,66,1,44,22,49,49,66,1,44,22,48,50,65,1,43,22,51,49,65,1,43,21,51,49,65,1,43,21,52,49,64,1,43,21,48,48,63,1,43,21,51,48,63,1,42,21,47,48,63,1,42,21,48,48,63,1,42,21,46,48,63,1,42,20,45,48,62,1,41,21,46,47,62,1,42,20,46,47,62,1,41,20,43,47,61,1,41,20,46,47,61,1,41,20,45,47,61,1,41,20,47,47,61,1,40,20,49,46,60,1,39,20,46,46,110,1,39,19,46,45,108,1,39,19,45,46,108,1,39,19,44,45,108,1,39,19,43,44,107,1,39,19,43,45,106,1,39,19,40,44,105,1,39,19,41,44,105,1,39,19,42,44,103,1,38,19,46,43,103,1,39,19,44,43,103,1,39,19,44,43,103,1,38,18,46,43,102,1,38,19,42,43,102,1,38,18,42,43,101,1,37,18,41,43,101,0,38,18,39,44,100,1,37,18,59,81,99,1,37,18,69,81,99,1,36,18,73,79,99,1,37,18,76,79,98,1,36,18,78,79,97,1,36,18,77,78,97,0,36,17,81,78,97,1,36,18,80,78,96,1,35,17,79,77,96,1,36,17,78,77,96,1,35,17,77,77,95,1,35,17,73,76,95,0,35,17,74,76,94,1,35,46,71,76,94,1,35,45,71,75,93,1,34,45,71,75,93,1,35,44,73,75,93,0,34,44,71,74,92,1,34,44,75,73,92,1,34,44,71,73,91,1,34,44,74,73,91,1,33,43,71,72,90,1,34,44,71,71,90,1,70,43,70,71,90,1,69,42,67,71,89,1,69,43,67,71,89,1,69,42,67,71,89,1,67,42,67,71,88,1,67,41,67,70,88,1,67,42,69,70,88,1,67,41,71,69,87,1,66,41,69,69,87,1,66,41,67,69,86,1,66,41,70,68,86,1,66,41,65,75,85,1,65,39,73,75,85,1,65,39,71,75,84,1,65,39,71,74,84,1,64,39,69,74,83,1,63,39,71,73,83,1,63,39,71,73,83,1,63,39,73,72,82,1,63,39,71,71,82,1,63,39,71,71,82,1,62,38,73,71,81,1,62,38,70,71,81,1,62,38,71,71,81,1,62,38,68,71,80,1,61,38,71,70,79,1,61,38,67,70,79,1,61,37,64,69,79,1,61,37,67,71,79,0,60,37,66,71,79,1,60,37,67,71,79,1,60,37,69,70,78,1,59,36,69,70,78,1,59,36,73,69,78,1,59,35,71,69,77,1,59,35,71,69,77,1,59,35,66,68,76,1,58,35,67,68,76,1,58,35,63,67,76,1,57,35,65,69,76,1,57,35,62,68,75,1,57,34,63,68,75,1,57,35,64,67,75,1,57,34,64,67,78,1,56,34,66,67,78,1,56,34,66,67,78,1,56,34,67,66,77,1,56,34,65,66,77,1,56,34,67,66,76,1,55,33,65,65,76,1,55,33,65,65,76,1,54,33,62,65,75,1,54,33,62,65,76,1,53,35,59,67,75,1,53,34,73,85,75,1,53,34,81,85,74,1,53,34,82,84,74,1,60,34,86,84,73,1,60,33,83,83,73,1,60,34,81,83,71,1,59,33,83,83,71,1,59,33,79,82,72,1,59,33,78,81,71,1,59,33,79,115,71,1,59,33,107,131,71,1,67,32,120,130,71,1,67,32,126,129,70,1,66,32,129,127,70,1,65,31,129,127,69,1,65,31,124,127,69,1,96,31,125,126,69,1,109,31,121,125,69,1,173,31,120,124,68,1,171,31,119,124,67,1,169,31,116,123,67,1,167,39,118,123,67,1,167,42,115,121,67,1,166,41,117,121,66,1,165,41,116,121,66,1,164,41,117,120,66,1,163,41,115,119,65,1,162,39,114,118,65,1,161,39,112,118,65,1,160,39,112,117,64,1,159,39,112,116,63,1,159,57,113,117,63,1,158,102,113,116,63,1,157,131,112,115,63,1,156,130,110,115,63,1,155,129,111,114,62,0,155,127,113,113,62,1,153,127,111,113,62,1,153,126,111,112,61,1,152,125,109,112,61,0,151,124,109,111,61,1,150,124,107,111,60,1,150,123,105,110,60,1,149,122,105,110,60,1,148,121,103,109,59,1,147,121,108,109,59,1,146,120,110,108,99,1,146,119,108,107,97,1,145,118,105,107,97,1,144,118,103,106,96,1,143,117,107,117,96,1,143,117,112,116,95,1,145,115,109,115,94,1,146,115,110,115,94,1,145,115,107,114,93,1,143,114,108,113,92,1,143,113,109,113,92,1,142,112,109,112,91,1,142,112,110,112,91,1,141,112,109,111,90,1,140,111,105,110,89,1,140,110,103,110,89,1,139,110,101,109,89,1,138,109,99,108,88,1,137,108,103,108,88,1,137,108,105,107,88,1,135,108,105,107,87,1,135,107,105,106,87,1,135,106,105,105,86,1,134,105,103,105,86,1,133,105,99,103,85,1,133,104,101,103,84,1,132,103,99,103,84,1,131,103,97,103,83,1,130,103,98,102,83,1,130,102,98,102,83,1,129,102,96,101,82,1,128,101,98,100,82,1,127,101,99,100,81,1,127,100,96,99,81,1,127,99,98,99,81,1,129,99,95,99,79,1,156,99,94,98,79,1,155,98,94,98,79,1,154,98,91,97,79,1,153,97,92,97,78,1,153,97,89,96,78,1,152,97,93,96,78,1,151,96,91,96,78,1,150,96,92,95,77,1,149,95,93,95,77,1,149,95,90,94,76,1,148,95,93,102,76,1,147,94,98,103,76,1,147,94,100,103,75,1,146,93,99,103,75,1,145,93,97,103,74,1,144,92,98,103,74,1,143,92,96,102,73,1,143,91,97,102,73,1,142,91,98,101,73,1,141,90,98,100,73,1,141,90,96,99,71,1,140,89,96,99,71,1,140,89,94,99,71,1,139,89,96,98,71,1,138,88,95,97,71,1,137,88,90,97,71,1,137,88,90,97,70,1,135,87,91,96,70,1,135,86,91,96,70,1,135,87,92,96,111,1,135,86,93,95,128,1,134,86,93,94,127,1,138,85,90,94,126,1,143,85,90,93,125,1,143,84,88,93,124,1,142,83,87,92,124,1,141,83,88,92,123,1,140,83,85,92,123,1,140,83,85,91,121,1,139,82,90,91,121,1,139,82,91,90,121,1,138,81,89,89,120,1,137,81,90,89,120,1,135,81,89,89,119,1,135,80,86,89,118,1,135,79,85,88,117,1,134,79,86,88,117,1,134,79,81,88,116,1,133,79,83,87,115,1,133,78,79,87,115,1,131,78,83,86,114,1,131,77,82,86,113,1,131,77,86,85,113,0,130,77,86,85,112,1,129,76,85,84,112,1,129,76,82,84,112,1,128,135,83,83,111,1,127,138,84,83,110,1,127,137,79,82,110,1,126,135,79,83,109,1,125,135,77,82,108,1,125,134,77,81,108,1,124,134,78,81,108,1,124,133,78,81,107,1,123,132,81,79,106,1,122,131,81,80,105,1,122,131,80,79,105,1,121,216,84,79,104,1,121,310,78,79,103,1,120,307,77,78,103,1,120,304,71,78,103,1,119,303,73,78,102,1,119,300,76,77,102,1,118,298,74,77,101,0,117,295,75,76,101,1,117,295,78,76,100,1,116,293,77,76,99,1,116,291,73,75,99,1,115,289,74,75,99,1,115,287,73,75,98,1,114,286,71,74,98,1,114,284,68,74,97,1,113,283,69,73,97,1,113,281,71,73,96,1,112,280,71,73,96,1,112,279,72,73,96,1,111,276,75,71,95,1,111,275,73,71,94,1,110,274,71,71,94,1,110,271,67,71,94,1,109,271,70,71,93,1,109,270,66,71,93,1,108,268,68,70,92,1,108,267,65,70,92,1,107,265,69,69,92,1,107,263,71,69,91,1,106,262,71,69,90,1,106,261,70,68,90,1,105,259,69,68,89,1,105,258,69,68,89,1,103,257,65,67,89,1,103,255,64,67,88,1,103,254,63,67,88,1,103,253,61,67,87,1,103,252,64,66,88,1,102,251,66,66,87,1,102,249,64,66,122,1,101,248,67,65,125,1,101,247,68,65,124,1,100,246,64,65,123,1,99,244,63,64,123,0,99,243,62,63,122,1,99,242,61,63,121,1,98,241,63,63,121,1,98,239,59,63,120,1,98,238,60,63,120,1,97,237,60,63,119,1,97,236,61,62,118,1,99,235,62,62,118,1,110,233,65,62,117,1,110,231,60,62,116,1,109,231,63,61,116,1,109,230,62,61,115,1,108,229,62,61,114,1,108,227,57,60,114,1,107,226,57,60,113,1,106,226,55,60,113,1,105,225,57,60,112,1,105,223,61,59,111,1,105,222,59,59,111,1,103,221,61,59,110,1,103,220,58,59,110,1,103,219,59,57,109,1,103,218,59,57,109,1,102,217,58,57,108,1,102,216,56,57,107,1,101,215,53,57,107,1,101,213,52,57,107,1,100,212,54,56,105,1,99,211,56,56,105,1,99,210,56,56,103,1,99,210,56,55,103,1,98,208,58,56,103,1,98,207,55,55,103,1,97,207,56,55,102,1,97,206,51,54,102,1,96,205,50,54,101,1,96,204,50,54,101,1,96,203,53,54,100,1,95,202,51,53,99,1,95,201,53,56,102,1,94,199,65,73,133,1,94,199,70,71,131,1,93,198,69,71,131,1,93,197,69,71,130,1,93,197,68,71,129,2,92,195,70,70,129,1,92,195,65,70,128,1,91,194,67,69,127,1,91,193,65,69,126,1,91,192,68,69,126,1,90,192,71,68,125,1,90,190,69,68,124,1,89,189,71,67,124,1,89,189,67,67,123,1,88,188,66,67,122,1,88,187,65,67,122,1,88,186,67,67,121,1,88,185,62,66,121,1,87,184,65,65,120,1,87,184,60,66,120,1,87,183,63,67,119,1,86,182,65,66,119,1,85,181,67,66,118,1,85,180,66,65,117,1,85,179,64,65,117,1,84,179,63,65,115,1,83,178,65,64,115,1,84,177,62,64,115,1,83,176,61,63,114,1,83,176,62,63,113,1,82,175,60,63,113,1,82,174,62,63,112,1,82,174,61,63,112,1,81,173,64,62,111,1,81,172,62,62,111,2,81,171,61,62,111,2,80,170,61,61,110,1,79,169,62,61,109,1,112,167,59,61,109,1,111,167,58,60,108,1,110,167,59,60,108,1,109,166,54,60,107,1,109,166,57,60,107,1,108,165,57,59,106,1,108,164,59,59,105,1,107,163,59,58,105,1,107,162,59,58,103,1,106,162,58,58,103,1,105,161,56,58,103,1,105,160,56,57,103,2,103,159,56,57,102,1,103,159,55,57,101,1,103,158,52,57,101,1,103,157,52,56,101,1,102,157,54,56,171,1,101,156,59,56,174,1,113,155,55,55,172,1,112,155,58,55,171,1,112,153,54,55,171,1,111,153,52,55,169,1,111,152,54,54,167,1,110,152,49,54,167,1,109,152,51,53,166,1,108,150,50,53,165,1,108,150,55,53,164,1,107,149,52,53,163,1,107,148,54,52,162,1,106,147,52,52,161,1,105,147,51,52,161,1,105,146,52,51,159,1,105,145,51,51,159,1,103,145,50,51,158,1,103,144,47,52,157,1,103,143,48,52,156,1,103,143,51,51,156,1,102,142,53,51,155,1,102,142,51,51,154,1,101,141,50,50,153,1,101,140,50,50,152,1,99,140,50,50,152,1,99,140,51,50,151,1,99,218,56,50,150,1,99,241,51,49,149,1,98,238,49,49,148,1,97,238,46,49,147,1,97,236,48,49,147,1,97,235,49,49,146,1,96,233,51,49,152,1,96,231,51,48,151,1,95,231,48,48,150,1,95,229,50,47,149,1,94,227,47,47,148,1,94,227,48,47,147,1,93,225,44,47,146,1,93,224,46,46,145,1,92,223,42,47,145,1,92,222,43,46,143,1,91,221,46,46,143,1,91,219,45,46,143,1,91,219,48,46,142,1,90,217,48,45,141,1,89,216,46,45,140,1,89,216,46,45,140,1,89,214,46,44,139,1,88,213,45,45,139,1,88,212,43,44,138,1,88,211,42,44,137,1,88,210,43,44,137,1,87,208,41,44,135,1,86,207,42,43,135,1,86,206,43,43,135,1,86,206,47,43,134,1,85,204,42,43,133,1,85,204,42,42,133,1,84,203,43,42,132,1,83,201,39,42,131,1,83,201,39,42,131,1,83,199,37,41,130,1,83,199,38,41,130,1,82,198,38,41,129,1,82,197,43,41,128,1,82,195,45,41,127,1,82,195,45,41,127,1,81,194,44,39,126,1,81,193,39,39,126,1,79,192,41,39,125,1,79,191,38,39,125,1,79,190,36,39,124,1,79,189,39,57,123,1,78,188,48,57,123,1,78,188,51,56,123,1,78,186,57,56,121,1,78,185,55,56,121,1,77,185,57,56,121,1,77,184,57,55,120,1,77,184,56,55,120,1,76,182,52,54,119,1,76,181,55,54,119,1,76,180,51,54,118,1,75,179,53,53,117,1,75,178,51,53,117,1,75,178,50,53,115,1,75,177,53,52,115,1,74,176,54,52,115,1,73,175,55,52,114,1,73,175,51,51,114,1,73,174,51,51,113,1,72,173,51,51,113,1,73,172,49,51,112,1,71,172,51,51,112,1,71,170,49,50,111,1,71,169,48,50,111,1,71,169,48,51,110,1,71,167,47,50,110,1,71,167,51,50,109,1,70,167,49,49,109,1,71,166,51,49,108,1,70,165,48,49,108,1,69,165,48,49,107,1,69,163,49,48,107,1,68,163,49,48,106,1,68,162,48,88,106,1,68,161,79,101,105,1,68,160,91,99,105,1,67,159,97,99,103,1,67,159,97,98,103,1,77,159,99,98,103,1,164,158,96,97,103,1,161,158,98,97,102,1,159,157,99,96,102,1,159,209,98,96,102,1,158,207,95,95,101,1,157,207,92,95,100,1,156,205,88,94,100,1,155,203,88,93,99,1,155,202,89,93,99,1,153,201,90,92,98,1,153,199,91,92,98,1,152,199,94,92,97,1,151,198,90,91,97,1,151,197,91,91,96,1,150,195,88,90,96,1,149,195,89,89,96,1,148,194,83,89,96,1,147,193,85,89,95,1,147,192,83,88,94,1,146,191,88,88,94,1,145,190,88,88,93,1,144,189,88,88,93,1,143,188,88,86,92,1,143,187,84,86,92,1,142,186,86,85,92,0,142,185,85,85,91,1,141,184,82,85,91,1,140,184,81,84,90,1,140,183,79,83,90,1,139,182,79,83,90,1,139,180,82,83,89,1,137,179,81,82,89,1,137,179,84,82,88,1,135,178,80,81,88,1,135,177,82,81,88,1,135,176,79,81,88,1,135,176,81,80,87,1,134,175,76,79,86,1,133,174,76,79,86,1,169,173,77,79,86,1,167,172,75,79,85,1,166,171,77,78,85,1,165,171,78,78,85,1,164,169,76,78,84,1,163,169,79,77,83,1,163,167,76,77,83,1,162,167,78,76,83,1,161,166,73,76,83,1,159,167,74,76,82,1,159,166,75,76,82,1,158,165,70,75,81,1,157,165,71,75,81,1,157,163,71,75,81,1,156,163,74,74,80,1,155,162,71,73,80,1,155,161,71,73,79,1,153,160,71,73,79,1,152,159,71,71,79,1,152,159,73,71,79,1,152,158,73,71,78,1,151,157,67,71,78,1,150,156,66,71,77,1,149,156,66,71,77,1,148,155,68,71,76,1,148,155,66,70,76,1,146,154,67,70,76,1,146,153,69,69,75,1,145,152,71,69,75,1,145,152,70,68,75,1,143,151,70,68,74,1,143,150,69,67,74,1,143,150,65,67,74,1,142,149,63,67,73,1,141,148,62,67,73,1,140,147,62,66,72,1,140,147,61,66,71,1,139,146,67,66,71,1,138,145,65,66,71,1,138,145,66,65,71,1,137,144,65,65,71,1,137,143,63,64,71,1,135,143,61,64,71,1,135,142,61,63,70,1,135,163,61,63,70,1,134,192,59,63,70,1,134,190,57,63,69,1,134,189,63,66,69,1,133,188,66,65,69,1,132,187,64,65,67,1,131,186,67,64,67,1,131,185,67,64,67,1,130,184,63,63,67,1,130,183,62,63,67,1,129,182,74,103,69,1,128,181,91,103,69,1,127,180,96,103,69,1,127,294,101,102,67,1,127,290,98,101,67,1,126,289,101,101,67,1,125,286,99,99,67,1,125,284,101,99,66,1,124,282,96,99,66,1,124,281,99,98,65,1,123,280,94,98,65,1,123,278,97,97,65,1,122,300,95,97,64,0,121,352,93,96,64,1,121,349,91,96,64,1,120,346,91,96,65,1,120,344,93,95,65,1,119,342,93,94,64,1,119,339,93,94,64,1,118,338,92,93,63,1,118,335,90,93,63,1,117,334,93,92,63,1,117,332,93,92,63,1,116,330,88,92,63,1,115,327,88,91,62,1,115,326,89,101,62,1,114,324,102,114,61,1,113,322,108,113,61,1,113,319,110,112,61,1,113,318,111,111,61,1,112,316,110,110,60,1,112,314,108,110,60,1,111,312,110,109,60,1,110,311,108,109,60,1,110,308,105,108,59,1,109,307,103,108,59,1,109,305,103,107,59,1,108,303,106,106,58,1,108,302,107,105,59,1,107,300,105,105,59,1,107,299,103,103,58,1,106,295,102,103,57,1,105,295,99,103,57,1,105,293,101,103,57,1,105,291,97,102,57,1,103,290,99,102,57,1,103,291,97,101,56,1,103,366,102,101,56,1,166,363,99,99,56,1,177,359,99,99,56,1,175,358,97,98,55,1,174,355,96,98,55,1,173,353,96,97,55,1,172,351,97,97,55,1,171,349,93,97,54,1,170,347,94,96,54,1,169,345,90,96,54,1,167,342,90,96,53,1,167,341,94,95,53,1,167,339,96,95,53,1,166,337,96,94,52,1,165,335,92,94,52,1,164,334,94,93,52,1,163,332,91,93,51,1,162,329,89,92,52,1,161,327,88,92,51,1,161,326,87,92,51,1,159,324,85,91,51,1,159,322,88,97,50,1,159,319,92,96,50,1,157,319,96,96,50,1,157,317,93,96,50,1,156,316,96,96,49,1,156,313,93,95,49,1,155,312,92,94,49,1,154,310,94,94,49,1,153,308,89,93,49,1,152,307,91,93,48,1,152,305,90,92,48,1,152,304,86,92,48,1,150,302,88,91,48,1,149,300,87,91,48,1,148,299,89,90,48,1,148,297,89,90,57,1,147,295,87,89,57,1,146,294,87,89,57,1,146,293,86,88,56,1,145,291,85,88,56,1,145,289,83,88,56,1,143,288,83,115,56,1,143,287,108,121,55,1,142,285,112,120,55,1,142,284,115,120,54,0,141,281,114,119,54,1,140,280,118,118,54,1,139,279,114,117,53,1,139,277,113,116,53,1,138,275,114,115,53,1,137,274,113,115,52,1,136,273,108,114,52,1,135,271,106,114,52,1,135,270,107,113,51,1,135,269,107,112,51,1,134,267,109,111,51,1,133,266,109,111,51,1,132,263,111,110,50,1,132,263,109,110,50,1,131,262,108,109,49,1,130,260,106,109,50,1,130,259,103,108,49,1,129,257,103,108,49,1,129,255,103,107,48,1,127,254,103,106,48,1,127,253,103,105,48,1,127,252,103,105,56,1,126,251,103,103,56,1,125,249,103,103,56,1,125,248,99,103,55,1,135,247,101,103,55,1,143,305,100,102,54,1,143,304,99,102,54,1,142,302,94,101,54,1,142,301,94,101,54,1,141,299,99,99,53,2,140,295,99,99,53,1,139,295,99,99,53,1,139,293,96,99,53,1,138,291,95,98,53,1,137,290,94,97,52,1,136,287,96,97,52,1,135,287,93,96,51,1,135,285,93,96,51,1,135,284,93,96,51,1,134,281,93,96,51,1,133,280,93,95,50,1,132,279,91,94,52,1,131,277,92,94,52,1,131,276,91,93,52,1,131,274,90,93,51,1,130,273,90,92,51,1,129,271,92,92,51,1,129,270,88,92,51,1,128,269,88,91,50,1,127,268,87,90,50,1,127,266,86,90,50,1,126,263,86,89,49,1,126,263,89,89,79,1,125,262,86,89,78,1,124,260,89,89,78,1,124,259,88,88,77,1,139,258,89,88,77,1,137,255,86,87,76,1,135,255,85,87,76,1,135,254,82,87,76,1,135,253,79,86,75,1,134,251,78,86,75,1,134,250,80,85,75,1,133,249,81,85,74,1,132,248,82,84,73,1,131,246,85,83,73,1,131,245,84,83,73,1,239,244,83,83,71,1,309,243,79,83,71,1,307,241,81,82,71,1,304,240,75,82,71,1,302,239,77,82,71,1,301,238,75,81,71,1,299,237,79,81,70,1,297,236,79,80,70,1,295,235,78,79,69,1,294,233,81,79,69,1,291,233,77,79,68,1,290,231,78,79,68,1,289,231,77,78,68,0,287,229,75,78,67,1,286,228,72,77,67,1,284,227,71,77,67,1,283,226,71,77,66,1,281,225,74,76,66,1,280,224,76,76,66,1,278,223,76,76,65,1,277,222,73,75,65,1,275,222,76,75,65,1,274,220,71,75,64,1,271,219,74,74,64,1,271,219,70,74,63,1,270,217,70,74,63,1,268,216,69,99,63,1,267,216,92,109,63,1,265,229,99,109,62,1,264,229,105,108,62,1,263,227,103,107,62,1,261,225,103,106,62,1,259,224,106,106,61,1,259,223,101,105,60,1,257,222,102,103,60,1,255,221,100,103,60,1,254,219,98,103,60,1,253,218,99,102,59,1,252,217,99,102,59,1,251,216,99,102,59,1,249,215,97,101,58,1,248,214,101,100,58,1,246,212,99,99,57,1,246,211,98,99,57,1,244,211,96,99,57,1,243,209,98,98,57,1,248,209,93,98,56,1,247,207,92,97,56,1,246,207,91,101,56,1,244,206,93,101,56,1,242,205,95,101,56,1,242,204,96,100,55,2,240,203,99,99,55,1,239,202,98,99,54,1,238,201,98,98,54,1,237,199,97,97,54,2,236,199,96,97,53,1,235,199,94,97,53,1,233,197,89,96,53,1,233,197,88,96,53,1,231,196,88,95,53,1,231,195,88,95,52,1,230,229,92,94,52,1,228,229,95,94,51,1,227,227,92,93,51,1,227,227,92,93,51,2,225,225,91,92,51,2,224,224,89,92,50,1,223,223,87,92,50,1,222,221,88,91,50,2,221,220,83,91,50,1,220,219,86,90,49,1,219,218,86,90,49,2,218,217,88,89,49,1,217,216,88,89,49,1,216,215,85,88,49,2,216,213,88,88,48,1,214,213,84,87,48,1,213,211,83,87,48,1,212,210,83,86,48,1,211,209,80,86,47,2,211,207,81,86,47,2,209,207,81,85,47,2,208,206,78,84,46,2,207,205,82,84,46,2,207,204,83,84,46,2,206,203,83,83,46,1,205,202,79,83,45,1,204,201,82,82,45,2,203,199,78,82,45,2,202,199,81,82,45,1,201,198,78,81,44,1,199,197,76,81,45,1,199,195,76,80,44,1,198,195,73,80,44,1,198,194,77,79,44,2,197,193,78,79,44,1,195,192,77,79,43,1,195,192,76,79,43,2,194,190,75,78,43,1,193,190,75,78,43,2,192,189,76,78,42,2,192,188,74,77,43,2,191,187,74,77,41,1,190,186,69,76,42,1,190,185,71,76,41,1,188,185,71,76,41,2,187,184,75,75,41,1,187,183,71,75,41,1,186,182,76,75,41,1,185,182,75,74,40,1,184,181,71,74,40,1,184,179,71,73,39,1,183,179,71,73,39,1,182,179,66,73,39,1,181,178,68,71,39,2,180,177,65,71,39,1,179,176,66,71,39,1,179,175,67,71,39,2,178,175,69,71,39,1,177,174,71,71,39,1,177,173,71,70,39,1,176,172,69,70,39,1,175,172,69,70,39,1,174,171,68,69,39,1,173,170,63,69,38,1,173,169,62,69,38,2,172,168,62,68,38,1,171,167,63,68,37,1,171,167,67,67,37,1,170,167,69,67,37,1,169,166,65,67,37,1,167,165,65,67,36,1,167,164,63,66,37,1,167,163,65,66,36,1,166,163,61,66,36,1,165,162,60,65,36,1,164,161,60,65,35,1,164,161,59,65,36,1,163,159,62,64,35,1,163,159,63,64,35,1,162,159,65,63,35,1,161,158,62,63,35,2,161,158,62,63,34,1,159,157,61,63,34,1,159,191,64,63,35,1,159,271,62,62,34,1,158,270,62,62,34,1,157,268,56,62,34,1,157,265,57,61,33,1,156,263,57,61,33,1,156,262,60,61,33,1,154,261,57,60,33,1,154,259,58,60,33,1,153,258,59,60,33,1,152,257,57,60,33,1,152,255,56,59,32,1,152,254,57,59,32,1,151,252,59,59,32,1,150,251,54,58,32,1,150,249,56,58,31,1,149,248,56,58,31,1,148,247,54,57,31,1,147,246,56,57,31,1,147,244,59,57,31,1,146,243,55,57,31,1,146,242,55,56,31,1,145,241,55,56,31,1,144,239,56,56,31,1,143,238,51,56,31,1,143,237,50,56,30,1,143,235,50,55,30,1,142,234,53,55,30,1,142,233,50,55,30,1,141,231,52,54,30,1,141,231,52,54,29,1,140,229,53,54,29,1,139,228,56,53,29,1,139,227,56,53,29,1,138,226,54,53,29,1,137,225,54,53,29,1,137,224,51,53,29,1,135,223,47,52,29,1,135,222,47,52,29,1,135,221,48,51,28,1,135,220,50,51,28,1,134,219,49,51,28,1,134,217,51,51,28,1,133,216,51,51,28,1,132,216,50,51,28,1,132,214,49,50,27,1,131,213,47,50,27,1,131,212,47,50,27,1,130,211,45,50,27,1,130,211,48,49,27,1,129,209,48,49,27,1,129,207,50,48,27,1,128,207,51,48,26,1,127,206,48,48,26,1,127,205,50,48,27,1,127,204,50,48,26,1,126,204,46,48,26,1,125,202,46,48,26,1,125,201,43,48,26,1,125,201,44,47,26,1,124,301,46,47,25,1,124,299,44,46,25,1,123,295,45,46,25,1,122,295,47,46,25,1,122,293,46,45,25,1,121,291,46,45,25,1,121,289,47,45,24,1,121,287,45,45,25,1,120,286,46,45,24,1,120,284,43,45,24,1,119,283,41,44,24,1,119,281,42,44,24,1,118,280,43,44,24,1,117,278,43,43,24,1,117,276,42,