
56,27,1,67,65,0,

56,27,1,67,63,0,

56,27,1,66,63,0,

55,27,1,66,63,1,

55,26,1,66,63,1,

55,27,0,66,62,1,

54,26,1,65,62,1,

54,26,1,65,62,1,

54,26,1,65,61,1,

53,25,1,64,61,1,

53,25,1,63,61,1,

54,25,0,63,61,1,

53,25,1,63,60,1,

53,25,1,63,61,0,

53,25,1,63,60,1,

52,25,1,63,60,0,

52,25,0,62,59,1,

52,25,1,62,59,1,

51,25,1,62,59,1,

51,24,1,61,58,1,

51,24,1,61,58,1,

51,24,1,61,58,1,

51,24,1,60,57,0,

51,24,1,60,57,1,

50,24,1,60,57,1,

50,24,1,60,57,1,

49,24,1,60,56,1,

49,24,1,59,56,0,

49,24,0,59,56,1,

49,24,1,58,56,1,

49,24,1,59,56,1,

49,23,1,58,56,0,

48,23,1,58,56,1,

48,23,1,58,55,1,

48,23,1,57,54,0,

48,22,1,57,54,1,

47,22,0,57,54,1,

48,22,1,57,54,1,

47,22,1,57,54,1,

47,22,1,57,53,0,

47,22,1,56,53,1,

47,22,0,56,53,1,

46,22,1,56,52,1,

46,22,1,55,52,1,

46,21,1,56,52,1,

46,21,1,55,52,0,

45,21,1,55,51,1,

46,22,0,54,51,1,

51,23,1,54,51,1,

51,22,0,54,50,1,

51,22,1,54,50,1,

50,22,1,54,50,1,

50,22,1,53,50,1,

50,22,1,53,50,0,

49,22,0,53,49,1,

49,22,1,53,49,1,

49,22,1,53,49,1,

49,22,0,52,49,1,

49,22,1,76,48,1,

48,22,1,88,49,1,

49,22,0,87,48,0,

49,21,0,87,48,0,

48,21,1,86,48,1,

48,22,1,85,47,1,

48,21,0,85,47,1,

48,21,1,84,47,0,

48,21,0,84,47,1,

47,21,1,83,47,1,

48,21,1,83,46,1,

47,21,1,83,46,0,

47,21,1,82,46,1,

46,20,1,82,46,1,

67,22,1,82,45,1,

71,22,1,81,46,1,

71,22,1,81,45,1,

71,22,1,81,45,1,

71,21,1,80,44,1,

70,21,1,79,44,0,

70,21,1,79,44,1,

70,21,1,79,44,1,

69,21,0,79,44,0,

69,21,1,78,44,1,

69,21,1,78,43,1,

68,20,0,78,43,0,

68,25,1,77,43,1,

69,38,0,77,43,1,

70,38,1,77,43,1,

70,38,1,77,43,0,

70,37,0,76,42,1,

69,37,1,76,43,1,

69,37,1,75,41,1,

69,36,1,75,42,1,

68,36,1,75,42,1,

68,36,1,74,41,1,

68,36,1,74,41,1,

67,36,0,73,41,1,

67,36,1,73,41,1,

67,35,1,73,40,1,

67,35,1,73,40,1,

66,35,1,73,39,1,

66,35,0,73,39,1,

66,34,1,71,39,1,

65,35,1,71,39,1,

64,34,1,71,39,1,

65,34,1,71,39,1,

65,34,1,71,39,1,

63,34,1,70,39,0,

63,33,1,70,39,1,

63,33,1,70,38,1,

63,33,1,70,39,1,

63,33,1,69,38,0,

63,33,1,69,38,1,

62,33,1,69,38,1,

62,32,1,68,38,1,

62,33,1,68,39,1,

61,31,1,67,38,1,

61,31,1,67,38,1,

61,31,1,67,38,1,

61,32,1,67,38,0,

61,31,1,66,38,1,

60,31,0,66,37,1,

60,31,0,66,37,1,

60,31,0,65,37,1,

60,31,1,66,37,1,

59,31,1,65,37,1,

59,31,1,65,36,0,

59,30,1,65,36,1,

58,31,1,64,35,0,

58,30,1,64,35,1,

58,30,0,63,35,0,

57,30,1,63,35,0,

57,30,0,63,35,1,

57,29,1,63,35,1,

56,29,1,63,35,1,

56,29,1,62,35,1,

56,29,1,62,34,1,

56,29,1,62,35,1,

56,29,1,62,90,1,

56,28,1,83,94,1,

56,29,1,82,93,0,

56,28,1,82,92,0,

56,28,1,82,92,1,

55,28,0,81,91,1,

55,28,1,81,91,0,

55,28,1,80,91,1,

55,28,1,79,90,1,

54,28,1,79,89,1,

54,28,0,79,89,1,

53,27,1,79,89,1,

53,27,1,78,88,1,

53,27,1,78,88,1,

53,27,1,78,88,1,

53,27,1,77,87,1,

53,27,0,77,86,1,

52,27,1,77,86,0,

52,26,1,76,86,1,

51,27,1,76,85,1,

52,26,1,76,85,1,

51,26,1,75,85,1,

51,26,1,75,84,1,

51,26,1,75,83,1,

51,25,1,74,83,1,

50,25,0,73,83,1,

50,25,1,73,82,0,

50,27,1,73,83,1,

50,26,0,73,82,0,

50,26,1,72,82,1,

50,26,1,71,81,1,

49,26,1,71,81,1,

49,26,1,71,80,1,

48,26,1,71,79,1,

48,26,1,71,79,0,

48,25,1,71,79,1,

48,25,1,71,79,0,

48,25,0,70,78,1,

48,25,1,70,78,1,

47,25,1,70,78,1,

48,26,1,69,78,1,

47,25,1,69,77,1,

47,25,0,69,77,0,

46,25,1,68,76,0,

46,25,1,68,76,1,

46,25,0,67,76,1,

46,24,1,67,76,1,

46,25,1,67,75,1,

46,24,1,67,75,1,

45,24,1,67,75,1,

45,24,1,66,74,1,

45,24,1,66,74,1,

48,24,1,66,73,0,

47,25,0,65,73,1,

47,31,1,65,73,1,

47,32,1,65,72,1,

47,32,1,65,71,1,

47,31,0,64,71,1,

46,31,1,63,71,0,

46,31,1,63,71,1,

46,31,1,63,71,0,

45,31,0,63,71,1,

45,31,1,62,70,1,

45,31,1,63,70,1,

45,30,1,62,70,0,

51,30,1,62,70,1,

51,31,1,62,70,1,

50,31,1,61,69,1,

50,31,1,61,69,1,

49,31,0,61,68,1,

50,31,0,61,68,1,

49,31,1,61,68,1,

49,31,1,60,67,1,

49,30,1,60,67,1,

48,30,1,60,67,0,

48,31,1,60,67,0,

48,30,1,59,67,1,

48,30,1,59,66,1,

48,29,0,59,66,1,

48,30,1,58,65,1,

48,30,1,58,65,1,

47,30,1,58,65,1,

47,29,1,58,65,0,

47,29,1,57,64,1,

46,29,1,57,64,0,

46,29,1,57,64,1,

46,28,0,57,63,0,

46,29,0,56,63,0,

45,28,1,56,63,1,

45,28,1,56,63,0,

45,28,1,56,62,1,

45,28,0,56,63,1,

45,28,1,56,62,1,

45,28,1,55,62,0,

45,27,1,55,61,1,

45,27,1,55,61,1,

44,27,1,54,61,1,

44,27,1,54,61,1,

44,27,1,54,61,1,

44,27,1,54,60,1,

43,27,0,54,60,1,

43,26,1,53,60,1,

43,26,1,53,60,1,

43,26,0,52,59,1,

43,26,1,53,59,0,

44,32,1,52,58,1,

44,34,0,51,58,1,

44,33,1,51,59,1,

43,34,1,51,58,1,

44,33,0,51,57,1,

43,33,0,51,57,1,

43,33,1,51,57,0,

43,33,1,51,57,1,

43,33,1,50,56,0,

42,32,1,51,56,1,

43,32,1,50,56,1,

42,31,1,50,56,0,

42,31,1,50,56,1,

42,31,1,49,56,1,

63,31,1,49,56,0,

62,31,1,49,55,1,

62,31,1,49,55,1,

62,31,0,48,54,1,

61,31,1,48,54,0,

61,30,1,48,54,1,

61,31,1,48,53,1,

60,30,1,48,54,1,

60,30,1,47,53,1,

60,30,1,47,53,1,

59,30,1,47,53,0,

59,30,1,47,52,1,

59,29,0,47,52,1,

59,29,0,46,52,1,

58,29,1,46,51,1,

58,29,1,46,51,0,

58,28,1,46,51,0,

57,29,1,46,51,1,

57,29,1,45,51,1,

57,29,1,45,51,0,

57,28,0,45,50,1,

56,28,1,44,50,1,

56,28,1,45,50,1,

56,28,1,44,49,0,

56,28,1,44,51,1,

56,51,1,44,51,1,

56,53,1,44,50,1,

55,52,1,43,50,1,

55,51,1,44,50,1,

55,51,1,44,50,0,

54,51,0,43,49,1,

54,50,1,43,49,1,

54,50,1,43,49,1,

54,50,1,43,48,1,

53,50,1,43,48,1,

53,50,1,42,48,1,

53,49,1,41,48,1,

52,50,1,44,48,1,

53,50,1,87,47,1,

52,49,0,86,47,1,

51,49,0,85,47,0,

51,48,1,85,47,1,

51,48,0,84,46,1,

51,48,0,84,46,1,

51,48,1,83,46,1,

51,48,1,83,46,1,

50,48,1,83,45,1,

50,47,1,82,45,1,

50,48,1,82,45,1,

50,47,0,81,46,1,

49,47,0,81,45,1,

49,48,1,81,46,1,

49,88,1,80,46,0,

49,88,1,80,46,1,

48,88,0,79,46,1,

48,87,1,79,46,0,

48,86,1,79,45,1,

48,86,0,79,45,0,

48,85,1,78,45,1,

47,85,1,78,45,1,

47,85,1,77,44,0,

47,84,0,77,44,1,

46,83,1,77,44,1,

47,83,1,77,44,1,

47,83,0,76,44,1,

46,82,1,99,44,1,

46,82,1,137,48,1,

46,82,1,135,48,0,

45,81,1,135,47,0,

46,80,1,134,47,0,

45,79,1,133,47,1,

45,79,1,132,46,1,

45,79,1,131,46,0,

44,79,1,131,47,0,

44,79,1,130,46,0,

44,78,0,130,46,1,

44,78,1,129,45,1,

44,77,1,128,46,1,

53,77,1,127,45,0,

53,77,0,127,45,1,

52,76,1,127,44,1,

52,76,1,126,44,0,

52,76,1,126,44,1,

51,75,1,125,44,1,

51,75,1,125,44,1,

51,75,1,124,44,1,

51,74,1,124,44,1,

51,74,1,123,43,1,

51,73,1,122,43,1,

50,73,1,121,43,1,

50,73,1,121,42,1,

50,73,1,121,43,1,

50,71,0,120,42,1,

50,71,0,120,42,1,

49,71,0,119,41,1,

49,71,1,118,42,1,

48,71,0,118,41,1,

48,71,1,117,41,0,

48,70,1,117,41,1,

48,70,1,116,40,1,

48,69,1,116,41,1,

72,70,1,115,39,1,

91,71,1,115,39,1,

91,71,1,114,39,1,

89,71,1,114,39,1,

89,71,0,113,39,1,

89,71,0,113,39,1,

88,70,0,113,39,1,

88,71,1,112,39,0,

87,69,1,112,39,1,

87,69,1,111,39,1,

87,69,1,110,38,1,

86,69,1,110,38,0,

86,68,1,110,38,1,

85,68,1,109,38,1,

85,67,1,109,38,1,

85,67,1,108,38,0,

83,67,0,108,37,0,

83,67,0,107,37,0,

83,66,1,107,37,1,

83,66,1,106,36,1,

82,65,1,106,37,1,

82,65,1,105,36,1,

81,65,0,105,56,1,

81,65,1,103,78,1,

81,64,1,103,77,0,

86,64,1,103,77,0,

91,63,1,103,77,1,

90,63,1,102,76,1,

90,63,1,103,76,0,

89,63,0,102,75,1,

88,63,1,101,75,1,

88,63,1,101,74,1,

88,62,0,100,74,1,

87,62,1,100,73,1,

87,62,1,99,73,1,

87,61,1,99,73,1,

86,61,1,99,73,1,

86,62,1,99,71,1,

86,62,1,98,71,1,

86,63,1,120,71,1,

86,64,0,119,71,1,

84,64,1,119,71,1,

84,63,0,118,71,1,

84,63,0,117,70,1,

83,63,1,117,70,1,

83,63,1,116,69,1,

83,62,0,116,69,1,

82,62,1,115,69,0,

82,62,1,115,69,1,

82,62,1,114,79,1,

83,61,1,114,79,1,

122,63,1,113,79,0,

122,62,1,113,79,1,

121,61,1,112,78,0,

120,62,1,112,78,1,

120,61,1,111,78,0,

119,60,1,110,77,1,

118,60,1,110,77,0,

118,62,1,109,76,1,

117,62,1,109,81,1,

116,62,1,109,83,0,

115,61,1,108,83,1,

115,70,1,108,82,1,

115,69,1,107,82,1,

114,68,1,106,81,1,

113,68,1,106,81,1,

113,67,1,105,81,1,

112,67,1,105,79,1,

112,67,1,103,79,1,

112,67,0,103,79,1,

111,66,1,103,78,1,

110,66,1,103,78,1,

110,66,1,102,78,1,

109,66,1,102,77,1,

109,65,1,159,77,1,

108,65,1,157,77,0,

108,65,0,156,76,1,

107,64,1,155,76,1,

107,63,0,154,76,1,

106,63,1,153,75,1,

105,63,1,153,75,0,

105,63,0,152,75,1,

104,62,1,151,74,1,

103,62,1,150,73,1,

103,62,1,150,73,0,

139,61,1,149,73,1,

172,61,0,148,71,0,

171,61,1,147,71,0,

169,69,0,146,71,0,

167,69,1,146,71,1,

167,68,0,145,71,1,

166,68,1,145,71,1,

165,68,1,143,70,0,

165,67,0,143,70,1,

163,67,1,142,70,1,

163,67,1,142,69,1,

162,66,0,141,70,1,

161,66,1,141,70,1,

161,66,1,140,70,1,

159,65,1,139,70,1,

159,65,0,139,69,1,

158,65,1,138,69,1,

158,64,1,137,68,1,

157,63,1,135,68,1,

156,63,1,135,67,0,

155,63,1,135,67,1,

154,63,1,135,67,0,

153,62,0,134,66,1,

153,62,1,134,66,1,

152,62,1,133,66,1,

152,61,1,132,66,1,

151,61,0,131,65,1,

150,61,1,131,65,0,

149,61,0,130,64,1,

148,60,0,130,64,0,

147,60,1,129,63,1,

147,60,1,128,63,0,

146,60,1,127,63,1,

145,59,1,127,63,1,

145,59,1,126,62,1,

143,59,1,126,62,1,

143,59,1,126,62,0,

144,80,1,125,62,1,

144,79,1,124,61,1,

143,79,1,124,61,1,

142,79,0,123,61,1,

142,78,1,123,60,1,

141,78,1,122,60,1,

140,78,1,121,60,1,

140,77,1,121,60,1,

139,77,1,121,60,1,

139,77,1,120,66,1,

138,76,1,120,67,1,

137,75,0,120,66,1,

135,75,1,119,66,1,

135,75,1,118,66,1,

135,75,1,118,65,0,

134,74,0,117,65,1,

134,73,1,116,65,1,

133,73,1,116,64,1,

133,72,0,115,63,1,

132,72,1,115,63,1,

131,71,0,114,63,1,

131,71,1,114,63,1,

130,71,1,113,62,0,

130,71,0,113,62,1,

129,71,1,113,62,1,

128,70,1,112,62,0,

127,70,1,112,62,1,

127,69,0,111,61,1,

127,70,1,110,61,0,

126,69,1,110,60,0,

126,68,1,109,60,1,

125,69,1,109,60,1,

124,67,1,109,60,1,

124,67,1,108,59,1,

124,67,1,108,59,0,

123,67,1,107,58,1,

122,67,0,107,58,1,

121,66,1,107,58,0,

121,66,1,105,58,1,

121,66,1,105,57,1,

120,65,1,105,57,1,

120,64,0,103,57,1,

119,64,1,103,56,0,

118,63,1,103,56,0,

118,63,1,103,56,1,

117,63,1,103,56,1,

118,63,1,115,56,1,

117,63,0,114,91,1,

116,62,1,113,90,1,

115,62,1,112,89,1,

115,62,1,112,89,1,

115,62,1,112,88,1,

114,61,1,111,88,0,

113,61,0,110,87,1,

113,60,1,110,86,1,

112,60,0,109,86,0,

112,60,1,109,86,1,

112,60,1,108,85,1,

111,59,1,108,85,1,

110,59,1,107,84,1,

110,59,0,106,83,1,

110,58,1,106,83,0,

109,58,1,105,83,1,

109,58,0,105,83,1,

108,58,1,103,82,0,

107,57,0,103,82,1,

107,57,1,103,81,1,

107,57,1,103,81,1,

106,56,0,103,81,1,

106,56,1,103,80,1,

105,56,1,102,79,1,

105,56,1,101,79,0,

103,60,0,101,79,1,

103,60,1,101,78,1,

103,59,1,100,78,1,

103,59,1,99,78,1,

102,59,1,99,77,0,

102,59,0,99,77,1,

102,58,1,98,77,1,

101,57,1,98,76,1,

101,57,1,97,76,1,

100,57,1,97,76,1,

100,57,1,96,75,0,

99,56,1,96,75,1,

99,57,1,96,74,1,

98,56,1,96,74,1,

98,56,1,95,74,0,

98,56,1,95,73,1,

97,55,1,94,73,1,

97,55,1,94,73,1,

96,55,1,94,73,1,

96,54,1,93,71,1,

96,54,1,93,78,1,

96,126,1,93,79,1,

95,212,1,92,79,1,

95,253,1,92,79,1,

95,251,0,92,79,0,

94,250,0,91,78,1,

93,248,1,91,77,0,

94,247,1,90,77,1,

93,245,1,90,77,1,

92,244,1,90,77,1,

92,242,1,89,76,1,

92,241,1,89,76,0,

91,240,1,88,75,1,

91,239,0,88,75,1,

91,238,1,92,94,0,

108,237,1,93,94,1,

108,236,1,93,93,0,

107,234,0,92,92,1,

106,233,1,92,92,1,

106,231,1,92,92,1,

105,231,1,91,91,1,

104,229,1,91,91,1,

103,227,0,91,90,1,

103,227,1,90,90,1,

103,226,0,89,89,1,

102,225,1,89,89,0,

135,223,1,89,88,1,

134,223,1,98,88,0,

134,222,1,105,96,1,

132,220,1,104,95,1,

132,219,1,103,94,1,

131,218,0,103,94,1,

131,216,0,103,93,1,

130,216,1,102,93,1,

129,215,1,102,92,1,

129,213,0,101,92,1,

127,213,0,100,91,1,

127,211,1,100,91,1,

126,210,1,99,90,1,

126,209,0,99,90,1,

125,208,0,98,89,0,

125,207,1,98,89,1,

124,206,1,98,89,1,

124,206,1,97,88,1,

123,204,0,97,88,1,

122,204,1,96,88,1,

122,203,1,96,87,1,

121,201,1,96,87,1,

121,201,1,96,86,0,

143,199,1,95,86,1,

142,199,1,94,86,1,

142,198,1,93,89,1,

141,197,0,93,89,1,

140,195,1,93,88,1,

139,195,1,92,88,1,

138,195,1,92,88,1,

137,193,1,92,87,1,

137,193,1,91,86,1,

135,192,1,91,86,1,

135,190,1,90,86,1,

163,190,1,90,85,1,

195,189,1,89,84,1,

193,188,1,89,84,1,

192,187,1,89,83,1,

192,186,1,88,83,1,

190,185,1,88,83,1,

189,184,1,87,82,1,

188,184,1,87,82,1,

187,183,1,86,82,1,

186,182,1,86,81,1,

185,181,1,86,81,1,

184,180,1,86,81,1,

184,179,1,85,80,1,

182,179,1,85,79,1,

182,178,1,84,79,1,

180,177,1,84,78,1,

179,177,1,83,78,1,

179,176,1,83,78,1,

178,175,1,83,78,1,

177,175,1,82,78,1,

176,174,1,82,77,1,

175,173,1,82,77,1,

175,171,1,81,77,1,

174,171,1,81,76,1,

173,170,1,81,76,1,

172,169,1,80,75,1,

171,168,1,79,75,1,

170,167,1,79,74,1,

169,179,1,79,74,1,

167,177,1,79,74,1,

167,177,1,78,73,1,

167,176,1,78,73,1,

166,175,1,78,71,1,

166,174,1,78,71,1,

164,173,1,77,71,1,

164,173,1,77,71,1,

163,171,1,77,71,1,

163,171,1,88,71,1,

162,170,1,88,71,1,

161,169,1,88,70,1,

160,167,1,87,70,1,

159,167,1,86,69,1,

159,167,1,86,101,2,

158,166,1,85,140,1,

157,165,1,85,139,1,

156,164,1,84,138,1,

156,163,1,84,137,1,

155,163,1,83,135,1,

165,161,1,83,135,1,

194,161,1,82,135,1,

193,160,1,83,134,1,

192,159,1,82,134,1,

190,159,1,81,132,1,

189,158,1,81,131,1,

188,158,1,80,131,1,

187,157,1,80,130,1,

186,156,1,79,130,1,

185,156,1,86,129,1,

184,155,1,92,128,1,

184,154,1,103,127,1,

183,153,1,102,127,1,

181,152,1,102,151,1,

180,152,1,102,150,1,

179,152,1,101,149,1,

178,151,1,101,147,1,

177,150,1,99,146,1,

176,149,1,99,145,1,

176,148,1,98,145,1,

174,147,1,98,144,1,

174,147,1,98,143,1,

173,146,1,97,143,1,

172,145,1,96,142,1,

171,145,1,96,141,1,

170,144,1,96,140,1,

169,143,1,95,140,1,

167,143,1,95,139,1,

167,142,1,94,138,2,

167,142,1,93,137,1,

166,141,1,93,137,1,

166,140,1,93,135,1,

164,140,1,92,135,1,

163,139,1,92,135,1,

163,139,1,91,134,1,

162,137,1,91,134,1,

161,137,1,91,133,1,

159,135,1,90,132,1,

159,135,1,89,131,1,

159,135,1,89,131,1,

158,135,1,88,130,1,

158,134,1,88,129,1,

157,133,1,88,129,1,

156,133,1,87,127,1,

169,132,1,87,127,1,

196,131,1,86,127,1,

195,131,1,86,126,1,

193,131,1,85,125,1,

193,130,1,85,125,0,

192,129,1,85,124,1,

190,129,1,84,124,1,

190,128,1,83,123,1,

189,127,1,83,123,1,

188,127,0,83,122,1,

187,126,1,82,121,1,

185,126,1,82,121,1,

184,125,1,82,120,1,

184,124,1,81,120,1,

182,124,1,81,119,1,

182,124,1,80,118,1,

181,123,1,81,118,1,

179,123,1,79,117,1,

179,122,1,79,117,1,

178,121,1,79,116,1,

177,121,1,79,115,0,

176,120,1,78,115,1,

175,120,1,77,114,0,

177,120,1,78,114,1,

199,119,1,77,113,1,

199,118,1,77,113,1,

198,118,1,76,112,0,

197,117,0,76,112,1,

195,117,1,76,111,1,

195,116,1,75,110,1,

194,115,1,75,110,1,

193,115,0,75,110,1,

192,115,1,73,109,1,

191,114,1,74,109,0,

189,114,1,73,108,1,

189,113,1,73,107,0,

188,112,1,73,107,1,

187,112,1,73,106,1,

186,111,1,71,106,1,

185,111,1,71,105,0,

184,110,0,71,105,1,

183,110,1,71,103,1,

182,109,1,71,103,1,

181,109,1,71,103,1,

179,109,1,71,103,1,

179,108,1,70,103,1,

179,108,0,70,103,1,

177,107,1,69,102,1,

176,106,1,69,101,1,

176,106,1,68,101,1,

175,105,1,68,100,1,

174,105,1,67,99,1,

173,105,1,68,99,1,

172,103,1,67,99,1,

171,103,0,67,98,1,

171,103,1,67,97,1,

169,103,1,67,97,1,

169,103,1,66,97,1,

167,102,1,66,97,1,

167,102,1,65,96,1,

167,101,1,65,95,1,

166,101,1,65,95,1,

165,101,1,65,95,1,

164,100,1,64,95,1,

163,99,1,64,94,1,

163,99,1,63,93,0,

162,99,1,63,93,1,

161,98,1,63,93,1,

160,98,1,63,93,1,

159,97,1,63,92,1,

159,97,1,62,92,1,

159,97,1,100,113,1,

158,96,1,173,115,1,

157,96,1,172,115,1,

156,96,1,170,115,1,

156,96,1,169,114,0,

155,95,0,167,113,1,

154,94,1,167,112,0,

153,94,0,167,112,1,

153,94,1,166,111,0,

153,93,1,165,110,1,

152,93,0,163,110,0,

151,92,1,163,110,0,

150,92,1,162,109,1,

150,91,1,161,108,1,

149,91,1,161,108,0,

148,90,1,159,107,1,

147,90,1,158,107,1,

147,90,0,158,106,1,

146,89,1,157,105,1,

146,89,1,156,105,1,

145,89,1,156,107,1,

144,88,1,155,106,1,

143,88,0,154,106,1,

143,88,1,153,103,1,

142,87,0,152,103,0,

142,86,1,152,103,1,

141,86,0,151,103,1,

140,86,1,150,102,0,

139,85,1,149,102,1,

139,85,1,149,102,0,

138,85,0,148,101,1,

137,85,1,147,101,0,

137,83,1,149,100,1,

135,83,1,152,99,1,

135,83,0,150,99,1,

135,83,0,150,99,1,

135,82,1,149,99,1,

134,82,0,148,99,1,

133,81,1,147,98,1,

133,81,0,147,98,1,

132,81,0,146,97,0,

131,80,1,145,97,1,

131,80,1,144,96,1,

171,79,1,143,96,1,

171,79,0,143,96,1,

169,79,1,143,95,1,

167,79,0,142,94,0,

167,78,1,142,94,0,

166,78,0,141,93,1,

166,78,1,140,93,1,

164,78,1,139,92,0,

163,77,1,139,92,1,

163,77,0,138,92,1,

162,77,1,137,91,1,

161,76,1,137,92,1,

161,76,1,137,90,0,

159,75,1,135,91,1,

159,75,1,135,90,1,

158,75,1,135,89,1,

157,75,0,134,89,1,

156,75,1,133,89,1,

156,74,1,133,88,1,

155,74,1,132,88,1,

154,73,0,131,88,1,

153,73,1,131,87,0,

153,73,1,131,86,1,

157,121,1,130,86,1,

156,120,0,144,86,1,

155,119,1,151,87,1,

154,118,1,150,86,1,

153,117,1,149,86,1,

153,117,1,147,85,1,

152,116,1,147,85,1,

152,115,1,146,85,1,

151,115,1,146,84,1,

149,115,1,145,84,1,

149,114,1,145,83,1,

148,113,1,143,83,1,

147,112,1,143,83,1,

146,112,1,142,82,0,

145,112,1,141,82,1,

145,111,0,141,81,0,

144,110,0,140,81,1,

143,110,1,140,81,1,

143,109,0,138,80,1,

143,108,1,138,80,1,

142,108,1,137,80,1,

141,108,1,135,79,1,

140,107,1,135,78,1,

146,106,1,135,79,1,

156,105,1,134,78,1,

155,105,0,134,77,1,

155,103,1,133,77,1,

153,103,1,133,77,1,

152,103,1,131,77,1,

152,103,0,131,77,1,

152,103,1,131,131,0,

150,102,1,130,130,1,

149,102,1,129,129,1,

149,101,1,129,128,1,

187,101,1,127,127,1,

203,101,1,127,127,1,

201,101,1,127,126,1,

199,100,1,126,125,1,

199,99,1,126,124,0,

197,99,1,125,124,0,

196,99,1,125,123,1,

195,98,1,124,123,1,

194,97,0,124,122,1,

193,97,0,123,121,0,

192,96,1,123,120,1,

192,96,0,155,120,1,

190,96,1,153,120,1,

189,96,1,152,119,1,

188,95,1,152,118,1,

188,94,0,150,118,1,

186,94,1,150,117,1,

185,93,0,149,116,1,

184,93,0,148,115,1,

184,92,0,147,115,1,

183,92,1,147,115,1,

181,92,1,146,114,1,

181,91,1,145,113,0,

179,90,1,144,113,1,

179,90,1,143,112,1,

178,90,1,143,112,1,

177,89,0,142,111,0,

176,89,1,141,110,1,

176,88,0,141,110,1,

175,88,1,140,110,1,

174,88,1,140,109,1,

173,88,1,139,108,1,

172,87,1,138,108,0,

171,86,0,137,108,1,

170,86,0,135,107,1,

169,85,1,135,106,1,

169,85,0,135,106,1,

167,84,0,135,105,1,

167,84,1,134,105,1,

166,83,0,134,103,1,

165,83,1,133,103,0,

164,83,1,132,103,1,

163,82,0,131,103,0,

163,82,1,131,103,1,

215,82,1,130,102,1,

219,81,1,130,101,1,

217,81,1,129,101,1,

216,80,0,129,100,0,

215,79,0,127,99,1,

214,79,1,127,99,1,

212,79,1,127,99,0,

211,79,1,126,98,1,

210,78,1,126,98,1,

209,78,1,125,97,0,

208,77,0,124,97,1,

207,78,1,124,96,1,

207,91,1,123,96,1,

206,90,0,123,96,1,

205,90,1,122,95,1,

204,89,0,122,95,1,

203,89,1,121,94,1,

202,88,1,121,94,1,

201,88,0,120,93,1,

199,88,0,120,93,1,

199,88,1,119,92,1,

198,86,1,119,92,1,

197,86,1,118,92,1,

196,86,1,117,91,1,

195,85,1,117,91,1,

195,85,1,116,91,1,

193,84,1,115,90,1,

193,84,1,116,89,0,

192,83,0,115,89,1,

191,83,1,115,89,1,

190,83,0,114,89,1,

189,82,1,113,88,0,

188,81,1,113,88,1,

187,81,1,123,87,1,

186,81,1,202,87,1,

185,81,1,227,116,1,

185,80,1,225,222,1,

184,79,1,223,235,1,

183,79,1,222,231,1,

182,79,1,221,230,1,

181,79,0,220,229,1,

179,78,1,218,227,1,

179,78,1,217,227,1,

179,77,1,216,225,1,

178,77,1,215,224,1,

176,77,1,214,223,0,

176,77,1,212,222,1,

175,76,1,211,243,1,

215,123,1,210,347,1,

229,149,1,209,435,1,

227,148,1,207,430,1,

226,147,1,207,427,1,

225,146,1,206,423,1,

223,145,1,205,420,1,

221,144,1,204,417,1,

220,143,1,203,415,1,

219,143,1,201,412,1,

218,149,1,199,408,1,

217,148,1,199,406,1,

215,147,1,198,403,1,

214,146,1,198,400,1,

213,146,1,197,398,1,

211,145,1,195,395,1,

210,143,1,194,393,0,

209,143,1,193,391,1,

207,143,1,192,387,1,

207,142,1,192,385,1,

206,141,1,191,384,1,

205,140,1,190,381,1,

204,139,1,189,378,1,

203,139,1,188,376,1,

201,138,1,187,374,1,

200,137,1,186,371,1,

199,135,1,185,369,1,

199,135,1,184,367,1,

198,135,1,184,365,1,

197,135,1,182,363,1,

195,134,1,181,361,1,

195,133,1,181,359,1,

194,132,1,179,356,1,

193,131,1,179,354,2,

192,131,1,178,352,1,

191,130,1,177,351,1,

190,130,1,176,348,2,

189,129,1,175,346,1,

188,127,2,175,345,2,

187,127,2,174,343,2,

185,127,2,173,340,2,

185,126,2,172,339,2,

184,125,2,171,337,2,

183,125,2,170,335,2,

183,124,2,169,333,2,

181,124,2,169,331,2,

180,123,2,167,329,2,

179,122,2,167,327,2,

179,121,2,166,326,3,

178,121,2,165,324,2,

177,120,3,165,322,2,

176,120,2,163,319,2,

175,119,2,163,319,2,

174,119,2,162,317,3,

173,118,3,161,315,3,

172,117,3,161,314,3,

172,117,3,160,312,3,

171,116,3,159,310,3,

169,115,3,159,308,3,

169,115,3,157,307,3,

167,114,3,157,305,3,

167,113,3,156,304,3,

167,113,3,156,302,3,

166,112,3,210,301,3,

164,112,3,226,299,2,

163,111,3,224,297,3,

163,111,3,223,295,3,

163,110,3,222,295,3,

162,109,3,221,293,3,

161,109,3,219,291,3,

159,109,3,217,290,3,

159,108,3,216,287,3,

158,108,3,216,287,3,

158,107,3,215,285,3,

157,107,3,213,284,3,

156,106,3,211,282,3,

156,105,3,211,281,3,

155,105,3,209,280,3,

154,103,3,207,278,3,

153,103,3,207,277,3,

152,103,3,206,275,3,

152,102,3,205,273,3,

151,102,3,204,272,3,

150,102,3,203,271,3,

149,101,3,201,270,3,

148,100,3,199,268,3,

147,99,3,199,267,3,

147,99,3,199,266,3,

146,99,3,198,263,3,

145,99,3,197,263,3,

145,98,3,196,262,3,

144,97,3,195,260,3,

143,97,3,194,259,3,

143,96,3,193,282,3,

142,96,3,192,294,3,

142,96,3,191,292,3,

141,95,3,190,290,3,

140,95,3,189,288,3,

140,94,3,188,287,3,

139,94,2,187,285,3,

139,94,2,187,284,3,

138,92,3,185,282,3,

137,92,3,185,281,3,

136,92,3,184,280,3,

135,92,2,184,277,2,

135,91,2,182,275,3,

135,91,3,181,275,3,

134,91,3,180,273,2,

134,89,3,179,271,2,

133,89,2,179,270,2,

133,89,2,178,269,2,

131,89,3,177,267,3,

131,88,2,176,265,3,

130,88,2,175,263,3,

130,88,3,175,263,3,

129,87,3,174,262,3,

129,87,2,173,260,2,

128,86,2,172,259,2,

127,86,2,172,258,2,

127,85,3,171,255,2,

127,85,2,169,255,2,

126,85,3,169,254,2,

126,84,2,167,252,2,

125,83,2,167,251,2,

125,83,3,167,250,2,

124,83,2,167,249,2,

123,82,2,165,248,2,

123,82,2,165,248,2,

122,82,2,163,246,3,

121,81,2,163,245,3,

121,81,2,162,243,2,

163,95,2,161,242,2,

163,95,2,161,241,2,

161,94,2,159,240,2,

160,94,3,159,239,2,

159,93,2,158,238,2,

158,92,2,158,236,2,

158,92,2,157,236,3,

157,91,2,157,235,2,

156,91,2,156,233,2,

156,90,2,155,231,2,

155,89,2,154,231,2,

153,89,2,153,230,2,

153,89,2,153,229,2,

152,88,2,152,228,2,

152,88,2,152,227,2,

150,87,2,151,226,2,

149,87,2,150,225,2,

149,86,1,150,224,2,

148,86,1,148,223,2,

147,85,1,148,222,2,

147,85,2,147,221,2,

146,85,2,147,220,2,

145,84,2,146,219,2,

144,83,2,145,218,2,

143,83,2,145,217,1,

143,83,2,144,216,2,

142,83,2,143,216,2,

141,82,2,143,214,2,

141,82,2,142,214,2,

140,81,2,142,212,2,

140,80,1,141,211,2,

139,79,1,140,210,2,

138,79,2,140,209,2,

137,79,1,139,209,2,

135,79,2,139,207,1,

135,79,2,138,207,2,

135,78,2,137,206,1,

135,78,2,137,205,2,

134,78,2,136,204,2,

133,77,1,135,204,2,

133,77,2,135,203,1,

132,76,2,135,201,1,

131,76,1,134,199,1,

131,76,2,133,199,1,

130,76,2,132,199,1,

129,75,1,132,199,2,

129,75,2,131,197,1,

128,74,2,131,196,2,

127,74,1,130,195,1,

127,73,1,130,194,2,

126,73,1,129,193,1,

126,73,2,129,193,1,

125,73,2,127,192,1,

125,71,1,127,192,1,

124,71,1,127,191,2,

124,71,1,126,190,2,

123,71,1,126,189,1,

122,71,1,126,188,1,

121,71,1,125,187,1,

121,70,2,125,187,2,

121,70,1,124,185,1,

120,70,1,123,185,1,

120,70,1,123,184,1,

119,69,1,123,183,1,

119,69,1,121,182,1,

118,68,1,121,182,1,

118,68,1,121,181,2,

117,68,1,120,179,1,

116,67,1,120,179,1,

115,67,1,119,179,1,

115,67,1,119,178,1,

115,66,1,118,177,1,

114,66,1,117,176,1,

114,66,1,117,175,2,

113,66,1,117,175,1,

112,65,2,116,174,1,

112,65,1,115,173,1,

111,65,1,115,172,1,

111,64,1,114,172,1,

171,63,1,114,171,1,

170,65,1,113,170,1,

169,65,1,113,169,1,

167,64,1,112,169,1,

167,64,1,112,167,1,

166,63,1,112,167,1,

165,63,1,111,167,1,

164,63,1,111,166,1,

163,63,1,110,165,1,

162,63,1,110,164,1,

161,62,1,109,164,1,

161,62,1,109,163,1,

159,61,1,108,163,1,

159,61,2,108,162,1,

158,61,1,108,161,2,

157,61,1,107,160,1,

157,60,1,107,159,1,

156,60,1,106,159,1,

155,60,1,105,158,1,

155,60,1,105,158,1,

153,59,1,105,157,1,

153,59,1,103,157,1,

152,59,1,103,156,1,

151,58,1,103,155,1,

150,58,1,103,155,1,

150,58,1,102,153,1,

148,57,1,102,153,1,

147,57,1,101,152,1,

147,57,1,101,152,1,

147,57,1,101,152,1,

146,57,1,100,151,1,

145,57,1,99,150,1,

144,56,1,99,149,1,

143,56,1,99,149,1,

143,56,1,98,148,1,

142,56,1,98,147,1,

142,55,1,97,147,1,

141,55,1,97,146,1,

140,54,1,97,146,1,

140,54,1,97,145,1,

139,54,1,96,144,1,

138,54,1,96,144,1,

137,54,1,96,143,1,

137,53,1,95,143,1,

135,53,1,94,142,1,

135,53,1,94,142,1,

135,53,1,94,141,1,

134,53,1,93,140,1,

134,52,1,93,140,1,

133,52,1,92,140,1,

133,52,1,92,139,0,

132,51,1,92,138,1,

131,51,1,92,138,0,

131,51,1,92,137,1,

130,51,1,91,137,1,

130,50,1,91,135,1,

129,50,1,90,135,1,

129,50,1,89,135,1,

127,50,1,89,135,1,

127,50,1,89,134,1,

126,50,1,89,134,1,

126,49,1,88,133,1,

125,49,1,88,132,1,

125,49,1,88,131,1,

124,48,1,88,131,0,

124,48,1,87,131,1,

123,48,1,87,130,1,

123,48,1,86,130,1,

122,48,1,86,129,1,

122,47,1,85,129,1,

121,47,1,85,128,1,

120,47,1,84,127,1,

120,47,1,84,127,0,

120,47,1,83,127,1,

119,46,1,84,126,0,

118,46,1,83,126,1,

118,46,1,83,126,0,

117,45,1,82,125,1,

117,45,1,82,124,1,

115,45,1,82,125,1,

115,45,1,82,124,1,

115,45,1,82,124,1,

115,45,1,81,123,1,

114,44,1,81,123,1,

113,44,1,80,122,1,

113,44,1,79,121,1,

112,44,0,80,121,1,

112,44,1,79,120,1,

112,44,1,79,120,1,

112,43,1,79,120,1,

111,43,1,79,120,1,

110,43,1,78,119,1,

110,43,1,78,118,1,

109,43,1,78,118,0,

109,43,1,78,118,1,

108,43,1,77,117,1,

108,42,1,77,116,1,

107,42,1,76,116,1,

107,42,1,76,115,1,

106,42,1,76,115,0,

106,42,1,76,115,1,

105,41,1,75,114,1,

107,45,1,75,114,1,

110,53,1,74,113,1,

109,51,1,74,113,1,

109,51,0,74,113,1,

108,51,1,73,112,1,

108,51,1,73,112,1,

107,51,1,73,111,0,

106,50,1,73,111,1,

106,50,1,73,110,1,

105,49,1,71,109,0,

105,49,0,71,110,1,

105,49,1,71,110,1,

103,49,1,71,109,0,

103,49,1,71,109,0,

103,48,1,71,108,0,

103,48,0,70,108,1,

102,48,1,70,108,1,

102,48,1,70,107,1,

101,47,1,69,107,1,

101,47,1,69,107,1,

100,47,1,69,106,1,

99,47,0,68,105,1,

99,46,1,69,105,1,

99,46,1,68,105,1,

99,46,1,68,105,1,

101,55,1,67,103,1,

101,54,1,67,103,0,

101,54,1,67,103,1,

100,54,1,67,103,1,

99,53,1,67,102,1,

99,53,1,66,102,1,

99,52,1,66,101,1,

98,53,1,66,101,1,

98,51,1,66,101,0,

98,51,1,107,112,1,

97,51,1,159,112,1,

97,51,1,158,112,1,

137,51,1,156,111,1,

136,51,1,156,110,0,

135,51,1,155,109,1,

135,52,1,153,109,1,

134,52,1,152,108,0,

133,51,1,152,108,1,

133,51,0,151,107,1,

131,51,1,150,107,1,

131,50,1,149,106,1,

130,51,1,149,105,1,

130,50,1,148,105,1,

129,50,1,147,105,0,

128,49,1,147,103,1,

127,53,1,146,103,1,

127,52,1,145,103,1,

126,52,1,144,102,1,

126,51,0,143,103,1,

125,52,1,143,101,1,

124,51,1,142,101,1,

124,51,1,141,100,1,

123,51,1,141,100,0,

122,51,1,140,99,1,

122,50,0,140,155,0,

121,50,1,139,153,1,

121,50,1,138,153,1,

120,50,1,137,152,1,

120,50,1,137,151,1,

119,49,0,135,150,1,

119,49,1,135,149,1,

117,49,1,135,148,1,

117,48,0,134,147,1,

116,48,1,133,146,1,

115,48,0,133,163,1,

115,48,1,163,226,1,

115,48,1,163,229,1,

114,48,1,161,228,1,

113,48,1,159,226,1,

113,47,1,159,225,1,

112,46,1,158,223,1,

112,46,1,157,222,1,

111,46,1,157,221,1,

111,46,1,156,220,1,

110,46,1,155,218,1,

110,45,1,154,217,1,

110,45,1,153,216,1,

109,45,0,152,215,1,

109,45,1,152,214,1,

108,44,0,152,213,1,

107,44,1,150,211,1,

107,44,1,150,211,1,

106,44,1,148,209,1,

105,43,0,148,207,1,

105,44,1,147,207,1,

103,43,0,147,207,1,

103,43,1,145,205,1,

118,45,1,145,204,1,

125,45,1,144,203,1,

124,45,1,143,203,1,

124,44,1,143,201,1,

123,44,1,142,199,0,

122,44,1,142,199,1,

121,44,1,141,198,1,

121,44,1,140,197,1,

120,43,0,140,195,0,

120,43,0,139,195,0,

119,43,1,138,194,1,

119,43,1,138,193,1,

118,42,1,137,193,1,

117,42,1,137,191,1,

117,42,1,135,190,0,

116,42,1,135,190,1,

116,41,1,134,188,1,

115,41,1,134,188,1,

115,41,1,133,186,1,

114,41,1,132,185,0,

114,39,1,131,184,1,

113,39,1,131,184,1,

112,40,1,131,183,1,

159,53,1,130,182,1,

159,68,1,130,182,1,

158,67,1,129,180,1,

157,67,1,128,179,1,

156,67,0,127,179,1,

155,66,1,127,177,1,

154,66,1,126,177,0,

153,65,0,126,176,1,

153,66,1,125,175,1,

152,65,1,125,174,1,

151,64,1,124,173,1,

150,64,1,124,173,1,

150,63,1,123,172,1,

148,66,1,123,171,1,

148,65,1,122,170,1,

147,65,1,121,169,1,

146,65,1,120,167,1,

145,63,1,120,167,1,

145,63,1,120,167,1,

143,63,1,119,166,1,

143,63,1,118,166,1,

142,63,1,118,164,1,

142,63,1,117,163,1,

141,63,1,117,163,0,

140,62,1,117,163,1,

140,62,1,115,161,0,

139,61,1,115,161,1,

138,61,1,115,159,1,

138,60,0,114,159,1,

137,60,1,113,158,1,

135,60,1,113,158,1,

135,60,1,112,157,1,

135,59,1,112,156,1,

134,59,1,111,156,0,

134,58,1,111,155,1,

133,59,1,111,154,0,

133,57,1,110,153,1,

131,57,1,110,153,1,

131,57,1,109,152,1,

130,57,1,109,151,1,

130,57,0,108,151,1,

129,56,1,108,150,1,

129,56,1,107,149,1,

127,56,1,107,149,1,

127,55,0,106,147,0,

126,56,1,105,147,1,

126,55,1,105,147,1,

125,55,0,103,146,1,

125,54,1,103,145,1,

124,54,1,103,144,1,

123,54,1,103,143,1,

123,53,1,103,143,0,

122,53,1,103,142,1,

121,53,1,102,142,1,

121,52,1,101,141,1,

120,96,1,101,140,0,

120,94,0,101,140,1,

119,93,0,100,140,0,

119,93,0,99,139,1,

118,92,1,99,138,1,

118,92,1,99,137,1,

117,91,1,98,137,0,

116,91,0,97,136,1,

115,90,0,97,135,1,

115,90,1,97,135,0,

115,89,1,97,134,1,

114,89,1,96,134,1,

114,88,1,96,133,1,

113,88,1,96,133,1,

113,88,0,95,132,1,

112,87,1,94,131,1,

112,86,1,94,131,1,

112,86,1,94,131,1,

111,86,1,93,130,0,

110,85,1,93,129,1,

110,85,1,93,129,1,

109,84,0,92,128,1,

109,83,1,92,127,0,

109,83,1,91,127,1,

108,83,1,91,127,1,

108,83,1,90,126,1,

107,82,1,90,125,0,

107,81,0,89,125,1,

106,81,1,89,125,1,

106,80,1,89,124,1,

105,80,1,88,124,1,

103,79,0,88,123,1,

103,79,1,88,122,0,

103,79,1,88,121,1,

103,79,0,88,121,1,

103,78,1,87,121,1,

102,78,1,86,120,0,

103,78,1,86,120,0,

103,77,1,85,119,1,

103,77,1,85,119,0,

103,77,1,84,118,0,

102,76,1,84,118,0,

101,76,0,84,117,1,

101,76,0,83,117,1,

101,75,0,83,116,1,

100,75,1,83,115,1,

99,74,0,83,115,1,

99,73,1,82,114,1,

100,73,1,82,115,1,

100,73,1,82,115,1,

99,73,1,82,166,1,

99,72,0,83,163,1,

99,71,1,83,163,1,

98,71,1,83,162,1,

97,71,1,83,161,1,

97,71,1,83,160,0,

97,71,1,82,159,1,

97,70,1,82,159,1,

96,70,1,81,158,1,

96,70,1,81,157,1,

96,69,1,80,156,1,

95,69,0,80,156,1,

94,69,0,79,155,1,

94,69,1,79,154,1,

94,68,1,79,153,1,

93,68,1,79,153,1,

93,67,1,78,152,1,

92,67,0,78,152,0,

92,67,0,78,151,1,

92,66,0,77,150,0,

92,66,1,77,149,1,

91,66,0,77,149,1,

99,71,1,77,147,1,

99,81,1,76,147,0,

98,80,1,81,146,0,

98,79,1,81,146,0,

97,79,1,81,145,1,

97,79,0,79,145,1,

96,79,1,79,143,1,

96,78,1,79,143,1,

96,78,1,78,143,0,

95,77,1,79,142,1,

95,77,1,78,141,0,

94,77,1,78,141,1,

94,76,0,77,140,0,

94,76,1,77,140,1,

93,76,1,77,139,1,

92,75,1,77,138,0,

92,75,0,76,137,1,

92,74,0,75,137,1,

92,74,1,75,135,1,

91,74,1,75,135,0,

90,73,1,75,135,1,

90,73,1,74,135,1,

90,73,0,74,134,0,

89,71,1,74,134,1,

89,72,1,73,132,1,

89,71,1,73,132,1,

88,71,0,73,131,1,

88,71,0,72,131,1,

88,70,0,71,130,1,

88,70,0,71,130,1,

87,69,1,71,129,1,

87,70,1,71,128,0,

86,69,1,71,128,1,

86,69,1,71,127,1,

86,68,0,71,127,1,

85,68,1,70,126,1,

85,68,0,70,126,0,

85,67,0,69,125,1,

84,67,1,70,125,1,

84,67,1,69,124,1,

83,66,1,69,124,1,

83,66,1,68,123,1,

83,66,1,68,122,1,

83,65,0,68,122,1,

82,65,1,67,121,1,

82,65,1,67,121,1,

81,65,1,67,121,1,

81,64,0,67,120,1,

81,63,1,66,120,1,

81,63,0,66,120,0,

80,63,1,66,119,1,

80,63,1,66,118,1,

79,63,1,66,118,1,

79,63,1,65,117,0,

79,62,1,65,116,1,

78,62,1,65,115,1,

78,61,1,65,115,1,

78,61,1,64,115,1,

78,61,1,63,114,1,

77,61,1,63,114,1,

77,60,0,63,114,1,

77,60,0,63,113,1,

77,60,1,63,112,0,

76,60,1,63,112,1,

76,59,1,63,112,0,

76,59,1,63,112,1,

75,59,1,63,111,1,

75,59,0,62,110,1,

75,58,0,62,110,1,

74,58,1,62,110,1,

74,58,0,61,109,0,

73,57,1,61,109,1,

73,57,1,61,108,1,

73,57,1,61,108,0,

73,57,1,62,107,0,

71,56,1,62,107,1,

71,56,0,61,107,1,

72,56,1,61,106,1,

71,56,1,61,105,1,

71,55,1,60,105,1,

71,56,1,60,103,0,

70,55,1,60,103,1,

71,55,1,60,103,1,

70,55,1,59,103,1,

70,54,1,59,103,0,

69,54,1,59,103,1,

70,53,1,59,102,1,

69,53,1,58,102,1,

68,53,1,58,102,1,

69,53,1,57,101,0,

68,52,0,58,101,1,

67,52,0,57,100,0,

67,52,1,57,99,0,

67,51,1,57,99,0,

67,51,1,57,99,1,

67,51,1,56,99,1,

66,51,1,57,98,0,

66,51,1,56,98,1,

66,51,1,56,97,1,

65,50,0,56,97,1,

65,50,1,56,97,1,

65,50,1,56,96,1,

65,50,1,56,96,1,

65,50,1,55,96,0,

64,49,1,55,96,1,

64,49,0,55,95,0,

63,49,1,54,94,1,

63,48,1,54,94,1,

63,49,1,55,94,0,

63,48,1,55,94,1,

63,48,1,55,93,0,

63,48,0,54,93,0,

62,47,1,54,93,1,

62,47,1,54,93,0,

62,47,1,53,93,1,

62,46,1,53,91,1,

62,47,1,53,92,1,

61,47,0,53,92,1,

61,47,1,53,91,1,

61,46,1,52,90,1,

60,46,1,51,90,0,

60,46,1,51,90,1,

60,46,0,51,89,0,

60,45,1,51,89,1,

60,45,1,51,89,1,

60,45,1,85,90,1,

60,45,1,151,120,1,

59,45,1,149,120,1,

59,45,1,147,119,0,

58,44,1,147,118,0,

59,44,1,146,117,1,

58,44,1,145,117,1,

58,43,1,144,116,1,

57,43,1,143,115,0,

57,43,1,143,115,1,

57,43,1,142,114,0,

57,42,1,141,114,1,

56,42,0,141,113,0,

56,42,1,140,113,1,

56,42,1,140,112,0,

56,42,1,138,112,1,

55,41,1,138,111,1,

56,41,1,137,110,0,

55,41,1,137,110,0,

55,41,1,135,109,1,

55,41,0,135,109,1,

54,39,1,135,108,0,

54,39,0,134,108,1,

54,39,1,133,107,0,

59,39,1,132,107,0,

60,39,1,132,106,0,

59,39,1,131,106,1,

59,39,1,131,105,1,

58,39,1,130,105,0,

58,39,1,130,103,1,

57,39,1,129,103,0,

57,38,1,128,103,1,

57,38,1,127,103,0,

57,38,1,127,102,1,

56,38,1,127,102,1,

56,38,1,126,101,1,

56,38,1,132,101,1,

56,37,1,153,118,1,

56,39,1,153,116,1,

56,40,0,152,116,0,

55,39,1,152,115,1,

54,39,1,151,115,1,

54,39,1,149,114,1,

54,39,1,149,113,1,

53,39,1,148,113,1,

53,39,1,147,112,1,

53,38,1,147,112,1,

53,39,1,146,111,1,

54,38,1,145,111,1,

58,39,1,144,110,1,

57,39,1,143,109,1,

57,39,1,143,109,1,

57,39,1,142,109,1,

56,39,1,142,108,0,

56,38,1,141,108,1,

56,38,1,141,107,1,

56,38,1,140,107,1,

56,38,0,139,105,1,

55,38,0,139,105,1,

55,38,1,138,105,1,

54,37,1,137,103,0,

54,38,1,136,103,1,

54,38,1,135,103,0,

54,38,0,135,103,1,

54,37,1,135,102,0,

53,37,0,134,102,1,

53,37,0,133,101,1,

52,37,1,133,101,1,

53,37,1,132,100,1,

52,36,0,131,100,1,

52,36,0,131,99,1,

52,35,1,130,99,0,

51,36,0,130,99,0,

51,35,1,129,98,0,

51,35,1,129,97,1,

51,35,1,127,97,1,

51,35,1,127,97,0,

51,35,1,127,96,0,

50,35,1,126,96,0,

50,34,1,126,95,1,

50,34,1,125,95,1,

50,34,0,125,95,1,

50,34,1,124,94,1,

49,33,1,124,94,1,

49,34,1,123,93,1,

49,33,1,123,93,0,

49,33,0,122,93,1,

48,33,1,121,92,1,

48,33,1,121,92,0,

48,33,1,121,92,1,

48,33,1,120,91,0,

48,33,1,120,91,1,

48,32,1,119,90,1,

47,31,0,119,90,1,

47,31,0,118,89,1,

47,32,1,118,89,1,

47,31,1,117,88,0,

59,31,0,117,89,0,

59,31,1,115,88,1,

58,31,1,115,88,1,

58,31,1,115,87,0,

57,31,1,115,87,1,

57,31,1,114,87,1,

57,31,0,114,87,0,

57,31,1,113,86,1,

56,31,1,112,86,1,

56,31,1,112,85,1,

56,30,1,112,85,1,

78,31,1,111,84,1,

87,41,1,111,84,1,

86,41,1,111,84,1,

86,41,1,110,83,1,

85,39,1,109,83,1,

84,39,1,109,83,1,

83,39,1,108,83,1,

