
14,19,1,57,87,1,

15,19,1,57,87,1,

15,19,1,57,87,1,

15,19,1,57,86,0,

14,18,1,57,86,0,

14,18,1,57,86,1,

14,18,1,56,85,1,

14,18,1,56,84,1,

14,18,1,56,85,0,

14,17,0,56,84,1,

14,18,1,55,83,1,

14,18,1,55,83,0,

14,17,1,55,83,0,

14,17,1,55,83,1,

14,17,1,54,82,1,

14,17,1,54,82,1,

14,17,1,54,82,1,

14,18,1,53,81,0,

14,18,1,53,81,1,

14,17,1,53,80,1,

14,18,1,53,80,1,

13,17,1,52,80,1,

13,17,1,52,79,0,

13,17,1,52,79,0,

13,17,0,51,79,1,

13,17,1,51,78,1,

13,17,1,51,78,1,

13,17,0,51,78,1,

13,17,1,51,78,1,

13,17,1,51,77,1,

13,16,1,50,77,1,

13,16,0,50,77,1,

13,17,1,50,77,0,

13,16,1,50,76,1,

12,16,0,50,76,1,

12,16,1,49,76,0,

12,16,1,49,76,1,

12,15,1,49,75,1,

12,15,1,49,75,1,

13,16,1,49,75,1,

13,16,1,48,74,1,

13,16,1,48,74,0,

13,15,1,48,73,0,

13,15,1,48,73,1,

13,16,1,48,73,1,

12,16,1,48,73,1,

12,15,0,47,71,1,

12,16,1,47,73,0,

12,16,1,47,73,1,

12,15,1,47,73,1,

12,15,1,46,73,1,

12,15,1,46,71,1,

12,15,1,46,72,1,

12,15,1,46,71,0,

12,15,1,45,71,1,

12,15,1,45,71,1,

12,15,1,45,71,1,

12,17,1,45,71,0,

12,19,1,45,71,0,

12,19,1,44,70,1,

12,19,0,44,70,0,

12,19,1,44,69,1,

12,19,1,44,69,1,

11,19,1,44,69,1,

11,19,1,44,68,1,

12,18,0,44,68,0,

14,18,1,43,68,1,

14,18,1,43,67,0,

14,18,1,43,67,1,

14,18,1,43,67,1,

14,18,1,43,67,0,

13,18,1,42,66,1,

14,18,1,42,66,1,

14,18,1,41,66,1,

14,17,1,42,71,1,

14,17,1,41,70,1,

13,17,1,41,70,1,

13,17,1,41,70,1,

13,17,1,41,69,1,

14,17,0,41,69,1,

13,17,1,41,69,0,

14,17,0,39,68,2,

13,16,1,39,68,1,

13,16,0,39,68,1,

13,16,1,39,67,1,

13,17,1,39,67,1,

13,16,1,39,75,1,

13,16,1,39,74,1,

13,16,1,39,74,1,

13,15,0,39,73,1,

13,16,1,39,73,1,

13,15,1,39,73,1,

13,16,1,38,71,1,

39,16,0,39,71,1,

39,16,1,38,71,1,

39,16,1,38,71,1,

39,15,1,38,71,1,

39,15,1,38,71,0,

39,15,1,37,71,1,

39,15,1,38,79,1,

38,15,1,37,79,1,

39,15,1,37,79,1,

38,15,1,37,78,1,

38,15,1,36,78,0,

38,14,0,37,77,1,

38,15,1,36,77,1,

37,14,1,36,77,1,

37,14,0,36,76,1,

37,14,1,35,76,1,

37,14,1,35,76,1,

36,14,0,35,76,1,

36,14,1,35,75,0,

36,14,1,35,75,1,

36,14,0,35,75,1,

35,14,1,35,74,1,

35,14,1,34,74,1,

35,14,1,34,73,1,

35,14,1,34,73,1,

35,14,1,34,73,1,

35,14,1,34,72,1,

35,13,1,34,71,0,

35,13,0,34,71,1,

34,14,1,33,71,1,

34,13,1,33,71,1,

34,13,1,33,71,1,

33,13,0,33,76,1,

34,13,1,32,75,1,

33,13,1,33,75,1,

34,13,0,33,74,1,

33,13,1,33,74,1,

33,13,1,32,74,0,

33,13,1,32,73,0,

33,12,0,32,73,1,

32,13,1,31,73,1,

32,12,1,31,72,1,

31,12,0,31,71,1,

31,12,1,31,71,1,

31,13,1,31,71,1,

31,12,1,31,71,1,

31,12,1,31,71,1,

31,12,1,31,71,1,

31,12,1,30,70,1,

31,12,1,31,70,0,

31,12,1,31,69,0,

31,12,1,54,69,1,

30,12,1,53,69,1,

31,12,1,53,69,1,

30,12,1,52,68,0,

30,12,1,52,68,0,

30,12,1,52,67,1,

30,12,1,52,67,1,

30,11,1,51,67,1,

30,11,1,51,67,1,

29,11,1,51,67,0,

29,11,1,51,66,0,

29,11,1,51,66,0,

28,11,1,50,66,0,

29,11,0,50,65,1,

28,11,1,50,65,1,

28,11,1,49,65,1,

28,11,1,49,65,1,

28,11,1,49,64,1,

28,11,1,48,63,0,

28,11,0,49,63,1,

28,13,1,48,63,1,

27,13,0,48,63,0,

27,13,1,48,63,0,

27,13,0,48,63,1,

27,13,1,47,62,1,

27,13,1,47,62,0,

27,13,0,47,62,1,

27,12,1,47,62,0,

26,12,0,47,61,1,

26,13,1,56,61,1,

27,13,1,82,61,1,

26,13,1,82,60,0,

26,12,0,81,60,1,

25,12,1,81,60,1,

26,13,0,81,60,1,

25,12,1,80,60,1,

25,12,1,79,59,1,

25,12,0,79,59,1,

25,12,1,79,59,1,

25,12,1,79,58,1,

25,12,0,78,59,0,

24,12,1,78,58,1,

25,13,1,77,58,1,

25,13,1,77,58,1,

25,15,0,77,57,1,

25,15,1,76,57,1,

24,15,1,76,60,0,

24,14,1,76,61,1,

24,15,1,75,60,1,

24,14,1,75,60,1,

24,14,0,75,60,1,

24,14,1,75,60,1,

24,14,1,74,59,1,

24,14,1,74,59,1,

24,14,1,73,59,1,

24,14,1,73,59,1,

24,14,1,73,58,1,

24,14,1,71,58,1,

23,21,1,71,58,0,

23,21,0,71,57,1,

23,20,1,71,57,1,

23,20,1,71,57,1,

23,21,0,71,57,1,

23,19,1,71,57,1,

22,20,1,70,56,1,

22,20,1,70,56,1,

22,19,1,69,56,1,

23,19,1,69,56,1,

22,19,1,69,56,1,

22,19,1,69,56,1,

22,19,0,68,55,1,

22,19,1,68,55,1,

21,19,1,67,62,1,

22,19,1,67,66,1,

22,18,1,67,66,1,

21,19,1,67,66,1,

21,18,1,67,66,1,

21,19,1,66,65,1,

22,18,1,66,65,1,

22,18,1,66,65,1,

22,18,1,65,64,1,

22,18,1,65,63,1,

22,34,1,65,63,1,

22,34,1,65,63,1,

22,37,1,64,63,0,

22,37,1,63,63,1,

21,37,0,63,63,1,

21,36,1,63,62,1,

21,36,1,63,62,1,

21,36,1,63,62,0,

21,36,1,63,62,0,

35,35,1,62,61,1,

51,35,1,62,61,1,

50,35,1,62,61,1,

50,35,1,62,60,1,

50,35,1,61,60,1,

50,35,1,61,60,1,

49,35,1,61,60,1,

49,34,1,60,60,1,

49,34,1,60,59,1,

48,34,1,60,59,1,

48,34,1,60,59,1,

48,34,1,60,58,1,

48,34,1,59,58,1,

48,33,1,59,58,1,

47,33,1,59,57,1,

47,33,0,59,57,1,

47,33,1,58,57,1,

47,33,1,58,56,0,

46,32,0,57,57,1,

46,33,1,57,57,1,

46,32,1,57,71,1,

46,31,1,57,79,0,

45,31,1,57,78,1,

45,31,1,57,78,1,

45,31,1,56,77,0,

44,31,1,56,77,1,

45,31,1,56,77,1,

44,31,0,56,76,1,

44,31,1,56,76,1,

44,31,1,55,76,0,

44,31,1,55,75,1,

43,30,1,55,75,1,

43,30,0,55,75,1,

43,30,1,55,74,1,

43,30,1,54,73,1,

43,30,1,54,73,0,

43,29,1,53,73,0,

43,29,0,53,73,1,

42,29,1,53,71,1,

42,29,0,53,71,1,

42,29,0,52,71,1,

41,29,0,52,71,1,

41,29,1,52,71,1,

41,28,1,52,71,1,

41,29,0,51,71,1,

41,28,1,51,70,1,

41,29,1,51,70,1,

40,31,1,51,70,1,

39,31,1,51,69,1,

39,31,1,51,69,1,

39,31,1,50,69,1,

39,31,1,51,68,1,

39,30,1,50,68,1,

39,30,1,50,67,0,

39,30,1,49,67,1,

39,30,1,49,67,0,

39,30,1,49,67,1,

39,30,1,49,67,1,

38,30,1,49,66,1,

38,29,0,48,66,1,

38,29,1,48,66,1,

38,29,1,48,65,1,

38,29,1,48,65,1,

37,29,0,48,65,1,

37,29,1,48,64,1,

37,28,1,47,63,1,

37,28,0,47,63,1,

36,28,1,47,63,0,

36,28,1,46,63,1,

36,28,1,46,63,1,

35,27,1,46,63,1,

36,28,1,46,62,1,

36,28,1,46,63,1,

35,27,0,63,137,1,

36,27,0,63,135,1,

35,27,1,62,135,0,

35,27,1,62,134,0,

35,27,0,61,133,1,

35,26,1,61,132,1,

35,26,1,61,131,1,

34,26,0,60,131,1,

34,26,1,60,130,1,

34,25,1,60,129,1,

34,25,0,60,129,1,

34,26,1,59,128,1,

34,25,1,59,127,1,

33,25,0,58,127,1,

33,25,1,58,126,1,

33,25,0,58,125,1,

33,25,1,57,125,1,

33,25,0,57,125,1,

32,25,1,57,124,1,

32,24,1,57,124,1,

32,24,0,56,123,1,

31,24,0,56,122,1,

31,24,0,56,122,1,

31,24,1,56,121,1,

31,35,0,56,121,1,

31,35,1,56,120,0,

31,35,1,55,120,1,

31,35,1,55,120,1,

30,35,0,54,119,1,

31,35,1,55,118,1,

31,34,1,54,118,1,

31,34,1,53,117,1,

31,34,1,53,116,0,

31,34,0,53,116,1,

31,33,0,53,115,1,

30,33,1,53,115,1,

31,34,1,52,114,1,

31,35,1,52,114,1,

30,35,1,52,113,1,

30,35,0,51,113,0,

30,34,0,51,112,1,

30,34,1,51,112,1,

31,34,1,51,112,1,

53,34,0,51,111,1,

52,34,0,50,110,1,

52,34,1,50,110,0,

51,34,1,50,109,1,

51,34,1,49,109,1,

51,33,0,50,108,1,

51,33,1,49,108,1,

50,37,1,49,107,1,

50,47,1,49,107,1,

50,46,1,49,107,0,

49,46,1,48,106,1,

49,46,0,48,105,1,

50,46,1,48,105,1,

50,45,0,48,103,1,

50,45,1,47,103,2,

49,77,1,47,103,1,

49,77,1,47,103,1,

49,76,1,46,103,1,

48,76,1,47,103,1,

49,75,1,46,102,1,

48,75,1,46,102,1,

48,74,1,46,101,0,

48,73,1,46,100,0,

47,73,0,46,100,1,

47,73,1,45,99,1,

47,73,1,45,99,1,

47,71,1,45,99,1,

46,71,1,45,98,1,

47,71,1,45,98,1,

46,71,1,56,97,1,

46,71,1,56,97,1,

46,71,1,56,97,1,

45,70,1,55,96,0,

45,70,1,55,96,1,

45,70,1,55,96,1,

45,69,1,54,96,1,

44,69,1,54,95,1,

44,69,1,54,94,1,

44,68,1,53,94,1,

44,68,1,53,94,1,

44,68,1,53,93,0,

44,67,0,52,93,1,

43,67,1,52,93,1,

43,67,1,52,93,0,

43,67,1,51,92,0,

43,79,1,51,91,1,

42,79,1,51,91,1,

42,78,1,51,91,1,

42,78,1,51,90,1,

41,77,1,50,90,1,

42,77,1,51,89,1,

41,76,1,50,89,1,

41,76,1,50,89,1,

41,76,1,50,89,1,

41,76,1,49,89,1,

41,75,0,49,88,1,

41,76,1,49,88,1,

40,76,1,49,88,1,

39,76,1,49,87,1,

39,76,1,48,86,1,

39,75,1,48,86,1,

39,75,1,48,86,1,

61,74,1,48,85,1,

63,74,1,48,85,1,

63,73,1,48,85,1,

63,73,1,48,84,1,

62,73,1,48,84,1,

62,71,1,47,83,1,

61,71,1,47,83,1,

61,71,1,46,83,1,

60,71,1,49,83,1,

61,71,1,50,82,1,

60,71,1,50,82,1,

60,71,1,49,81,1,

60,70,1,49,81,1,

59,70,1,49,81,1,

59,69,0,49,81,1,

59,69,1,49,79,1,

59,69,1,49,79,1,

58,68,1,48,79,1,

58,68,1,48,79,1,

58,68,1,48,79,1,

57,68,1,48,78,1,

57,68,1,48,78,1,

57,67,1,48,78,1,

57,67,0,47,77,1,

56,66,1,47,77,1,

56,66,0,46,77,1,

56,66,1,46,76,1,

56,66,1,46,76,0,

63,65,1,46,76,1,

63,65,1,46,76,1,

63,65,1,45,75,1,

63,65,1,45,75,1,

62,64,1,45,75,0,

62,94,0,45,74,1,

62,94,1,44,74,1,

62,92,1,44,73,1,

61,92,0,44,73,1,

61,92,1,44,73,1,

60,91,1,44,72,1,

61,91,1,44,72,1,

60,90,1,44,71,1,

60,90,1,43,71,1,

60,89,1,43,71,1,

60,89,1,43,71,1,

60,88,1,49,71,0,

59,88,1,77,71,1,

59,88,0,102,71,1,

58,87,1,101,70,1,

58,87,1,101,70,0,

58,86,1,99,70,1,

57,86,1,99,69,1,

57,86,1,99,69,0,

57,86,1,99,69,1,

56,85,1,98,69,1,

56,84,1,97,68,1,

56,84,1,97,68,0,

56,84,1,97,67,1,

56,83,1,96,67,1,

56,83,0,96,67,1,

55,82,1,95,67,1,

55,82,1,95,67,1,

54,82,1,94,67,1,

54,81,1,94,66,0,

54,81,0,94,66,1,

54,81,1,93,65,1,

54,80,1,93,65,0,

53,79,1,93,65,1,

53,79,1,92,65,0,

53,79,1,92,64,1,

53,79,1,91,63,0,

52,79,1,91,63,1,

52,78,1,90,63,1,

52,77,1,90,63,1,

51,78,1,89,63,1,

51,77,0,89,63,1,

51,77,0,89,62,1,

51,77,1,88,62,1,

51,76,1,88,62,0,

56,76,1,88,62,1,

63,76,1,88,62,1,

63,75,1,87,61,1,

63,75,1,86,61,1,

63,74,1,86,61,1,

62,74,1,86,61,0,

62,73,1,86,60,1,

62,73,1,85,60,1,

61,73,0,85,60,1,

61,72,0,84,60,0,

61,71,1,84,60,1,

61,71,1,83,59,1,

60,71,1,83,59,0,

60,71,1,83,59,1,

60,71,1,83,59,1,

59,71,1,82,58,1,

59,71,1,82,58,1,

59,70,1,81,58,1,

59,70,1,81,58,1,

59,70,0,81,57,1,

59,70,1,80,57,1,

58,69,1,80,57,1,

58,69,0,79,57,1,

58,69,1,79,56,1,

57,68,1,79,56,1,

57,67,1,79,56,0,

57,67,1,79,56,1,

57,67,1,78,56,1,

57,67,1,78,56,1,

57,67,1,77,55,1,

57,66,1,77,55,1,

57,67,0,77,54,1,

57,67,1,77,55,1,

56,67,1,76,54,1,

56,67,1,76,54,1,

56,66,1,76,53,0,

55,66,0,75,53,1,

55,66,1,75,53,1,

55,65,1,75,53,1,

55,65,1,75,53,1,

55,65,1,74,53,1,

54,64,1,74,52,1,

54,64,1,74,52,0,

54,63,0,73,51,1,

53,63,0,73,52,1,

53,63,1,73,51,1,

53,63,1,71,51,1,

53,66,1,73,51,1,

52,66,1,71,51,1,

52,66,1,71,51,1,

52,65,1,71,51,1,

51,65,1,71,50,1,

51,65,1,71,50,1,

51,64,1,71,50,1,

51,63,1,70,50,0,

51,63,1,70,49,1,

50,63,0,70,49,1,

50,63,1,69,49,1,

50,63,1,69,49,1,

50,62,0,69,49,1,

50,62,1,69,48,1,

49,62,1,68,48,1,

49,62,0,67,48,1,

49,61,1,67,48,1,

48,61,1,67,48,0,

49,61,1,67,47,1,

48,60,1,67,47,1,

48,61,1,66,47,1,

48,60,1,66,47,1,

48,60,1,66,47,1,

47,60,1,66,47,1,

47,59,1,65,47,1,

47,59,1,65,46,1,

46,59,1,65,46,1,

47,59,1,65,46,1,

47,58,1,64,46,1,

46,58,1,64,45,1,

46,58,1,63,45,1,

45,57,1,63,45,1,

45,58,1,63,45,1,

45,57,1,63,45,1,

45,57,1,63,45,1,

45,57,1,62,45,1,

44,57,1,62,44,1,

45,56,1,62,44,0,

44,66,1,62,44,1,

44,135,1,62,44,0,

43,134,0,61,44,1,

44,133,1,61,44,1,

44,132,1,60,43,1,

43,131,1,60,43,1,

43,131,1,60,43,0,

43,130,1,60,43,1,

89,129,1,60,43,1,

88,129,1,59,42,0,

88,127,1,59,42,1,

87,127,1,59,42,1,

86,126,1,59,42,1,

86,126,0,58,42,1,

85,125,1,58,41,1,

85,125,1,58,42,1,

84,124,1,57,42,1,

83,123,0,57,41,1,

83,123,1,57,41,1,

83,122,0,57,41,1,

93,122,1,57,41,0,

92,121,1,56,41,1,

91,121,0,56,39,1,

91,120,1,56,39,1,

91,120,1,56,39,0,

90,119,1,56,39,1,

90,119,1,55,39,0,

89,118,1,55,39,0,

89,117,0,54,39,1,

88,117,1,55,39,0,

88,116,1,54,39,0,

88,116,1,54,39,1,

87,115,1,54,39,1,

87,115,1,54,39,1,

86,114,1,53,39,1,

86,114,1,53,38,0,

86,113,1,52,38,1,

85,113,1,52,38,1,

84,112,1,52,38,1,

84,112,0,51,38,1,

83,111,1,51,37,0,

83,110,0,51,37,1,

83,110,1,51,37,1,

82,110,1,51,37,1,

82,109,1,51,37,1,

82,108,1,50,37,1,

81,108,1,50,37,0,

81,108,0,50,36,1,

81,108,1,50,36,1,

80,107,1,50,36,1,

79,106,1,49,36,1,

79,106,1,49,35,1,

79,105,1,49,35,0,

79,105,1,49,35,1,

78,103,1,48,35,1,

78,103,1,48,35,0,

78,103,0,48,35,1,

77,103,0,48,35,1,

77,103,1,48,35,1,

77,102,1,48,35,0,

76,101,0,47,35,1,

76,101,1,47,34,1,

76,101,1,47,34,0,

75,100,1,47,34,0,

75,100,1,46,34,1,

75,99,1,47,33,1,

75,99,1,46,33,1,

73,98,1,46,34,0,

73,98,1,45,33,0,

73,98,1,45,33,1,

73,97,1,46,33,1,

73,97,1,45,33,1,

71,96,1,45,33,0,

71,96,0,45,33,1,

71,96,0,44,33,1,

71,96,1,44,32,1,

71,95,1,44,32,0,

71,94,0,44,32,1,

70,94,0,44,32,0,

70,93,1,44,31,1,

70,93,1,44,31,1,

70,93,1,43,31,1,

69,92,1,43,31,0,

69,92,1,43,31,1,

69,92,0,43,31,1,

68,91,1,42,31,0,

67,91,1,42,31,1,

67,90,1,42,31,1,

67,90,1,42,31,1,

67,90,1,42,30,1,

67,89,1,41,31,0,

67,89,0,41,30,1,

66,89,1,41,30,1,

66,88,1,41,30,1,

66,88,0,41,30,1,

65,88,1,41,30,1,

65,87,1,41,30,1,

65,88,1,39,29,1,

65,86,1,39,29,1,

65,86,1,39,30,1,

64,86,0,39,29,1,

63,86,1,39,29,1,

63,85,1,39,29,1,

63,85,1,39,29,1,

63,85,1,39,29,1,

63,84,1,39,29,1,

62,84,1,39,29,1,

62,83,1,39,29,1,

62,83,1,39,28,1,

62,83,1,38,28,0,

62,82,1,45,28,1,

62,82,1,75,28,1,

61,82,0,83,28,1,

61,81,1,82,28,1,

61,81,0,81,28,0,

61,81,1,81,28,1,

60,81,1,81,27,1,

60,79,1,81,27,1,

60,79,1,80,28,1,

60,79,1,79,27,0,

59,79,1,79,27,1,

59,78,1,79,27,1,

59,78,1,79,27,1,

59,78,1,78,27,1,

59,78,1,78,26,1,

58,77,1,78,27,1,

57,77,1,77,26,1,

57,77,1,77,26,1,

57,77,1,77,26,0,

57,76,1,76,26,1,

57,76,0,76,26,1,

56,76,1,76,25,1,

56,75,1,76,25,1,

56,75,1,75,25,1,

56,74,0,75,25,1,

56,74,1,75,25,1,

56,73,1,74,25,1,

55,73,1,74,25,0,

55,73,1,73,25,0,

55,73,1,73,25,1,

55,72,1,73,25,1,

54,72,1,71,25,0,

54,71,1,71,25,1,

54,71,1,71,24,1,

54,71,1,71,24,1,

53,71,1,71,24,1,

53,71,1,71,25,1,

53,71,0,71,24,1,

52,70,1,70,24,0,

52,70,0,70,24,1,

51,70,1,69,24,1,

51,70,1,69,24,0,

51,69,0,69,24,0,

51,69,0,69,24,1,

51,69,1,68,24,1,

51,69,1,68,24,0,

51,68,0,67,24,1,

51,68,1,67,24,1,

50,67,1,67,23,1,

50,67,1,67,23,1,

50,67,1,67,23,1,

49,67,1,66,23,1,

49,67,0,66,23,0,

96,67,1,66,23,1,

95,67,1,66,23,1,

94,67,1,65,22,1,

93,67,1,65,22,1,

93,66,0,65,22,1,

93,66,1,64,22,0,

92,66,1,64,22,1,

92,65,0,63,22,0,

91,65,1,63,22,1,

91,65,0,63,22,1,

91,65,1,63,21,1,

89,64,1,63,21,1,

89,63,1,62,21,1,

88,63,1,62,21,1,

88,63,0,62,21,0,

88,63,1,62,22,1,

88,63,0,61,22,1,

87,62,0,61,21,1,

87,62,1,61,21,1,

86,62,1,61,21,1,

86,62,1,60,21,1,

86,62,1,60,20,1,

86,61,0,60,21,1,

85,61,1,60,21,1,

84,61,1,60,20,1,

85,61,1,59,20,0,

84,60,1,59,20,1,

84,60,0,59,20,1,

83,60,1,59,20,1,

83,60,1,58,19,1,

83,59,1,99,20,0,

83,59,1,101,19,1,

82,59,0,101,19,1,

82,59,1,100,19,1,

81,58,1,99,19,1,

81,58,1,99,19,1,

81,58,1,99,19,1,

79,57,1,98,19,1,

79,57,0,97,19,1,

79,57,1,97,19,1,

79,57,1,97,19,1,

78,57,0,96,19,1,

78,57,1,96,19,1,

78,57,1,96,18,0,

78,56,1,95,18,1,

78,56,1,94,19,1,

77,56,0,94,18,1,

77,56,1,94,18,1,

77,55,1,94,18,1,

76,55,1,93,18,1,

76,55,1,93,18,0,

76,55,0,92,18,1,

76,54,1,92,18,1,

75,54,1,91,18,1,

75,54,1,91,18,0,

74,54,1,90,18,1,

74,53,1,90,18,1,

73,53,0,90,18,1,

73,63,1,89,17,1,

72,62,1,89,18,1,

71,61,1,89,18,1,

72,61,1,88,17,1,

71,61,1,88,17,1,

120,61,1,88,17,1,

119,60,1,87,17,1,

118,88,1,87,17,0,

117,124,1,86,17,1,

116,122,1,86,17,1,

116,121,1,86,17,1,

115,121,0,85,17,1,

115,120,1,85,16,0,

114,120,1,84,16,1,

113,119,1,83,16,1,

113,118,1,83,16,1,

112,117,1,83,16,1,

111,117,1,83,16,1,

111,115,1,82,15,1,

111,115,1,82,15,1,

110,115,0,81,15,1,

110,114,1,81,15,1,

109,113,0,81,15,1,

108,113,0,80,15,0,

108,113,1,79,15,1,

107,112,1,79,16,1,

107,112,1,79,15,1,

106,111,1,79,15,0,

105,111,0,78,15,1,

105,110,1,78,15,1,

105,109,0,78,15,0,

103,109,0,77,15,1,

103,108,0,77,15,1,

103,108,0,77,15,1,

103,108,1,76,15,0,

102,107,1,76,15,1,

102,106,1,76,15,1,

101,105,1,75,14,0,

101,105,1,75,14,1,

101,103,1,75,15,0,

99,103,0,74,14,0,

99,103,1,74,14,1,

99,103,1,73,14,1,

99,103,1,73,14,0,

98,102,0,73,14,1,

98,102,1,71,14,1,

97,101,1,71,14,1,

97,101,1,71,14,1,

96,101,1,71,14,1,

96,100,1,71,14,1,

96,99,1,71,13,1,

95,99,1,71,13,1,

94,99,1,71,14,1,

94,99,1,70,14,0,

94,98,1,70,13,1,

94,97,1,70,13,1,

93,97,1,69,13,0,

93,96,1,69,13,1,

92,96,1,69,13,1,

92,96,1,68,13,1,

92,96,1,68,13,1,

91,95,1,68,13,1,

91,95,1,67,12,1,

90,94,1,67,13,1,

91,94,0,67,14,1,

90,93,1,67,13,1,

89,93,1,66,13,0,

89,93,0,66,12,0,

89,92,1,65,13,0,

88,92,1,66,12,1,

88,92,0,65,12,1,

88,91,1,65,12,1,

88,91,1,65,12,1,

87,91,1,64,12,0,

87,89,1,64,12,1,

86,89,1,64,12,0,

86,89,1,63,12,1,

85,89,0,63,12,1,

85,89,1,63,12,1,

84,88,1,63,12,0,

84,88,1,63,12,1,

83,88,1,62,12,1,

83,87,1,62,12,1,

83,86,0,62,12,1,

83,86,1,62,12,1,

83,86,1,62,11,1,

82,85,0,61,11,1,

82,85,0,61,12,1,

81,85,1,61,11,1,

81,84,1,60,11,1,

81,83,1,60,11,0,

80,83,1,60,11,1,

80,83,1,60,11,1,

79,83,1,59,11,0,

79,83,1,59,11,1,

79,82,0,59,11,1,

79,82,1,59,11,1,

79,81,1,59,11,1,

78,81,1,58,11,1,

78,81,1,58,11,1,

78,80,1,58,10,0,

77,80,0,57,11,1,

77,79,0,57,10,1,

76,79,1,57,11,0,

76,79,1,57,10,1,

76,79,1,57,11,1,

92,78,1,56,10,1,

92,78,1,56,10,1,

91,78,1,56,10,1,

90,78,1,56,10,1,

90,77,1,56,10,1,

89,77,1,56,10,1,

89,77,1,55,9,1,

89,76,1,54,10,1,

88,76,1,54,10,1,

88,76,1,54,10,1,

88,75,1,54,10,0,

88,75,1,54,9,0,

91,75,1,54,9,1,

91,74,1,54,9,1,

91,74,1,53,9,0,

90,74,1,53,9,1,

89,75,0,53,9,1,

89,75,1,53,9,0,

89,75,1,52,9,1,

89,74,1,52,9,1,

88,74,1,52,10,1,

88,73,1,52,9,1,

88,73,1,51,9,1,

87,73,1,51,9,1,

87,71,1,51,9,0,

87,71,0,51,9,1,

86,71,1,51,9,1,

87,71,1,50,9,1,

87,71,1,50,9,1,

86,71,1,51,9,1,

86,71,1,50,9,1,

86,70,1,50,9,1,

85,70,1,50,9,1,

85,70,1,49,9,0,

85,70,1,49,9,1,

84,70,0,49,9,0,

84,69,1,49,9,1,

83,69,1,48,9,1,

86,69,1,49,7,1,

86,68,1,50,7,1,

86,69,1,50,9,1,

85,67,0,50,13,1,

85,67,1,50,44,1,

85,67,1,50,44,0,

84,67,0,50,43,0,

84,67,1,49,43,1,

83,67,1,49,43,1,

83,67,1,49,43,1,

83,67,0,49,42,1,

82,67,1,49,42,0,

82,66,1,48,41,0,

81,66,1,48,41,0,

81,66,1,48,41,0,

81,65,1,48,41,1,

82,65,0,48,41,1,

82,64,1,50,39,0,

82,64,1,53,39,1,

81,77,1,52,39,1,

81,76,1,52,39,1,

81,76,1,51,39,1,

79,75,1,51,39,1,

79,75,1,51,39,1,

79,75,1,51,39,0,

79,74,1,51,39,1,

79,73,1,50,39,1,

78,73,1,50,39,1,

99,73,1,50,38,0,

129,71,1,50,38,0,

127,72,1,49,38,1,

127,71,1,49,37,1,

126,71,0,49,38,1,

126,71,1,49,37,1,

125,71,1,48,37,1,

124,71,1,48,37,1,

124,70,1,48,36,0,

124,70,1,63,37,1,

123,69,1,63,36,1,

121,69,1,63,36,1,

121,69,1,62,35,1,

121,69,0,62,35,1,

120,68,1,61,35,1,

120,68,1,62,35,0,

119,67,0,61,35,1,

119,67,1,61,35,1,

118,67,1,60,35,1,

117,67,1,60,35,1,

117,66,1,60,34,0,

116,66,0,60,34,1,

115,65,0,59,34,0,

115,66,1,59,34,1,

115,65,1,59,33,1,

114,65,0,59,34,1,

114,64,1,58,34,1,

113,64,1,58,33,1,

113,63,0,57,33,1,

112,63,1,57,33,1,

112,63,1,57,32,0,

111,63,0,57,32,1,

111,63,0,57,32,1,

110,63,1,56,31,1,

110,63,1,56,32,1,

109,63,1,56,31,1,

109,63,0,56,31,1,

108,62,1,56,31,1,

107,62,1,56,31,1,

108,62,0,55,31,1,

107,77,1,55,31,1,

106,81,1,54,31,1,

106,81,1,54,31,1,

105,81,1,54,31,1,

105,79,0,53,30,1,

104,79,1,53,31,1,

103,79,1,53,30,0,

103,79,0,53,30,1,

103,78,1,52,30,0,

103,78,1,52,30,1,

102,77,1,52,30,1,

102,78,0,51,30,0,

102,77,1,51,29,1,

101,77,1,51,29,1,

101,76,1,51,29,1,

99,76,0,51,29,1,

99,76,1,51,28,1,

99,75,1,50,28,0,

99,75,1,50,28,1,

98,75,1,50,28,1,

98,74,1,50,28,1,

97,74,1,49,28,1,

97,73,1,49,28,1,

97,73,1,49,27,1,

96,73,1,49,27,1,

96,74,1,49,28,0,

96,73,1,48,27,1,

95,73,0,48,28,1,

94,73,1,48,27,0,

94,73,0,48,27,1,

94,72,1,47,27,1,

93,71,0,48,27,1,

93,71,1,48,26,1,

93,71,0,48,27,1,

92,71,1,48,26,1,

92,71,1,48,27,0,

91,70,1,47,49,0,

91,70,1,47,48,1,

91,70,1,47,48,1,

91,70,1,46,48,0,

90,69,1,46,48,1,

89,117,1,46,47,1,

89,117,1,46,47,1,

89,116,0,46,46,1,

89,115,1,46,46,1,

88,115,1,63,46,1,

88,114,1,78,46,1,

88,114,1,77,46,1,

87,113,1,77,45,1,

87,112,1,76,45,1,

86,112,1,76,45,1,

86,111,1,75,44,1,

86,111,1,76,45,1,

85,110,1,75,44,1,

84,110,1,74,44,1,

84,109,1,74,44,1,

84,109,1,73,44,1,

83,108,1,73,43,1,

83,108,1,73,43,1,

83,107,1,73,43,1,

82,107,1,71,43,0,

82,106,1,71,42,0,

82,105,1,71,42,1,

81,105,1,71,42,1,

81,105,0,71,41,1,

81,103,1,70,41,1,

80,103,1,71,41,1,

80,103,1,70,41,0,

79,103,1,70,41,0,

79,102,1,69,41,0,

79,102,0,69,39,0,

79,101,1,69,39,1,

78,101,1,68,39,1,

95,101,1,67,49,0,

94,100,1,67,49,0,

93,99,1,67,49,1,

93,115,1,67,48,0,

92,128,1,66,48,1,

92,127,1,66,48,1,

91,127,1,66,47,1,

91,126,1,66,48,1,

90,125,1,66,47,0,

90,125,1,65,46,0,

89,125,0,65,46,1,

89,124,1,65,46,1,

89,123,1,64,46,1,

89,122,1,64,46,1,

88,121,1,63,45,1,

88,121,1,63,45,1,

88,120,0,63,45,1,

87,120,1,63,45,1,

87,120,1,63,44,1,

86,119,1,62,45,1,

85,118,0,62,44,1,

85,118,1,62,44,1,

85,117,1,62,44,1,

84,117,1,61,43,1,

84,116,1,61,44,1,

83,115,1,61,43,1,

83,115,1,60,43,1,

83,114,1,60,42,1,

82,113,1,60,42,1,

82,113,1,60,42,1,

82,113,1,59,42,1,

81,113,1,59,42,1,

81,112,1,59,41,1,

80,111,0,58,41,1,

80,111,1,58,41,0,

79,111,1,58,41,1,

79,110,1,58,41,1,

79,110,1,57,41,1,

78,109,1,57,39,1,

78,109,0,57,39,1,

78,108,1,57,39,0,

78,137,1,57,39,1,

77,135,1,56,39,0,

77,135,0,56,39,0,

77,134,1,56,39,1,

76,134,1,56,39,1,

76,133,1,55,39,1,

76,132,1,55,38,1,

75,131,1,54,38,1,

76,131,1,54,38,1,

75,131,0,54,38,0,

74,130,1,54,38,1,

74,129,1,54,38,1,

73,129,1,54,38,1,

73,127,0,53,37,0,

73,127,1,52,37,1,

73,127,0,53,37,0,

71,126,1,53,37,1,

71,125,1,52,36,1,

71,125,0,52,35,1,

71,124,1,52,36,1,

71,124,1,51,35,0,

71,123,1,51,35,1,

92,123,1,51,35,1,

108,122,1,51,35,1,

107,121,1,50,35,1,

106,121,1,51,34,1,

105,120,1,50,35,1,

104,120,1,50,34,1,

103,120,1,49,34,1,

103,119,1,50,34,1,

103,118,1,49,34,1,

103,117,1,49,33,1,

102,117,1,49,33,1,

103,116,1,49,33,0,

103,115,0,48,33,1,

103,115,1,48,33,0,

103,115,1,48,33,0,

102,114,1,48,33,1,

102,113,1,47,33,1,

101,113,1,48,32,1,

101,112,1,47,32,0,

100,112,1,46,31,1,

99,111,0,46,32,1,

99,111,1,46,31,1,

99,111,1,46,31,1,

99,110,0,45,31,0,

98,110,1,46,31,1,

97,109,1,45,31,0,

97,108,1,45,31,1,

96,108,1,45,31,1,

96,108,1,45,31,1,

96,107,0,44,31,1,

95,107,1,45,30,1,

95,107,1,44,31,1,

94,106,1,44,30,1,

94,105,0,44,30,1,

94,103,1,44,30,1,

93,103,1,44,30,1,

111,103,1,43,29,1,

110,103,1,43,29,1,

109,103,1,43,30,1,

109,103,1,43,29,1,

108,102,1,42,29,1,

107,102,1,42,29,1,

107,101,0,41,29,1,

106,101,1,42,29,1,

106,99,1,42,28,1,

105,99,1,41,28,1,

103,99,1,41,28,0,

103,98,1,41,28,1,

103,98,1,41,28,1,

103,98,1,39,28,1,

103,97,1,39,27,1,

102,99,1,39,27,1,

102,99,1,39,27,1,

101,99,1,39,27,1,

101,98,1,39,27,1,

100,98,0,39,27,1,

99,97,1,39,26,1,

99,97,1,39,27,1,

99,97,1,39,26,1,

99,96,1,38,28,1,

98,96,1,39,28,1,

141,96,1,39,28,1,

174,96,0,38,27,1,

173,96,1,38,27,1,

172,96,1,38,27,0,

171,95,0,38,26,1,

170,94,0,38,26,1,

169,94,0,38,26,1,

167,93,1,37,26,1,

167,93,1,37,26,1,

166,93,1,37,25,1,

166,92,1,37,25,1,

164,92,1,37,26,0,

163,92,1,36,26,1,

163,91,1,36,25,1,

162,91,1,36,25,0,

161,90,1,35,25,1,

161,90,1,36,25,1,

159,90,1,36,25,1,

159,89,0,35,25,1,

158,88,1,35,24,1,

158,88,1,35,24,1,

157,88,1,35,25,1,

156,88,1,35,25,1,

156,88,1,35,24,0,

155,87,1,34,25,1,

154,87,1,34,24,0,

153,86,1,34,24,1,

153,86,1,34,24,1,

152,155,1,34,24,1,

151,158,1,34,24,1,

150,157,1,33,24,1,

150,156,1,34,24,1,

149,155,1,34,24,0,

148,154,1,33,23,1,

147,153,1,33,24,1,

147,152,0,32,23,1,

146,152,1,33,23,1,

145,151,1,33,22,0,

145,150,0,32,23,1,

144,150,1,33,23,0,

143,149,0,33,22,0,

143,147,1,33,22,1,

142,147,1,32,22,1,

141,147,1,33,22,1,

141,145,1,32,22,1,

140,145,1,31,22,1,

140,144,1,31,22,1,

139,143,1,31,21,1,

138,143,1,31,22,0,

137,142,0,33,22,0,

137,142,1,37,21,1,

136,141,1,37,21,1,

135,140,1,37,21,1,

135,139,1,36,21,1,

135,139,1,36,21,1,

134,138,1,36,21,1,

134,137,1,36,21,1,

133,137,1,35,20,1,

132,135,1,35,20,1,

135,135,1,35,21,1,

135,135,1,35,21,0,

135,135,1,35,20,1,

134,134,1,35,20,1,

133,133,0,34,20,1,

132,132,1,34,20,1,

131,131,1,34,19,0,

131,131,0,34,20,1,

130,131,1,34,20,1,

130,130,1,33,20,1,

130,129,1,33,19,1,

129,128,1,33,19,1,

128,127,1,32,19,1,

127,127,1,32,19,1,

127,127,1,32,19,0,

127,126,1,32,19,1,

126,125,1,32,19,1,

126,125,1,31,19,1,

125,124,0,31,19,0,

124,124,1,38,18,1,

124,123,1,37,19,1,

123,122,0,37,18,1,

123,122,1,37,18,1,

122,122,1,37,44,1,

122,121,1,36,43,1,

121,120,1,36,43,1,

121,120,1,36,43,0,

120,119,0,35,43,1,

120,119,1,35,42,1,

119,118,1,35,42,1,

118,117,1,35,41,1,

118,117,0,35,41,1,

117,117,1,35,41,1,

116,116,1,35,41,1,

116,115,1,61,59,1,

116,115,1,62,57,1,

115,114,1,61,57,1,

115,114,0,61,57,1,

114,114,1,60,56,1,

114,113,1,60,56,1,

113,148,1,60,56,1,

113,147,1,66,56,1,

112,146,1,65,55,1,

112,145,1,65,55,1,

111,145,1,64,55,1,

111,143,1,64,54,1,

110,143,1,63,54,1,

110,143,1,63,53,1,

109,142,1,63,53,1,

109,141,1,63,53,1,

108,140,1,62,53,1,

108,139,1,62,52,1,

108,139,1,62,52,1,

107,138,1,61,52,1,

106,137,0,61,51,1,

106,137,1,61,51,1,

106,135,1,60,51,1,

105,135,1,60,51,1,

105,135,1,60,51,1,

103,134,0,59,50,1,

103,133,0,59,50,1,

103,133,0,59,50,1,

103,131,1,59,49,0,

103,132,1,58,49,1,

102,131,1,58,49,1,

102,130,1,57,49,1,

101,130,0,57,48,1,

101,129,1,57,48,1,

100,128,1,57,48,1,

100,127,1,57,48,1,

99,127,1,56,47,1,

99,126,1,56,47,1,

99,126,1,56,47,1,

98,126,0,59,47,1,

98,125,0,58,46,1,

97,124,1,58,46,1,

97,124,1,57,46,0,

97,123,1,57,46,1,

96,123,1,57,46,1,

96,122,0,56,45,1,

96,121,1,56,45,1,

95,121,1,56,45,1,

95,120,1,56,45,1,

94,120,1,56,44,1,

94,120,1,55,44,0,

93,119,1,56,44,1,

93,118,1,55,44,1,

92,118,1,54,44,1,

92,117,1,54,44,0,

92,117,1,54,43,1,

92,116,1,54,43,1,

91,115,1,54,43,1,

91,115,0,53,42,0,

90,115,1,53,42,1,

90,114,1,52,42,1,

89,114,1,52,42,1,

89,113,1,52,42,1,

89,112,1,52,41,1,

88,112,0,51,41,1,

88,112,1,51,41,1,

88,111,1,51,41,1,

88,111,1,51,41,0,

87,110,1,51,41,1,

87,110,1,50,40,1,

86,109,1,50,39,1,

86,109,1,50,39,1,

85,108,1,50,39,1,

85,108,0,49,39,1,

85,108,1,49,43,1,

85,107,1,49,43,1,

84,116,1,49,43,1,

84,185,1,48,42,1,

83,184,1,49,42,1,

83,182,1,48,42,1,

83,181,1,48,41,1,

82,180,1,48,41,1,

82,179,1,47,41,1,

82,178,1,47,41,1,

81,177,1,47,41,1,

81,176,1,47,41,1,

81,176,1,46,39,1,

80,175,1,46,39,1,

80,174,0,46,39,1,

79,173,1,46,39,1,

79,172,0,45,39,0,

79,171,1,46,39,1,

79,170,1,45,39,1,

78,169,0,45,39,1,

78,169,1,45,39,1,

78,167,1,45,39,1,

78,167,1,45,38,1,

77,167,1,44,38,1,

77,166,1,44,38,1,

77,165,1,44,38,1,

76,164,1,43,37,1,

75,163,1,43,37,1,

76,163,1,43,37,1,

76,162,1,43,37,1,

75,161,1,43,37,1,

75,160,1,43,37,0,

75,159,1,42,37,1,

74,159,1,42,35,0,

73,158,1,42,36,1,

73,158,1,42,36,1,

73,157,1,41,35,1,

73,156,1,41,35,0,

71,156,1,41,35,1,

71,155,1,41,35,1,

71,154,1,40,35,1,

71,153,0,41,35,1,

71,152,1,39,34,0,

71,152,1,39,34,1,

71,152,1,41,34,1,

71,150,1,134,34,1,

71,150,1,163,34,0,

70,149,1,162,34,1,

70,148,1,161,34,1,

70,147,1,159,34,1,

69,147,1,159,33,1,

68,146,0,158,33,1,

69,146,0,157,33,0,

68,145,1,156,33,1,

68,144,1,156,32,0,

67,143,1,155,32,1,

67,143,0,154,32,1,

67,142,1,153,31,1,

66,142,1,152,35,1,

67,141,1,152,35,1,

66,140,1,151,35,1,

73,140,0,150,35,1,

101,139,1,149,35,1,

100,139,1,148,34,1,

99,137,1,147,34,1,

99,137,1,147,34,1,

98,135,1,146,34,1,

98,135,1,146,34,0,

97,135,1,145,33,0,

97,135,1,145,33,1,

96,134,1,143,33,1,

96,134,1,143,33,1,

95,133,1,142,33,1,

95,132,1,142,33,0,

94,131,1,141,32,0,

94,131,1,140,32,1,

93,130,1,140,32,1,

93,130,1,139,31,0,

92,129,1,139,31,1,

92,129,1,138,31,1,

92,128,1,137,31,1,

91,127,1,135,31,1,

91,127,1,135,31,1,

90,126,1,135,31,1,

90,126,1,135,31,1,

89,125,1,135,31,1,

89,125,1,134,30,1,

88,124,1,133,30,1,

88,124,1,132,30,1,

88,123,0,131,30,1,

88,122,0,131,30,1,

87,122,1,130,29,0,

86,121,1,130,29,0,

86,121,1,129,29,1,

86,120,1,129,29,1,

86,120,1,128,35,1,

85,120,1,127,38,1,

84,119,0,127,37,1,

84,118,1,126,37,1,

83,118,1,126,37,1,

83,117,1,126,37,1,

83,117,1,125,36,1,

82,116,1,124,36,0,

82,115,1,124,35,1,

81,115,1,123,35,1,

81,115,1,122,35,0,

81,114,1,122,35,1,

80,114,0,121,35,1,

80,113,1,121,35,1,

79,113,1,121,35,1,

79,112,1,120,34,1,

79,112,0,120,34,0,

78,111,1,119,34,1,

78,111,1,118,34,1,

78,110,0,118,34,1,

77,110,1,117,34,1,

77,109,1,117,33,1,

77,109,1,116,33,1,

76,108,1,115,33,1,

76,108,1,115,33,1,

90,107,1,115,33,1,

90,107,1,114,33,1,

89,106,1,114,33,1,

89,107,1,113,32,1,

88,105,1,113,32,1,

88,105,1,112,32,1,

88,103,1,112,31,1,

87,104,1,111,31,1,

87,103,1,111,31,1,

86,103,1,110,31,1,

86,103,1,110,31,1,

85,103,1,109,31,1,

85,102,1,109,31,1,

85,101,1,109,31,1,

84,101,1,108,31,1,

83,101,0,108,30,1,

83,100,1,108,30,1,

83,99,1,107,30,1,

82,99,1,106,30,1,

82,99,0,106,30,1,

82,98,1,105,30,1,

81,98,1,105,30,1,

81,98,1,155,78,1,

80,97,1,163,98,0,

80,97,1,163,98,1,

80,96,1,162,97,1,

79,96,1,161,96,1,

79,96,1,159,96,1,

79,95,1,159,96,0,

79,95,1,158,95,1,

79,94,1,158,94,0,

78,94,1,157,94,1,

78,94,1,156,93,1,

78,93,1,155,93,1,

77,93,1,155,93,1,

77,93,1,154,92,1,

77,92,1,153,92,1,

76,92,1,153,91,1,

76,92,1,152,91,1,

75,91,1,151,90,1,

75,91,1,151,90,1,

75,90,1,150,89,1,

74,90,0,149,89,1,

74,89,1,149,89,1,

74,89,0,147,88,1,

73,89,1,147,88,1,

73,88,0,147,87,1,

72,88,1,146,87,1,

71,88,1,145,86,1,

73,88,1,145,86,1,

71,87,1,143,86,1,

71,86,1,143,85,1,

71,86,1,143,85,0,

71,86,1,142,84,1,

71,86,1,141,84,1,

70,85,1,141,83,1,

70,85,1,141,83,1,

70,84,1,140,83,1,

70,84,0,139,82,0,

69,83,1,138,82,1,

69,83,1,186,140,1,

69,83,1,238,150,1,

68,83,1,237,149,1,

68,82,1,235,148,1,

67,82,0,234,147,1,

67,82,1,231,146,1,

67,81,1,231,145,1,

67,81,1,230,145,1,

66,81,1,228,143,1,

66,80,0,227,143,1,

66,79,1,226,142,1,

65,79,1,225,142,1,

65,79,0,224,141,1,

65,79,1,223,141,1,

65,78,1,222,139,1,

64,78,1,221,139,1,

64,78,1,220,138,0,

63,77,1,219,137,1,

63,77,1,217,137,1,

63,77,1,217,135,1,

63,76,0,216,135,1,

62,76,0,215,134,1,

62,76,1,214,135,1,

62,76,1,212,133,1,

62,75,0,211,133,1,

62,75,1,210,132,1,

65,75,0,209,131,1,

64,74,1,208,131,1,

63,74,0,207,130,0,

63,74,1,207,130,1,

63,73,1,205,129,1,

63,73,1,205,128,1,

63,73,1,203,127,1,

62,73,0,203,127,1,

62,73,1,202,127,1,

61,71,1,201,126,0,

62,71,1,199,125,1,

61,71,1,199,125,1,

61,71,1,199,124,1,

61,71,1,197,124,1,

60,71,1,196,123,1,

60,71,1,195,122,1,

60,70,1,195,122,1,

60,70,1,194,121,1,

60,70,1,193,121,1,

59,69,1,192,120,1,

58,69,1,191,120,1,

58,69,1,191,119,1,

59,68,1,190,119,1,

59,68,1,188,118,1,

59,78,1,188,118,1,

58,103,1,187,117,1,

58,102,1,186,116,1,

57,101,1,185,115,1,

57,100,1,184,115,1,

57,100,1,184,115,1,

57,99,1,183,114,1,

56,99,1,182,114,1,

56,98,1,181,113,1,

56,98,1,180,113,1,

56,97,1,179,112,1,

56,97,1,179,112,1,

56,103,1,178,111,1,

56,102,1,177,111,1,

55,102,1,177,110,1,

54,101,1,176,110,1,

55,100,1,175,109,1,

54,99,1,174,109,1,

54,99,1,174,108,1,

53,99,1,173,108,1,

115,98,0,172,108,1,

119,98,1,171,107,1,

118,97,1,170,106,1,

117,97,1,170,105,1,

117,115,1,167,105,1,

115,117,1,167,103,1,

115,116,1,167,103,1,

114,115,1,166,103,1,

113,115,1,166,103,1,

113,114,1,165,102,1,

112,113,1,164,102,1,

112,113,1,163,101,1,

111,112,1,163,101,1,

110,111,1,162,100,1,

110,111,1,161,99,1,

109,110,1,159,99,1,

109,110,1,159,99,1,

108,109,1,159,99,1,

108,109,1,158,98,1,

107,108,1,158,98,1,

106,108,1,157,97,1,

106,107,1,156,97,1,

105,106,1,156,96,1,

105,106,1,155,96,1,

103,105,1,154,96,1,

103,103,1,153,95,1,

103,135,1,152,94,1,

103,134,1,153,94,1,

102,133,1,173,94,1,

102,133,1,172,93,2,

101,131,1,171,93,1,

101,131,1,171,92,1,

100,130,1,169,92,1,

99,129,1,167,91,1,

99,129,1,167,91,1,

99,128,1,167,91,1,

98,127,1,166,90,0,

97,127,1,166,90,1,

97,126,1,165,89,1,

97,126,1,163,89,1,

96,125,1,163,88,1,

96,124,1,162,88,1,

95,124,1,161,88,1,

95,123,1,161,88,1,

94,123,1,180,133,1,

94,122,1,179,134,1,

93,121,1,178,133,0,

93,121,1,177,132,1,

93,120,1,176,131,1,

92,120,1,175,130,1,

92,119,1,174,130,1,

91,118,1,173,129,1,

91,118,1,173,128,1,

90,117,1,172,127,1,

90,116,1,171,127,1,

89,115,1,170,126,1,

89,115,1,169,125,1,

89,115,1,167,125,1,

88,114,1,167,124,1,

88,114,1,167,124,1,

88,113,1,166,123,1,

88,112,1,165,122,1,

87,112,1,163,121,1,

86,112,1,163,121,1,

86,111,1,163,121,1,

86,110,1,162,120,1,

85,110,1,161,119,1,

85,109,1,159,119,1,

84,108,0,159,118,1,

84,108,0,158,118,1,

83,108,1,158,117,1,

83,107,1,157,117,1,

82,107,1,156,116,1,

83,105,1,156,115,1,

82,105,1,155,115,1,

81,105,1,155,114,1,

81,105,1,153,114,1,

81,103,1,153,113,1,

80,103,1,152,112,1,

79,103,1,152,112,1,

79,102,1,151,111,1,

79,102,1,150,111,1,

78,101,1,149,110,1,

78,101,1,148,110,1,

78,100,1,148,109,1,

78,99,1,147,108,1,

77,99,1,147,108,0,

77,99,1,146,107,1,

77,99,1,145,107,1,

76,98,1,145,107,1,

76,97,1,143,106,0,

93,97,1,143,105,1,

92,97,1,143,105,1,

91,96,1,143,105,1,

91,96,1,142,103,1,

90,96,1,141,103,1,

90,95,1,141,103,1,

89,94,1,140,103,1,

89,94,1,140,102,1,

88,93,1,139,102,1,

88,93,1,138,101,1,

88,93,1,138,101,1,

87,92,1,137,100,0,

87,92,1,137,100,1,

86,92,1,135,99,1,

86,91,1,135,99,1,

86,91,1,135,99,1,

85,90,1,135,98,1,

85,90,1,134,98,1,

84,89,1,134,97,1,

83,89,1,133,97,1,

83,89,1,132,96,1,

83,88,1,132,96,1,

83,88,0,131,96,1,

83,88,1,131,95,1,

82,88,1,130,95,1,

81,87,1,130,95,1,

81,86,1,129,94,1,

80,86,0,129,93,1,

80,86,1,129,93,1,

80,85,1,127,93,1,

79,85,1,127,92,1,

79,84,1,127,92,1,

79,84,1,126,92,1,

79,84,1,126,91,1,

78,83,1,126,90,1,

78,83,1,125,90,1,

78,83,1,124,90,1,

77,82,1,124,90,1,

77,82,1,124,89,1,

76,81,1,137,89,0,

77,81,1,220,88,0,

76,81,1,218,88,1,

76,80,1,217,88,1,

75,80,0,216,87,1,

75,79,1,214,87,1,

75,79,1,213,87,1,

74,79,1,212,86,1,

74,79,1,211,86,1,

73,78,1,210,85,0,

73,78,1,209,85,1,

73,78,1,207,85,1,

71,77,1,207,85,1,

71,77,1,206,84,1,

71,77,0,205,83,1,

71,76,1,204,83,1,

71,76,1,204,83,1,

71,76,1,203,82,1,

70,75,0,201,82,1,

70,75,1,201,82,1,

70,75,1,199,81,1,

70,74,1,199,81,1,

70,74,1,198,80,1,

69,74,1,197,80,1,

69,73,1,196,80,1,

69,100,1,195,79,1,

68,99,1,194,79,0,

68,99,1,193,79,1,

67,98,1,193,78,1,

67,98,1,192,78,1,

67,97,1,191,78,0,

67,97,1,190,78,1,

66,96,1,189,77,0,

66,96,1,188,77,1,

66,95,1,188,77,1,

65,95,1,187,76,1,

65,94,1,186,76,1,

65,93,1,185,76,1,

65,93,1,185,76,1,

64,93,1,184,75,1,

63,92,1,183,75,1,

63,92,1,182,75,1,

63,92,1,182,75,1,

63,91,1,180,74,1,

63,90,1,179,73,1,

62,90,1,179,73,1,

63,90,1,178,73,0,

62,89,1,178,73,1,

62,89,1,177,72,1,

61,89,1,176,71,1,

61,89,1,175,71,1,

61,88,0,174,71,1,

61,88,1,174,71,1,

61,88,1,173,71,1,

60,87,1,172,71,1,

60,86,1,172,70,1,

60,86,1,171,70,1,

59,86,1,170,70,1,

59,85,1,169,78,1,

59,85,1,169,77,1,

59,84,1,167,76,1,

59,84,1,167,76,1,

59,83,0,167,76,1,

58,83,1,166,76,1,

57,83,1,165,75,1,

58,82,1,165,75,1,

57,82,1,164,75,1,

57,81,1,163,74,1,

57,81,1,163,73,1,

57,81,1,162,73,1,

56,80,1,161,73,1,

57,79,1,161,73,1,

56,79,1,160,71,1,

56,79,1,159,71,1,

56,79,1,159,71,1,

55,79,1,158,71,1,

56,78,1,157,71,1,

55,78,1,157,70,1,

55,78,1,156,71,1,

54,77,1,156,70,0,

54,77,1,155,70,1,

54,77,1,154,70,1,

54,76,1,153,69,1,

53,76,1,153,69,1,

53,76,1,152,68,1,

53,75,1,152,68,1,

53,75,1,151,68,0,

52,74,1,150,67,1,

51,74,1,150,67,1,

52,74,1,149,67,1,

51,73,1,148,67,0,

51,73,1,148,66,1,

51,72,1,147,66,1,

51,73,1,147,66,1,

52,71,1,146,65,1,

56,71,1,146,65,1,

55,71,1,145,65,1,

55,71,1,144,64,1,

54,71,1,143,64,1,

54,71,1,143,65,1,

53,70,0,142,63,1,

53,70,1,142,63,1,

53,70,1,142,63,1,

53,69,1,141,63,1,

53,69,0,140,63,1,

52,69,1,140,62,1,

52,68,1,139,62,1,

59,68,0,139,62,1,

118,68,1,139,62,1,

122,67,1,137,61,1,

121,67,1,137,61,1,

120,67,1,135,61,1,

120,66,1,135,61,1,

119,66,1,135,60,1,

118,66,1,135,60,1,

117,66,1,135,60,1,

117,65,1,134,60,1,

116,65,1,133,60,1,

115,65,1,133,59,1,

