
31,12,1,79,71,1,

31,12,0,78,71,1,

30,12,1,78,71,1,

31,11,0,78,71,0,

30,12,1,78,71,1,

30,11,1,77,70,0,

30,11,1,77,70,0,

39,11,1,77,69,1,

39,11,0,76,69,0,

39,11,1,76,69,1,

39,11,1,76,69,1,

39,11,1,76,68,1,

39,11,1,75,68,1,

39,11,1,75,67,1,

39,11,1,74,70,1,

38,11,1,74,70,1,

38,11,0,73,69,1,

38,11,0,73,69,1,

38,10,1,73,69,1,

37,10,1,73,68,1,

37,11,1,73,68,1,

37,10,1,71,67,1,

37,10,1,71,67,1,

37,10,0,71,67,1,

37,10,0,71,67,1,

36,10,1,71,67,1,

36,10,1,71,66,1,

36,10,1,71,66,1,

36,10,0,70,66,1,

35,10,0,70,65,1,

36,10,1,70,65,1,

35,10,0,69,66,1,

35,9,1,69,65,0,

35,10,1,68,65,1,

35,10,0,68,64,1,

34,9,1,67,63,1,

34,9,1,67,63,1,

34,10,1,67,63,0,

34,10,1,67,63,0,

34,10,1,67,63,1,

34,10,1,67,68,0,

34,10,1,66,70,0,

34,10,1,66,69,0,

33,10,1,66,69,1,

33,10,1,66,69,1,

33,9,1,65,68,1,

33,9,1,65,68,0,

32,10,1,65,67,1,

33,10,1,64,67,1,

31,9,1,64,67,0,

32,10,1,63,67,0,

31,10,1,63,67,1,

31,10,0,63,66,1,

31,9,1,63,71,1,

31,9,1,63,76,1,

31,9,1,63,76,0,

31,9,1,62,76,1,

31,9,1,62,75,1,

31,9,1,62,75,0,

31,9,1,61,74,1,

30,9,1,61,74,1,

30,9,0,61,73,1,

30,9,1,61,73,1,

30,9,1,61,73,0,

30,9,0,60,71,1,

30,14,1,60,71,1,

30,15,1,60,71,0,

30,14,0,60,86,0,

30,14,1,59,89,0,

29,14,0,59,89,1,

29,14,1,59,89,1,

29,14,1,59,88,0,

29,14,1,58,88,1,

29,14,1,58,88,1,

28,14,0,58,87,1,

28,13,0,58,86,1,

28,13,1,57,86,1,

28,13,0,57,86,0,

28,13,1,57,85,1,

28,13,0,57,84,1,

28,13,1,57,84,0,

28,13,1,56,83,1,

28,13,0,56,83,0,

27,13,1,56,83,1,

27,13,1,56,83,0,

27,13,1,55,83,1,

27,13,1,55,82,0,

27,12,1,55,82,0,

27,13,0,54,81,1,

27,12,1,54,81,1,

26,13,1,54,80,0,

26,13,1,54,80,1,

26,13,0,54,79,1,

26,13,1,53,79,1,

26,13,0,53,79,0,

25,13,1,53,79,0,

26,13,1,53,79,1,

25,13,0,52,78,1,

25,12,1,52,77,1,

25,12,0,51,77,1,

25,13,1,52,77,1,

25,12,1,51,77,1,

25,12,1,51,76,1,

24,12,0,51,76,0,

25,12,1,51,76,1,

24,12,1,51,75,0,

25,12,0,50,75,0,

24,12,0,50,75,1,

24,11,1,50,74,0,

24,11,0,50,74,1,

24,11,1,50,74,1,

24,11,1,50,73,1,

24,11,1,49,73,1,

24,12,1,49,73,1,

24,11,1,49,73,1,

23,11,1,49,71,1,

24,11,0,48,71,1,

23,11,1,48,71,0,

23,11,1,48,71,1,

23,11,1,48,71,0,

23,11,1,47,70,1,

23,11,0,47,70,1,

23,11,1,47,70,1,

22,11,1,47,70,1,

22,11,1,53,69,1,

23,11,0,54,69,1,

22,10,1,54,69,1,

22,10,1,54,69,1,

22,11,1,54,68,1,

22,10,1,53,68,1,

21,11,0,53,67,1,

22,28,1,53,67,1,

21,30,1,53,67,0,

21,29,1,53,67,1,

21,29,1,52,67,1,

21,29,1,52,66,1,

21,29,0,51,66,1,

21,28,1,51,66,1,

20,28,1,51,65,1,

21,28,1,51,65,1,

21,28,1,51,65,1,

20,28,1,51,65,1,

20,28,1,50,63,1,

20,41,1,50,63,0,

20,40,1,50,63,1,

20,39,1,49,63,1,

19,39,1,49,63,1,

20,39,0,49,63,1,

19,39,1,49,63,1,

19,39,1,49,62,1,

19,39,1,49,62,1,

19,38,1,49,62,1,

23,39,1,48,61,1,

23,38,1,48,61,0,

22,38,1,48,61,1,

22,38,0,48,61,1,

22,38,1,47,60,1,

22,38,1,47,60,1,

22,37,1,47,66,1,

22,37,1,47,71,0,

21,37,0,46,71,1,

22,36,0,46,70,0,

21,36,1,46,70,1,

21,36,0,46,70,1,

21,36,1,46,69,0,

21,35,1,45,69,1,

21,35,1,45,69,0,

21,35,1,45,68,0,

21,35,1,45,68,0,

21,35,0,45,67,1,

20,35,0,45,67,1,

21,35,1,44,68,0,

20,34,0,44,67,1,

20,35,1,44,67,1,

21,34,0,44,67,1,

20,34,1,44,67,1,

19,34,1,43,67,1,

19,34,1,43,67,1,

19,33,0,43,66,1,

19,33,1,42,66,0,

19,33,1,43,66,1,

19,33,1,43,65,1,

19,32,0,42,65,1,

19,32,1,42,65,1,

19,33,1,42,68,1,

19,32,1,41,88,1,

19,32,1,41,88,1,

19,31,1,41,88,0,

19,31,1,41,87,1,

19,31,1,41,86,1,

19,31,1,41,87,0,

19,31,1,41,86,0,

19,31,1,40,85,1,

18,31,1,41,85,0,

18,31,1,39,84,1,

18,31,1,39,83,1,

18,30,1,39,83,1,

18,30,1,39,83,1,

18,30,1,39,83,1,

18,30,1,39,82,1,

18,30,1,39,82,1,

17,29,1,39,82,1,

17,30,1,39,81,1,

18,29,1,39,81,1,

18,29,1,39,81,1,

17,29,1,39,80,0,

18,30,1,39,79,1,

18,29,1,38,79,1,

18,29,1,38,79,1,

18,28,0,38,79,1,

18,28,1,38,79,1,

18,28,1,38,82,1,

17,28,0,37,82,1,

17,28,1,37,81,0,

17,28,1,37,81,1,

17,28,1,37,80,0,

17,27,1,37,80,1,

17,27,1,37,79,1,

17,27,1,36,79,0,

17,27,0,36,79,1,

17,27,1,36,79,1,

16,27,0,36,78,1,

17,27,1,35,78,1,

17,26,1,36,78,1,

16,26,0,35,98,0,

16,26,1,35,103,1,

16,26,1,35,102,1,

16,25,1,35,102,1,

16,25,1,35,101,1,

16,25,1,35,101,0,

16,26,1,34,100,0,

15,25,1,34,99,1,

16,25,1,35,99,1,

16,25,0,34,99,1,

15,25,1,34,98,1,

16,25,1,34,98,1,

15,24,1,34,97,1,

15,25,1,33,97,0,

15,25,1,33,96,0,

15,25,1,33,96,1,

15,25,1,33,96,1,

15,24,1,33,95,1,

15,25,1,33,95,0,

15,24,1,33,95,1,

15,24,1,33,94,1,

15,24,1,32,94,1,

14,24,0,32,93,1,

15,28,0,32,93,1,

14,30,1,32,93,1,

14,30,0,31,92,1,

14,29,1,31,91,1,

14,29,1,31,91,1,

14,29,1,31,91,1,

14,29,0,31,91,0,

14,29,1,31,90,1,

14,29,1,31,89,1,

19,28,1,31,89,1,

21,28,1,30,89,1,

21,28,1,31,89,1,

21,28,1,31,88,1,

20,28,1,31,88,0,

20,28,1,31,87,1,

20,27,1,31,88,1,

20,27,1,31,115,1,

20,27,1,31,140,1,

20,27,1,30,138,1,

20,27,1,30,137,0,

19,27,1,30,135,1,

19,26,1,30,135,1,

19,27,1,30,135,1,

19,26,0,30,134,1,

19,26,0,30,134,0,

19,26,1,29,133,1,

19,26,1,29,132,1,

19,25,1,29,131,1,

19,25,1,29,131,1,

19,25,1,29,131,0,

18,25,0,29,130,1,

18,25,1,29,129,0,

18,25,1,29,129,0,

18,25,1,29,127,0,

18,25,1,29,127,0,

18,24,1,29,127,1,

18,24,1,29,126,1,

18,24,1,28,126,1,

17,24,1,28,125,0,

17,24,1,28,124,1,

17,24,1,28,124,1,

17,24,1,28,124,1,

17,24,1,28,123,1,

17,24,1,27,123,1,

17,24,1,27,121,1,

17,24,1,27,121,1,

16,24,1,27,121,1,

16,24,1,27,120,1,

17,23,1,27,120,1,

16,23,1,26,120,1,

16,22,1,27,118,1,

16,22,0,27,118,1,

16,23,1,26,117,0,

16,22,1,26,117,1,

15,22,1,26,116,1,

16,22,1,25,116,0,

15,22,1,26,115,1,

15,22,0,25,115,1,

16,22,1,25,114,1,

17,21,1,26,114,0,

16,21,1,26,113,1,

16,21,1,26,113,1,

16,21,0,26,112,1,

16,21,0,25,112,1,

16,21,1,25,111,1,

15,21,1,25,111,1,

16,20,1,25,110,1,

16,20,1,25,110,1,

15,20,0,25,109,1,

15,20,0,25,108,1,

15,20,1,25,108,1,

15,19,1,25,108,1,

18,20,0,25,108,1,

18,19,0,24,107,1,

18,19,1,24,107,0,

18,19,1,24,106,1,

18,23,1,24,105,1,

18,26,1,24,105,1,

17,26,1,24,105,1,

18,26,0,24,103,1,

18,25,1,24,103,1,

17,26,1,24,103,1,

17,25,1,24,103,1,

17,25,1,23,103,1,

19,25,1,23,102,0,

19,25,1,24,101,1,

19,25,1,24,101,1,

19,25,1,23,101,1,

19,24,0,23,100,1,

19,24,1,23,99,0,

19,24,1,24,99,1,

18,24,0,23,99,1,

18,24,0,22,98,1,

18,24,1,23,98,1,

18,24,1,22,98,1,

18,24,1,22,97,1,

18,24,1,22,97,1,

18,23,1,22,96,1,

18,24,1,22,96,1,

18,23,1,50,96,1,

18,23,0,51,95,1,

18,23,1,51,95,1,

18,23,1,50,94,1,

18,22,1,50,97,1,

17,22,1,50,96,1,

17,22,0,50,96,1,

17,22,1,49,96,1,

17,22,0,49,95,0,

17,22,1,49,95,1,

21,22,1,48,94,1,

27,22,1,48,94,1,

27,22,1,48,93,0,

26,21,1,48,93,1,

26,21,1,48,93,1,

26,21,1,47,92,1,

26,63,1,47,92,1,

26,63,1,47,95,0,

25,62,1,46,94,0,

25,62,1,46,94,1,

25,62,1,46,94,0,

25,61,1,46,93,1,

25,61,0,46,93,0,

25,61,0,45,92,1,

25,61,0,45,92,1,

25,60,1,45,92,1,

24,60,1,45,91,1,

25,60,1,45,91,1,

25,59,0,44,90,0,

25,59,1,44,90,1,

24,59,1,44,89,1,

24,59,0,44,89,1,

24,58,0,44,89,1,

24,58,1,43,89,1,

24,58,1,43,88,1,

24,57,1,43,88,0,

24,57,1,43,88,1,

23,57,0,43,87,0,

23,56,1,42,87,1,

24,56,1,42,87,1,

23,56,1,42,86,0,

23,56,1,41,86,1,

23,56,1,41,85,1,

23,55,1,41,85,1,

22,55,1,41,85,1,

22,55,0,41,84,1,

22,55,1,41,83,1,

22,54,0,41,83,1,

22,54,1,39,83,1,

22,54,1,39,83,1,

22,53,1,39,83,1,

22,53,1,39,83,1,

22,53,1,39,82,1,

21,53,1,39,82,1,

22,53,1,39,81,1,

21,52,1,39,81,1,

22,51,1,39,81,1,

21,51,1,39,80,1,

21,51,1,39,79,1,

21,51,1,39,80,1,

21,51,1,38,79,0,

20,51,1,38,79,0,

21,50,0,38,79,1,

20,50,1,50,78,1,

20,50,1,89,78,1,

21,50,1,89,78,1,

20,49,1,88,78,0,

20,49,1,88,77,1,

19,49,1,87,76,1,

19,49,1,87,76,1,

20,48,1,86,76,1,

19,48,0,85,76,1,

19,48,1,85,76,1,

19,48,0,85,76,1,

19,47,1,84,75,1,

19,48,1,84,75,1,

26,48,1,83,75,1,

27,47,1,83,74,1,

26,47,1,83,74,1,

26,46,1,83,73,1,

26,46,1,82,73,1,

26,46,1,82,73,1,

26,46,1,81,73,1,

25,45,1,81,73,0,

25,45,1,81,73,1,

26,46,1,80,73,1,

25,45,1,79,73,1,

25,45,1,79,71,0,

25,45,1,79,71,1,

25,44,1,79,71,1,

25,44,0,78,71,1,

25,44,1,78,71,1,

25,44,0,78,71,1,

24,44,0,78,70,1,

24,43,1,77,70,1,

24,43,1,77,70,1,

24,43,0,76,70,1,

24,43,1,76,69,1,

24,43,1,76,69,1,

24,43,1,76,69,1,

24,42,1,75,68,1,

24,42,0,75,68,1,

24,42,1,75,68,1,

23,41,1,74,67,1,

23,41,1,74,67,1,

23,41,1,73,67,1,

23,41,1,73,67,1,

23,41,1,73,67,1,

23,41,1,73,66,1,

23,41,1,71,66,1,

22,39,0,71,65,1,

22,39,1,71,65,1,

22,39,1,71,65,1,

22,39,1,71,65,1,

22,39,0,71,65,1,

23,39,1,71,64,1,

24,39,1,70,64,1,

25,39,1,70,64,1,

25,39,1,70,63,1,

24,39,1,69,63,0,

24,38,0,69,63,1,

24,38,1,69,63,1,

24,38,1,69,63,1,

24,38,1,68,63,1,

24,38,1,67,63,1,

23,38,1,67,62,1,

24,37,0,67,62,1,

24,37,1,67,63,1,

24,37,0,67,62,1,

27,37,1,67,62,1,

28,37,1,66,61,1,

27,37,1,66,61,0,

27,36,1,66,61,1,

27,36,0,65,61,1,

27,36,1,65,78,1,

27,36,1,65,110,1,

27,35,1,64,109,1,

26,35,0,64,109,1,

26,35,1,63,108,0,

26,35,1,63,107,1,

26,35,1,63,107,1,

25,35,1,63,106,1,

25,35,1,63,105,1,

25,34,1,63,105,1,

25,34,1,62,103,1,

25,34,1,62,103,1,

25,34,1,61,103,1,

24,34,1,61,103,1,

25,34,1,61,102,1,

24,33,1,61,102,1,

24,33,1,61,102,1,

24,33,1,60,101,1,

24,33,1,60,100,1,

24,33,1,60,99,1,

24,33,1,60,99,1,

24,33,1,59,99,1,

24,32,1,59,99,1,

24,31,1,59,98,1,

24,31,0,58,98,1,

24,31,1,58,97,1,

24,32,1,58,97,0,

23,31,1,57,96,1,

23,31,1,57,96,0,

23,31,1,57,96,1,

22,31,1,57,95,1,

22,31,1,57,95,1,

23,31,1,56,94,0,

23,30,1,56,94,1,

22,31,1,56,94,1,

22,30,1,56,93,1,

22,30,1,56,93,1,

22,30,1,56,92,1,

22,30,1,55,92,1,

22,30,1,55,91,1,

22,29,1,55,91,0,

22,30,1,54,91,1,

21,30,1,54,90,1,

21,29,1,54,90,1,

21,29,1,54,89,1,

30,29,1,54,89,1,

45,28,1,53,89,1,

45,29,1,53,88,1,

44,28,1,53,88,1,

44,28,1,52,88,1,

44,28,1,52,88,1,

44,28,1,52,87,1,

43,28,1,51,86,1,

43,28,1,51,86,1,

43,28,1,51,86,1,

43,28,1,51,85,0,

43,27,1,51,85,1,

42,27,1,51,84,1,

42,27,1,51,85,1,

42,27,1,50,83,1,

41,27,1,50,83,1,

41,26,1,50,83,0,

41,27,0,49,83,1,

41,27,1,50,83,1,

39,27,0,49,83,1,

40,26,1,49,82,1,

39,26,1,49,81,1,

39,26,1,48,81,1,

39,25,1,48,81,1,

39,25,1,48,80,1,

39,25,0,48,80,1,

39,25,1,48,80,1,

41,25,1,47,79,1,

41,25,1,47,79,1,

41,25,1,48,79,1,

39,25,0,47,78,1,

41,25,1,47,78,0,

39,25,0,46,78,1,

39,24,1,47,77,1,

39,24,0,46,77,1,

39,24,1,46,76,1,

39,24,1,46,77,1,

39,24,0,45,76,1,

39,24,1,46,76,1,

39,24,1,45,76,1,

38,24,1,45,75,1,

39,24,1,45,75,1,

38,24,1,45,75,1,

38,24,1,44,74,1,

38,24,1,44,73,0,

38,24,1,44,73,1,

37,24,1,44,73,1,

37,24,0,44,73,1,

37,23,1,44,73,0,

37,23,1,44,72,1,

37,23,1,43,71,1,

37,23,1,43,71,1,

36,23,1,43,71,1,

36,23,1,43,71,1,

36,22,0,42,71,1,

36,22,1,43,71,1,

35,22,1,42,70,1,

35,22,1,42,70,1,

35,22,1,41,69,1,

35,22,0,42,70,1,

35,22,1,44,108,0,

35,22,1,54,107,1,

35,22,1,54,107,0,

34,21,1,53,106,1,

34,21,1,53,105,1,

34,21,0,53,103,1,

34,21,1,53,103,1,

34,21,1,52,103,1,

34,21,1,52,103,1,

33,20,0,51,103,1,

33,20,1,51,102,0,

33,20,1,51,102,1,

33,20,1,51,105,1,

33,20,1,51,105,1,

32,20,1,50,103,1,

32,20,1,50,103,1,

31,20,1,50,103,1,

32,19,1,50,102,1,

31,20,1,49,102,0,

31,19,1,49,101,1,

31,19,1,49,101,1,

31,19,1,49,100,1,

31,19,1,48,99,1,

31,19,1,48,99,1,

31,19,1,48,99,1,

31,19,1,48,98,1,

31,19,1,48,98,1,

30,19,0,47,97,1,

30,19,1,47,97,1,

30,18,0,47,97,1,

30,18,1,47,96,1,

30,18,0,47,96,0,

30,18,1,46,96,1,

30,18,1,46,95,1,

29,18,1,46,95,0,

29,18,1,45,94,0,

29,18,1,45,94,1,

29,18,1,46,94,0,

29,18,1,45,98,1,

28,18,1,45,97,1,

29,17,1,44,97,0,

29,17,1,45,96,1,

28,17,1,44,96,1,

28,17,1,44,95,1,

28,17,1,44,95,1,

28,17,1,44,94,1,

28,17,1,44,94,1,

28,17,0,43,94,1,

28,16,1,43,93,1,

27,16,0,43,93,1,

28,17,1,43,92,1,

28,17,0,42,92,1,

27,17,1,42,92,0,

27,16,1,42,92,1,

27,15,1,42,91,1,

27,16,1,41,91,1,

26,16,1,41,90,1,

26,15,1,41,90,1,

26,16,0,41,89,1,

27,15,1,41,88,0,

26,15,1,40,88,1,

25,15,1,40,88,1,

26,15,1,39,88,1,

26,15,1,39,88,0,

25,15,0,39,87,0,

25,15,1,39,87,1,

25,15,1,39,86,1,

25,15,1,39,86,1,

25,15,1,76,86,1,

25,15,1,83,85,1,

25,15,1,101,85,1,

24,14,1,101,84,1,

25,15,1,99,83,1,

24,14,1,99,83,1,

24,14,1,99,83,1,

24,15,0,98,83,1,

24,15,1,98,83,1,

24,15,1,97,82,1,

24,14,0,97,82,1,

24,14,1,97,81,1,

24,15,1,96,81,0,

23,14,1,96,80,1,

23,14,1,96,80,1,

24,14,1,95,80,1,

24,14,1,94,79,1,

23,14,1,94,79,1,

23,14,1,93,79,0,

23,14,1,93,79,1,

23,14,1,92,78,1,

23,14,1,92,78,1,

23,14,1,92,78,1,

22,14,1,91,77,1,

22,13,1,91,77,1,

22,13,1,90,77,0,

22,13,1,90,76,1,

22,13,1,89,76,1,

31,13,1,89,76,0,

33,13,1,89,76,1,

33,13,1,88,75,1,

32,13,1,88,75,1,

31,13,0,88,74,1,

31,14,1,88,74,1,

31,15,0,88,74,1,

31,15,1,87,73,1,

31,15,1,87,73,0,

31,15,1,86,73,0,

30,15,0,86,73,0,

31,15,1,85,72,1,

31,14,1,85,71,1,

30,15,0,85,71,0,

30,14,1,84,71,0,

30,14,1,83,71,1,

30,14,1,83,71,1,

30,14,1,83,71,0,

30,14,1,83,70,0,

29,14,1,83,70,1,

29,14,0,82,71,1,

29,14,1,82,71,1,

29,14,1,81,70,1,

29,14,1,81,70,1,

28,14,1,81,70,0,

28,14,0,81,69,1,

28,14,0,80,69,1,

28,13,1,79,69,1,

28,13,0,79,68,1,

28,14,1,79,67,1,

28,14,1,79,67,0,

28,14,1,78,67,1,

27,13,0,78,67,1,

27,13,1,78,67,1,

27,13,1,78,67,0,

27,13,1,77,67,1,

27,13,0,77,67,0,

27,13,1,76,66,1,

27,13,1,76,66,1,

27,12,1,76,66,0,

26,13,1,76,66,1,

26,12,1,75,65,0,

26,13,1,75,65,1,

26,12,0,74,65,1,

26,12,1,74,65,1,

26,12,1,74,64,1,

25,12,1,73,66,1,

25,12,1,73,66,1,

25,12,1,73,65,1,

25,12,1,73,65,1,

25,12,1,73,65,0,

25,12,1,71,65,1,

25,12,1,71,65,1,

25,12,1,71,64,0,

24,12,1,71,64,1,

25,12,1,71,64,1,

24,11,1,70,63,0,

24,11,1,70,63,1,

24,12,1,70,63,1,

24,12,1,70,67,1,

24,12,1,70,66,1,

24,12,1,69,66,1,

24,12,1,69,66,1,

24,12,1,69,65,1,

24,11,1,68,65,1,

23,12,1,68,65,1,

23,11,0,67,65,1,

24,11,1,67,64,1,

23,11,0,67,63,1,

22,11,1,67,63,0,

23,11,1,66,63,1,

22,11,1,67,63,1,

22,11,1,66,64,1,

22,11,1,66,64,1,

22,11,1,66,64,1,

22,11,1,65,63,1,

22,10,1,65,63,1,

21,10,1,65,63,1,

22,11,1,64,63,1,

21,10,0,64,63,1,

22,10,1,63,62,1,

21,10,1,63,62,1,

21,10,1,63,62,1,

21,11,1,63,62,1,

21,11,1,63,61,1,

21,11,1,63,121,1,

21,11,1,67,139,1,

20,11,1,67,138,1,

21,11,1,67,137,0,

20,10,0,67,137,0,

20,11,0,66,135,1,

19,10,1,66,135,1,

23,10,1,65,134,1,

23,10,1,65,134,1,

22,10,1,65,133,1,

22,10,0,64,133,1,

22,10,1,64,131,1,

22,11,1,63,131,0,

22,10,1,63,130,1,

22,10,1,63,130,1,

21,10,1,63,129,1,

21,10,1,63,129,1,

22,9,1,63,127,1,

21,9,1,62,127,1,

21,9,0,62,127,1,

21,9,0,62,126,0,

21,9,1,62,126,1,

21,16,1,61,125,1,

21,20,1,61,124,1,

20,26,1,61,124,1,

21,25,1,60,123,1,

20,25,1,60,123,1,

20,25,1,60,122,0,

20,25,1,60,122,1,

19,25,1,59,121,1,

22,25,1,59,121,1,

25,24,1,59,120,1,

24,24,1,58,120,1,

24,24,1,59,119,1,

24,24,0,58,119,1,

24,24,0,58,118,1,

24,24,1,58,118,1,

24,24,1,58,117,1,

24,24,0,57,116,1,

24,24,0,57,115,1,

24,24,1,57,115,1,

24,24,1,57,115,1,

23,23,1,56,114,1,

23,23,1,56,114,0,

23,22,0,56,113,1,

23,23,0,56,113,1,

23,22,1,56,112,1,

23,22,0,56,112,0,

22,22,0,56,111,1,

22,22,0,69,110,1,

22,21,0,70,110,0,

22,22,1,69,110,1,

22,21,1,69,110,1,

21,21,1,69,109,1,

21,21,1,68,109,0,

21,21,1,67,108,0,

21,21,1,67,108,1,

21,21,0,67,107,1,

21,21,1,67,107,1,

21,21,1,66,106,0,

21,21,1,66,106,1,

20,20,0,66,105,1,

20,20,0,66,105,0,

20,20,1,65,103,1,

20,20,1,65,103,0,

20,19,1,65,103,1,

20,19,0,64,103,1,

20,19,1,64,103,0,

19,19,0,63,102,1,

20,19,1,63,102,1,

20,19,1,63,101,1,

19,19,0,63,101,1,

19,18,1,62,101,0,

19,19,1,62,99,0,

19,18,1,62,99,1,

19,18,1,62,99,1,

19,18,1,61,99,1,

19,18,1,61,98,1,

19,18,0,61,98,1,

19,18,0,61,97,1,

19,18,1,60,97,1,

22,18,1,60,96,0,

25,18,1,60,96,1,

24,18,0,67,96,1,

24,18,1,66,96,0,

24,17,1,66,95,1,

24,17,1,65,95,1,

24,17,0,65,94,1,

24,17,1,65,94,1,

24,17,1,65,94,1,

24,17,1,64,93,0,

24,17,0,63,93,1,

23,17,0,63,92,0,

24,17,1,63,92,0,

23,16,0,63,92,1,

23,17,0,63,91,1,

24,17,1,62,91,1,

24,16,1,62,91,1,

23,16,1,62,90,0,

23,16,1,61,90,0,

23,16,1,61,89,1,

22,16,0,61,89,1,

22,15,1,61,89,1,

22,16,1,61,88,1,

22,15,1,60,88,1,

22,15,1,60,88,0,

22,15,1,60,88,1,

22,15,1,60,87,1,

23,15,1,59,87,0,

23,15,0,59,86,1,

23,15,1,58,86,1,

23,16,0,59,85,0,

23,17,1,58,85,0,

22,18,1,58,85,1,

22,18,1,57,95,1,

22,17,0,57,97,1,

22,17,1,57,97,0,

22,18,1,57,96,1,

22,18,1,57,96,1,

22,17,1,56,95,1,

22,17,1,56,95,0,

21,17,1,56,95,1,

21,17,1,56,94,1,

21,17,0,56,94,1,

21,16,1,55,93,1,

21,17,0,56,92,1,

21,17,1,55,92,1,

21,16,1,54,92,0,

21,16,1,54,92,1,

20,16,0,54,91,0,

20,16,1,54,91,1,

20,16,1,54,91,1,

20,16,0,53,90,1,

19,16,1,53,89,1,

19,15,1,53,89,1,

19,15,1,53,89,1,

19,15,1,52,88,1,

19,15,1,52,88,1,

19,15,1,52,88,1,

19,15,1,51,88,1,

19,15,1,51,105,1,

19,15,1,51,113,1,

19,15,1,51,112,1,

19,15,1,51,112,1,

19,15,1,50,111,1,

18,15,1,50,111,1,

18,15,0,50,110,1,

19,14,1,50,109,1,

18,14,0,50,109,1,

18,15,1,49,108,1,

18,14,0,49,108,1,

18,14,1,49,107,1,

18,14,1,49,107,1,

18,14,1,49,106,0,

18,14,1,49,106,1,

18,14,1,48,105,0,

17,14,1,48,105,1,

17,14,0,48,105,1,

17,14,1,48,103,1,

17,14,1,47,103,1,

17,14,1,48,103,1,

17,13,1,47,103,1,

16,13,0,47,102,1,

17,13,0,46,102,0,

16,13,1,46,102,1,

16,13,1,47,101,1,

17,13,0,46,100,0,

16,13,1,46,100,1,

16,13,1,46,99,1,

16,12,0,45,99,1,

16,12,0,45,98,1,

16,13,1,45,98,1,

16,12,1,45,97,1,

16,13,1,45,97,1,

16,19,1,44,97,1,

16,39,1,44,96,0,

15,52,1,44,96,0,

15,54,1,44,97,1,

15,53,1,109,101,1,

15,53,0,108,100,1,

15,52,1,107,99,1,

15,52,1,107,99,1,

15,51,1,106,99,1,

15,51,1,105,98,1,

14,51,1,103,98,1,

49,51,1,103,97,0,

54,51,1,103,97,0,

54,50,1,103,96,0,

53,50,1,102,96,0,

53,50,1,102,96,0,

53,50,1,102,95,0,

53,49,1,101,94,1,

52,49,1,100,94,1,

52,49,1,100,94,1,

51,49,1,99,93,1,

51,48,1,99,93,1,

51,48,1,99,92,1,

51,48,1,98,92,1,

50,48,1,98,92,1,

50,48,0,97,91,1,

50,47,0,97,91,1,

50,47,1,96,91,1,

49,47,1,96,90,1,

49,47,1,96,89,1,

49,46,1,96,89,1,

49,46,1,95,89,1,

48,46,1,95,88,1,

48,45,1,94,88,1,

48,45,1,94,88,1,

48,46,1,94,88,1,

48,45,1,93,87,1,

47,45,1,92,86,0,

47,45,1,92,86,1,

47,44,1,92,86,1,

47,44,1,92,85,0,

47,44,1,91,86,1,

46,44,1,91,85,1,

46,44,0,90,84,1,

46,44,1,90,84,0,

46,43,1,89,83,1,

45,43,1,89,83,1,

45,43,1,89,83,1,

45,42,1,88,83,1,

45,42,1,88,82,1,

44,42,1,88,82,1,

44,42,1,88,82,1,

44,42,1,87,81,1,

44,42,1,86,81,1,

44,42,1,86,81,1,

43,42,1,86,81,1,

43,42,1,86,80,1,

44,41,0,85,80,1,

43,41,1,84,80,1,

43,41,1,84,79,1,

42,41,1,84,79,1,

42,41,1,83,79,1,

42,40,1,83,79,1,

42,40,0,83,78,1,

41,41,1,83,78,1,

41,62,1,82,78,1,

41,62,0,82,78,0,

41,61,1,82,77,0,

41,61,1,81,77,1,

39,61,1,81,77,1,

39,60,1,80,76,1,

39,60,1,80,76,0,

39,60,0,79,76,1,

39,59,1,79,75,1,

41,59,0,79,75,1,

40,59,1,79,75,1,

41,59,1,79,74,1,

40,58,1,79,74,1,

39,58,0,78,73,1,

39,57,1,78,73,1,

39,57,1,77,73,1,

39,57,0,77,73,1,

39,57,1,77,71,1,

39,57,1,76,71,1,

39,56,1,76,71,1,

39,56,1,76,71,1,

39,56,1,75,71,1,

39,56,1,76,71,1,

38,55,1,75,71,0,

38,56,1,75,71,1,

38,55,1,74,70,1,

38,54,0,74,70,1,

38,54,1,74,69,1,

37,54,1,73,69,1,

37,54,1,73,69,1,

37,54,1,71,69,1,

37,54,1,71,69,0,

37,54,1,71,68,1,

37,53,1,71,67,1,

36,53,1,71,67,1,

36,53,1,79,67,1,

36,52,1,79,67,1,

36,52,1,79,67,1,

35,52,1,78,67,0,

35,51,1,78,66,1,

35,51,1,78,66,1,

35,51,1,77,65,0,

35,50,1,77,66,1,

35,50,1,76,65,1,

35,50,1,76,65,0,

34,50,0,76,64,1,

34,50,1,76,65,1,

34,49,1,76,64,1,

34,49,1,75,63,1,

34,49,1,75,63,1,

33,49,1,74,63,1,

34,49,1,74,63,1,

33,49,0,80,63,1,

33,48,1,89,63,1,

33,48,1,88,62,1,

33,48,1,88,69,1,

33,48,1,88,71,1,

33,48,1,87,71,1,

32,47,1,86,70,1,

32,48,1,86,70,0,

31,47,1,85,70,1,

31,47,1,85,69,1,

37,47,1,85,69,1,

36,47,1,84,68,0,

36,46,1,84,68,1,

36,52,0,83,68,1,

36,53,1,83,67,1,

36,52,1,83,67,1,

35,51,1,82,67,0,

35,52,1,82,67,1,

35,51,1,82,66,1,

35,51,1,81,66,1,

35,51,0,83,66,1,

35,51,1,108,65,1,

34,51,1,107,65,1,

34,50,1,107,65,1,

34,50,1,106,64,1,

34,49,0,105,64,1,

34,50,1,105,63,0,

33,49,1,103,63,1,

33,49,0,103,63,1,

33,49,1,103,63,1,

33,48,1,103,62,1,

33,48,1,103,62,1,

32,48,1,102,62,1,

32,48,1,101,62,0,

32,47,1,101,62,1,

32,47,1,101,61,1,

31,47,1,100,61,1,

31,47,1,99,61,0,

31,47,1,99,61,1,

31,46,1,99,60,1,

31,46,1,98,60,1,

31,46,1,98,60,1,

31,46,1,97,60,1,

31,45,0,97,59,1,

30,45,1,96,59,1,

30,45,1,96,59,1,

30,45,1,96,59,1,

30,45,1,95,58,1,

30,44,1,95,58,1,

30,44,1,95,58,1,

29,44,1,94,58,1,

30,44,0,94,57,1,

30,44,1,93,57,0,

29,43,1,93,57,1,

29,43,0,93,56,1,

29,43,1,92,56,1,

29,43,1,92,57,1,

29,43,1,92,56,1,

29,43,1,91,56,1,

28,43,0,91,56,1,

28,42,1,90,56,1,

29,41,1,89,55,0,

28,41,1,89,55,1,

28,41,1,89,55,1,

28,41,1,89,55,1,

27,41,1,88,54,1,

28,41,1,88,54,0,

27,39,1,88,54,1,

27,39,1,88,56,1,

27,40,0,87,56,0,

27,39,1,87,55,1,

27,39,0,86,55,1,

27,39,1,86,55,1,

26,39,1,85,55,1,

27,39,1,85,54,0,

27,39,0,85,54,1,

26,39,1,84,54,1,

26,39,1,88,54,1,

26,39,1,139,53,1,

26,39,1,137,53,1,

25,38,1,135,53,1,

26,38,0,135,53,0,

25,38,1,135,52,1,

25,38,1,135,52,1,

25,38,1,134,51,1,

25,38,1,133,52,1,

25,37,1,133,51,0,

24,37,0,131,51,1,

25,37,1,131,51,0,

25,37,1,130,51,1,

25,36,1,130,50,1,

24,36,1,129,51,1,

24,36,0,129,50,1,

24,35,0,127,50,0,

24,35,1,127,50,1,

24,35,1,127,49,1,

24,35,1,126,49,0,

24,35,0,126,49,1,

24,35,1,125,49,0,

24,34,1,131,49,1,

23,35,1,130,48,1,

27,35,1,129,48,1,

27,34,1,129,48,1,

27,34,1,127,48,1,

27,34,1,127,47,1,

27,34,0,127,47,0,

27,34,1,126,48,1,

26,33,1,125,47,1,

26,33,1,125,47,1,

26,33,1,124,47,1,

26,33,1,124,47,1,

26,32,1,124,46,1,

43,33,1,123,46,1,

44,35,1,122,46,1,

44,35,1,121,46,1,

44,35,1,121,46,1,

44,35,1,121,45,1,

44,45,1,120,45,0,

43,50,1,120,45,1,

43,50,1,119,45,1,

43,49,1,119,45,0,

42,49,1,118,44,1,

42,49,1,118,45,1,

42,48,1,117,44,1,

42,48,1,117,44,1,

41,48,1,115,44,1,

41,48,0,115,44,1,

41,47,1,115,43,1,

41,47,0,115,44,1,

41,47,1,114,43,1,

39,46,1,113,43,1,

41,55,1,113,43,1,

39,56,1,113,43,1,

39,55,0,112,43,0,

39,54,1,112,42,1,

39,54,1,111,42,1,

39,54,1,111,42,1,

39,54,1,110,41,1,

39,53,1,109,41,1,

39,53,0,109,41,1,

39,53,1,109,41,0,

39,52,1,108,41,1,

38,52,1,108,41,0,

38,51,1,107,41,1,

38,51,1,107,41,1,

38,51,1,107,39,1,

38,51,1,106,39,1,

37,51,1,105,39,1,

48,51,1,105,39,1,

78,51,1,105,39,1,

77,50,0,103,39,1,

76,50,0,103,39,1,

76,50,1,103,39,1,

76,49,1,103,39,1,

76,133,1,103,39,1,

76,131,0,102,39,1,

75,130,1,101,38,1,

74,129,1,101,38,1,

73,127,0,101,39,1,

73,127,1,101,38,1,

73,127,1,99,38,1,

73,126,1,99,38,1,

71,125,1,99,38,1,

71,124,1,99,37,1,

71,124,0,98,38,1,

71,123,1,98,37,1,

71,123,1,98,37,1,

70,122,0,97,37,1,

70,121,1,96,37,1,

70,121,1,96,37,1,

69,121,1,96,36,1,

69,120,1,95,36,1,

69,119,0,95,36,1,

69,119,1,95,36,1,

68,118,1,94,35,1,

68,118,1,94,36,0,

67,117,1,93,35,0,

67,117,1,93,35,1,

67,116,1,93,35,1,

67,115,1,92,35,1,

66,115,1,92,35,1,

66,115,1,91,35,1,

66,114,1,91,34,0,

65,113,1,91,34,1,

65,113,1,90,34,1,

64,112,0,90,34,0,

65,112,1,89,34,1,

63,111,0,89,34,0,

63,111,1,89,34,1,

63,110,1,89,33,1,

63,109,1,88,33,1,

63,109,1,88,33,1,

63,109,1,88,33,1,

63,108,1,87,33,1,

62,108,1,86,33,1,

62,108,1,86,33,0,

62,107,1,86,32,0,

61,106,1,86,32,1,

63,106,0,85,32,1,

63,105,1,85,31,1,

63,105,0,84,31,1,

63,103,0,84,32,1,

63,114,1,83,32,1,

63,113,1,83,31,1,

62,113,1,83,31,1,

62,112,1,83,31,1,

62,112,1,83,31,1,

61,111,0,82,31,1,

61,111,1,82,31,0,

60,110,1,82,31,1,

61,110,0,81,31,1,

60,109,1,81,31,1,

60,108,1,80,30,1,

60,108,1,80,30,0,

59,107,1,79,30,1,

59,107,1,79,30,1,

59,106,1,79,30,1,

58,105,1,79,30,1,

58,105,1,78,29,1,

58,104,0,78,29,1,

57,103,1,78,29,1,

57,103,1,77,29,1,

96,103,0,77,29,1,

96,103,1,83,29,1,

94,103,1,83,29,1,

94,102,1,83,29,0,

94,102,0,82,29,1,

93,101,1,82,29,1,

93,100,1,81,28,1,

92,100,0,81,28,1,

92,100,1,80,28,1,

91,99,0,79,28,0,

91,99,1,80,28,1,

91,99,1,79,28,1,

90,98,0,79,28,1,

89,97,1,79,28,1,

89,97,1,79,28,1,

89,97,0,78,27,1,

88,96,1,78,27,1,

88,96,1,78,27,1,

88,96,0,78,27,1,

88,95,1,77,27,1,

87,95,1,76,27,1,

87,94,1,137,27,1,

86,94,1,153,27,1,

86,94,1,152,27,1,

85,93,1,151,27,1,

85,93,1,150,26,0,

84,93,1,149,26,0,

84,92,1,148,26,1,

83,92,0,147,26,1,

83,91,1,147,26,1,

83,91,1,146,25,1,

83,90,1,145,25,1,

82,90,0,145,25,1,

82,89,0,143,25,1,

82,89,0,143,25,1,

81,89,1,143,25,1,

81,88,0,142,25,1,

80,88,1,141,25,1,

79,88,1,141,25,1,

79,88,1,140,25,1,

79,87,1,140,24,1,

79,87,1,139,24,0,

79,86,1,138,24,1,

78,86,1,138,24,1,

78,86,1,137,24,1,

78,85,0,137,24,1,

77,84,1,135,24,1,

77,83,1,135,24,1,

77,83,1,135,24,0,

76,83,1,134,24,1,

76,83,1,134,24,0,

75,83,1,133,24,1,

75,82,1,133,24,1,

75,82,1,132,24,1,

74,82,1,131,23,1,

74,81,1,131,23,1,

74,81,1,130,23,1,

73,80,1,129,23,1,

73,80,1,129,24,0,

73,79,1,129,22,0,

71,79,1,127,23,1,

71,79,1,127,22,1,

71,79,1,127,22,1,

71,78,1,126,22,1,

71,78,1,126,22,1,

71,78,1,125,22,1,

70,77,0,125,22,1,

70,77,1,124,22,1,

70,76,1,124,22,1,

69,76,1,124,22,1,

69,76,1,122,22,1,

69,76,1,122,21,0,

68,76,1,121,22,1,

68,75,1,121,21,1,

67,75,1,120,21,1,

67,75,1,120,21,1,

67,74,0,120,21,1,

67,73,1,119,20,1,

67,73,0,118,20,1,

67,73,1,118,21,1,

66,73,0,117,21,1,

66,71,1,117,20,1,

65,71,1,116,20,1,

65,71,1,116,20,0,

65,71,1,115,20,1,

65,71,1,115,20,1,

65,71,1,114,19,1,

64,71,1,114,20,0,

63,70,1,114,19,1,

63,70,1,113,19,1,

63,70,0,113,19,1,

63,70,1,112,19,0,

62,69,1,112,19,1,

62,69,1,111,19,0,

62,68,0,110,19,1,

62,68,1,110,19,1,

61,68,0,110,19,1,

61,67,1,110,19,1,

61,67,1,109,19,1,

61,67,1,108,19,1,

60,67,1,108,19,0,

60,66,1,108,18,1,

60,66,1,107,18,0,

60,66,1,107,19,1,

59,65,0,106,18,1,

59,65,1,105,19,1,

58,65,1,105,18,1,

58,65,1,105,18,1,

58,64,0,103,18,1,

58,64,0,103,18,1,

58,63,1,103,18,1,

57,63,0,103,17,1,

57,63,1,103,17,1,

57,63,1,103,18,1,

57,63,1,102,18,1,

56,62,1,101,17,1,

56,63,1,101,17,1,

56,63,1,101,17,1,

56,63,0,100,17,0,

56,62,1,99,17,1,

55,62,1,99,17,0,

55,62,1,99,17,1,

55,62,1,99,17,0,

54,61,1,98,17,1,

54,61,1,98,17,1,

54,61,1,97,17,1,

54,61,1,97,16,1,

55,60,1,97,16,0,

54,60,1,96,16,1,

54,60,1,96,16,1,

54,60,0,96,16,1,

54,59,0,95,16,1,

53,59,1,95,17,1,

53,59,1,95,16,1,

53,58,1,94,16,1,

52,58,0,94,16,1,

53,58,1,93,15,0,

52,58,1,93,15,1,

52,57,0,93,15,1,

100,57,1,92,15,1,

98,57,1,92,16,1,

98,57,1,92,15,0,

98,56,0,91,15,0,

97,56,0,91,16,1,

96,56,1,91,15,1,

96,56,1,90,15,1,

96,56,1,89,15,1,

96,56,1,89,15,1,

95,56,0,89,15,1,

94,55,1,89,15,1,

94,55,1,88,15,1,

93,54,1,88,15,1,

93,54,1,88,15,1,

92,54,1,88,15,0,

92,54,1,87,15,1,

92,54,1,87,14,1,

92,54,0,87,14,1,

91,53,1,86,14,0,

91,53,0,86,14,1,

89,53,1,85,14,1,

89,52,1,85,14,1,

89,52,1,84,14,0,

89,52,0,84,14,1,

88,52,1,85,14,1,

88,51,1,175,14,1,

88,51,1,173,14,1,

88,51,1,173,14,0,

87,51,0,172,14,0,

87,51,1,170,14,0,

86,50,1,169,13,1,

85,50,1,169,13,1,

85,50,1,167,13,1,

85,50,1,167,13,1,

84,50,1,166,13,1,

84,49,1,165,13,1,

83,49,0,165,13,1,

83,49,1,163,13,1,

92,49,1,163,13,1,

96,48,1,162,13,1,

96,48,1,162,13,1,

95,57,1,161,12,1,

95,57,1,161,13,0,

94,57,1,159,13,1,

94,57,1,159,13,1,

93,56,0,158,12,1,

93,56,1,157,12,1,

93,56,1,157,13,1,

92,55,0,156,12,0,

92,55,0,155,12,1,

91,55,0,155,12,1,

91,54,1,154,12,1,

90,54,1,153,12,1,

90,54,1,152,12,1,

90,53,0,152,12,0,

89,53,0,152,12,1,

88,115,1,150,12,1,

88,131,1,150,12,1,

88,131,1,150,12,1,

88,130,1,148,12,0,

88,129,1,147,11,1,

86,128,1,147,11,1,

87,127,0,146,12,1,

86,127,1,146,12,1,

86,126,1,145,12,1,

85,126,1,144,11,1,

85,125,1,143,11,0,

84,124,1,143,11,1,

84,124,0,142,11,0,

83,123,1,142,11,1,

83,122,1,141,11,1,

83,121,1,140,11,0,

82,121,1,140,11,1,

82,120,1,140,11,1,

99,120,1,139,11,0,

99,120,1,138,11,1,

102,119,1,137,11,0,

101,118,0,137,12,1,

100,118,0,135,11,1,

99,117,1,135,10,1,

99,116,1,135,10,0,

98,116,1,135,10,1,

98,115,1,134,10,1,

98,115,1,133,10,1,

97,114,1,133,10,1,

107,114,1,132,10,1,

157,113,1,131,10,1,

156,112,1,131,10,1,

155,112,0,130,9,1,

153,111,1,130,9,1,

153,111,1,129,10,1,

152,110,1,128,9,1,

152,110,1,127,10,1,

151,109,1,127,9,1,

149,109,1,127,9,1,

149,108,1,126,9,1,

148,107,0,126,9,1,

147,107,1,125,9,1,

146,107,0,124,9,1,

146,106,1,124,9,1,

145,105,1,123,9,1,

143,105,0,123,9,1,

143,105,1,122,9,1,

143,103,1,122,9,1,

142,103,1,121,9,0,

141,103,1,121,9,1,

141,102,1,120,9,1,

140,102,1,120,9,1,

139,102,1,119,9,1,

139,101,1,119,9,1,

138,100,1,118,7,1,

137,100,1,118,9,0,

135,99,0,117,9,1,

135,99,1,117,7,1,

135,99,1,116,8,1,

135,98,0,115,8,1,

134,98,0,115,7,0,

134,97,1,115,7,1,

133,97,1,115,7,1,

133,97,1,113,8,0,

132,96,1,114,7,1,

131,96,1,113,7,1,

131,95,1,112,7,1,

130,95,1,112,7,1,

129,95,1,112,8,1,

129,94,1,111,7,1,

129,93,1,111,7,0,

127,93,1,111,7,1,

127,92,1,110,7,1,

127,92,0,109,7,1,

126,92,1,109,7,0,

125,92,1,108,7,1,

125,92,1,108,7,1,

124,91,1,108,7,1,

124,90,1,107,7,1,

123,90,1,107,7,0,

123,90,1,106,7,1,

122,89,0,106,7,1,

121,88,1,105,7,0,

121,88,1,105,7,0,

120,89,1,105,7,0,

120,89,1,103,7,0,

120,88,1,103,7,1,

119,88,0,103,7,1,

119,88,1,103,7,0,

118,87,0,102,7,1,

118,87,1,102,7,1,

117,86,1,102,7,1,

116,86,0,101,7,1,

116,86,1,101,7,1,

115,85,1,100,7,1,

115,84,0,100,7,1,

115,84,1,100,6,1,

114,84,1,99,7,1,

114,83,1,99,7,0,

113,83,1,98,6,1,

113,83,1,98,7,1,

112,83,1,98,7,1,

112,82,0,97,7,1,

111,82,0,97,8,0,

124,82,0,97,7,0,

124,81,1,96,7,1,

123,81,1,96,7,1,

122,80,0,96,7,0,

122,80,1,95,7,1,

121,80,0,95,7,1,

120,79,1,94,7,1,

120,79,0,94,7,1,

120,79,1,94,7,0,

119,79,1,93,7,1,

119,78,0,93,7,0,

118,78,1,93,7,1,

118,78,1,92,7,0,

117,77,0,92,7,1,

117,77,1,92,7,0,

116,85,1,92,7,1,

115,85,1,91,7,0,

115,85,0,91,7,1,

115,84,1,90,7,1,

114,84,1,90,7,1,

113,83,1,90,7,1,

113,83,1,89,7,0,

113,83,1,89,7,1,

112,82,1,89,6,1,

112,82,1,88,6,0,

111,82,1,88,6,1,

130,82,0,88,6,1,

129,81,0,87,6,1,

128,81,1,87,6,0,

127,80,1,87,6,0,

127,80,1,86,6,1,

127,79,0,86,6,0,

126,79,0,86,6,1,

125,79,1,85,6,0,

125,78,1,85,6,1,

124,79,1,85,6,0,

124,78,1,84,6,1,

123,78,1,84,6,0,

123,78,0,83,6,1,

122,77,1,83,6,1,

122,77,0,83,6,1,

121,76,0,83,6,0,

121,76,1,83,6,0,

120,76,0,82,6,0,

119,76,1,82,6,1,

119,75,1,81,6,1,

118,75,0,81,5,1,

118,74,1,81,6,1,

117,74,1,81,6,1,

117,74,1,80,6,1,

116,73,1,79,6,0,

115,73,1,79,6,1,

115,73,0,79,5,1,

116,118,1,79,6,1,

118,127,0,79,5,1,

117,126,1,78,5,0,

116,125,1,78,5,1,

115,125,0,78,6,1,

115,124,1,77,5,1,

115,123,1,77,5,1,

114,122,1,77,5,0,

113,122,1,77,5,1,

113,121,1,76,5,1,

112,121,1,76,5,1,

112,120,1,76,5,1,

112,120,1,75,5,0,

111,119,0,75,5,1,

111,119,1,75,5,1,

110,118,1,75,5,1,

110,117,1,74,5,1,

109,117,0,74,5,1,

109,116,1,73,5,0,

108,115,1,73,5,1,

108,115,1,73,5,0,

107,115,1,73,5,0,

135,114,0,71,5,1,

134,113,1,71,5,1,

133,113,1,71,5,1,

133,112,1,71,5,0,

131,112,1,71,4,0,

131,112,1,71,5,0,

130,111,1,71,5,1,

130,110,0,71,5,1,

129,110,1,70,5,1,

129,109,1,70,5,0,

127,109,0,69,4,0,

127,108,1,69,4,1,

127,108,0,69,4,1,

126,108,1,69,4,1,

126,107,1,68,5,0,

125,106,0,68,4,1,

124,106,0,68,5,1,

124,105,1,67,4,0,

124,105,0,67,4,1,

123,103,1,67,4,1,

122,103,0,67,4,1,

121,103,0,67,5,1,

121,103,1,67,4,0,

121,102,0,66,3,1,

120,102,1,66,4,1,

120,102,0,65,4,1,

119,101,1,65,4,1,

118,101,1,65,3,1,

118,100,1,65,4,1,

117,99,1,64,4,1,

116,99,0,65,4,0,

115,99,1,64,3,1,

115,98,0,63,3,1,

115,98,0,63,4,1,

115,98,0,63,4,1,

114,97,1,79,3,1,

114,97,1,79,3,1,

113,96,1,78,3,0,

113,96,0,78,3,1,

112,96,1,78,3,1,

112,96,0,77,4,1,

112,95,1,77,3,1,

111,94,1,77,3,1,

110,94,1,76,5,1,

110,94,0,76,3,0,

109,93,1,76,4,1,

109,93,1,76,3,0,

109,93,1,75,3,1,

108,92,0,75,3,1,

108,92,1,74,4,1,

107,91,1,74,3,1,

107,91,1,73,3,1,

107,91,1,73,6,1,

106,90,1,73,7,0,

105,90,0,71,7,1,

105,89,1,71,7,1,

105,89,1,71,7,0,

103,89,0,71,7,0,

103,88,1,71,7,0,

103,88,0,71,7,1,

103,88,0,71,7,1,

102,88,1,70,7,0,

102,87,1,70,7,1,

102,87,1,70,7,1,

101,86,1,70,7,0,

101,86,1,69,7,1,

101,85,0,69,7,1,

100,85,0,69,6,1,

99,85,1,69,6,1,

99,84,1,68,6,1,

99,84,0,68,6,1,

99,83,1,67,6,1,

98,83,1,67,6,1,

98,83,1,67,6,1,

97,83,0,67,6,0,

97,82,1,66,6,1,

97,82,1,66,6,1,

96,82,0,66,6,0,

96,82,1,91,70,1,

96,81,1,89,69,1,

96,81,1,89,69,1,

95,80,1,89,68,1,

94,79,1,88,67,1,

94,79,1,88,67,1,

94,79,1,87,67,1,

93,79,1,87,66,0,

93,79,1,87,66,1,

93,78,0,86,65,1,

92,78,0,86,65,1,

92,78,1,86,65,1,

92,77,1,85,65,1,

92,77,1,85,64,1,

91,77,1,84,63,1,

91,76,1,83,63,1,

90,76,1,83,63,1,

90,76,1,83,63,0,

89,75,1,83,63,0,

89,75,1,82,62,1,

89,75,0,82,62,1,

89,75,1,82,62,1,

88,74,1,81,62,1,

88,74,0,81,61,0,

88,74,1,80,61,1,

88,73,0,80,61,1,

87,73,1,79,61,1,

88,71,0,79,60,1,

86,71,0,79,60,1,

86,71,0,79,60,1,

86,71,1,79,59,1,

86,71,1,78,59,1,

85,71,1,78,59,1,

85,71,1,78,59,1,

84,71,0,77,58,1,

84,70,1,97,58,1,

83,70,1,179,57,1,

83,70,1,178,58,1,

83,70,1,176,57,1,

83,70,1,176,57,1,

82,69,1,174,57,1,

82,69,1,174,57,1,

81,68,1,172,56,1,

81,68,1,172,56,1,

81,67,1,171,56,1,

81,67,1,170,56,1,

80,67,1,169,56,1,

80,67,1,169,55,1,

79,67,1,167,55,1,

79,66,0,167,55,1,

79,66,1,166,54,0,

79,65,1,166,54,1,

78,65,1,165,53,1,

78,65,1,164,54,1,

78,65,1,163,54,0,

77,65,1,163,53,0,

77,64,1,162,53,1,

77,64,1,161,52,1,

76,63,1,160,52,1,

76,63,1,159,51,1,

76,63,1,159,52,0,

76,63,0,158,51,1,

75,62,1,157,51,1,

75,62,1,157,51,1,

75,62,1,156,51,1,

101,62,1,155,51,0,

100,66,1,155,51,0,

99,66,1,154,50,0,

99,66,1,153,50,0,

99,65,1,152,49,1,

98,64,1,152,49,1,

98,64,1,152,49,1,

97,64,1,151,49,1,

97,63,1,150,49,1,

96,63,1,149,48,1,

96,63,1,149,48,0,

96,63,1,148,48,0,

95,62,1,147,48,0,

95,62,0,147,48,1,

94,62,1,146,47,1,

94,62,1,145,47,1,

93,61,1,145,46,1,

93,61,1,144,46,1,

92,61,1,143,46,1,

92,60,0,143,46,0,

91,60,1,142,46,1,

91,73,1,142,45,1,

91,88,1,142,46,1,

91,87,1,239,103,1,

126,86,1,287,145,1,

125,85,1,284,143,1,

123,85,1,283,142,1,

123,84,1,281,141,1,

122,84,1,280,141,1,

121,83,0,277,140,1,

121,83,1,276,139,1,

120,83,1,274,138,1,

120,82,1,272,137,0,

119,82,0,271,135,1,

118,81,1,270,135,1,

118,80,1,268,135,1,

117,80,1,267,135,0,

116,79,1,265,134,1,

115,79,1,263,133,1,

115,79,1,263,132,1,

114,79,1,261,131,1,

114,78,1,260,131,1,

113,78,1,259,130,1,

113,78,1,258,130,1,

112,77,1,255,129,1,

111,77,1,254,128,1,

111,76,1,254,127,1,

111,76,1,252,127,0,

110,75,0,251,126,1,

109,75,1,249,126,1,

109,74,1,248,125,1,

108,74,1,247,124,1,

108,73,1,246,124,1,

107,73,1,244,123,0,

106,73,1,243,123,1,

106,73,1,242,122,1,

106,71,1,241,121,1,

105,71,0,240,121,0,

104,71,1,239,120,1,

103,71,1,237,120,0,

103,71,1,236,120,1,

103,70,1,235,118,0,

102,70,1,234,119,1,

102,70,1,233,117,1,

102,69,1,231,117,1,

101,70,1,231,116,1,

101,69,1,230,116,1,

100,68,1,228,115,1,

99,67,1,228,115,1,

99,67,1,227,114,1,

99,67,0,226,113,1,

98,67,1,225,113,1,

98,77,1,224,113,1,

97,96,1,222,112,1,

97,95,1,222,112,1,

96,95,1,221,111,1,

96,94,1,220,111,1,

96,93,1,219,110,1,

95,93,0,217,109,1,

94,92,1,217,109,1,

102,92,1,216,109,1,

157,91,1,215,108,1,

156,91,1,214,108,1,

155,90,1,212,107,1,

153,89,1,211,106,1,

153,89,1,211,106,1,

152,89,1,210,105,1,

152,88,1,209,104,1,

150,88,1,207,103,1,

150,88,1,207,103,0,

148,87,1,206,103,1,

147,86,1,205,103,1,

147,86,1,204,102,1,

146,88,1,203,102,1,

145,88,1,203,102,1,

145,87,1,201,101,1,

144,87,1,199,100,1,

143,87,1,199,100,1,

143,86,1,199,99,1,

142,86,1,198,99,1,

141,85,1,197,99,1,

141,85,1,196,98,1,

140,84,1,195,98,1,

139,83,1,194,97,1,

139,83,1,194,97,1,

138,83,1,193,96,1,

137,83,1,192,96,1,

135,82,1,192,96,1,

