
21,7,7,71,7,7,

21,7,7,71,9,7,

21,7,7,71,8,7,

21,7,7,71,7,7,

21,7,6,71,8,7,

22,7,7,71,9,7,

22,7,7,71,9,7,

22,7,7,70,9,7,

22,7,7,70,8,7,

21,7,7,70,9,7,

21,7,7,69,9,7,

22,7,7,69,9,7,

21,7,7,69,9,7,

21,7,7,68,8,7,

21,7,7,69,8,6,

21,7,7,67,8,7,

21,7,7,68,9,7,

21,7,7,67,9,7,

21,7,7,67,7,7,

21,7,7,67,7,7,

21,7,7,67,7,7,

21,7,7,66,8,7,

21,7,7,66,8,7,

21,7,7,66,7,7,

20,7,7,65,8,7,

20,7,7,66,7,7,

21,7,7,65,9,7,

20,7,7,65,8,7,

20,7,7,65,8,7,

19,7,7,65,7,7,

20,7,7,64,9,7,

19,7,7,63,7,7,

19,7,7,64,8,6,

19,7,7,63,8,7,

19,7,7,63,7,7,

19,7,6,63,7,7,

19,7,7,63,7,7,

19,7,7,63,7,7,

19,7,7,63,7,7,

19,7,7,63,7,7,

19,7,7,62,8,7,

19,7,7,62,8,7,

19,7,7,62,8,7,

19,7,7,61,8,6,

19,7,7,61,7,7,

19,7,7,61,9,7,

18,7,7,61,7,7,

30,7,7,60,7,7,

33,7,7,61,8,7,

33,7,7,60,9,7,

33,7,7,60,8,6,

33,7,7,60,9,7,

32,7,7,59,8,7,

33,7,7,59,8,7,

32,7,7,59,8,7,

31,7,7,59,7,7,

31,7,7,58,8,7,

31,7,7,58,9,7,

31,7,7,58,8,7,

31,7,6,57,8,7,

31,7,7,58,8,7,

31,7,7,57,7,7,

31,7,6,57,8,6,

31,7,7,57,9,7,

31,7,7,57,10,6,

31,7,7,57,9,7,

30,7,7,56,10,7,

30,7,7,56,9,7,

30,7,7,56,9,7,

30,7,7,56,9,7,

30,7,7,56,9,7,

30,7,7,56,10,7,

30,7,7,56,10,7,

30,7,7,55,9,7,

30,7,7,54,9,7,

29,7,7,55,10,7,

30,7,7,55,10,7,

30,7,7,54,10,7,

30,7,7,54,10,7,

29,7,7,54,9,7,

29,7,7,53,9,7,

29,7,7,53,10,7,

29,7,6,53,9,7,

29,7,7,53,9,7,

29,7,7,53,9,7,

29,7,7,52,9,7,

29,7,7,52,9,6,

28,7,7,51,9,7,

28,7,7,52,9,7,

28,7,7,51,9,6,

29,7,7,51,9,7,

28,7,7,52,9,7,

28,7,7,51,10,7,

28,7,7,51,9,7,

28,7,7,51,9,7,

28,7,7,51,9,7,

27,7,7,51,9,6,

27,7,7,50,9,7,

28,7,7,50,9,7,

27,7,7,50,9,7,

27,7,7,50,10,7,

27,7,7,49,9,7,

27,7,7,49,9,7,

27,7,7,49,9,7,

26,7,7,49,9,7,

31,7,7,49,9,7,

42,7,7,49,9,7,

42,7,7,48,9,7,

41,7,7,48,9,7,

41,7,7,48,9,7,

41,7,7,48,8,7,

41,7,7,48,9,7,

41,7,7,48,9,7,

40,7,7,48,9,7,

39,7,7,48,9,7,

39,7,7,47,9,7,

39,7,7,47,9,7,

39,7,7,47,9,7,

39,7,7,47,8,7,

39,7,7,46,9,7,

39,7,7,47,9,6,

39,7,7,47,9,7,

39,7,7,46,9,7,

39,7,7,46,9,7,

38,7,7,46,9,7,

39,7,7,45,9,7,

39,7,7,46,9,7,

38,7,7,45,9,7,

38,7,7,45,9,7,

38,7,7,45,9,7,

37,7,7,45,9,7,

37,7,7,45,9,7,

37,7,7,45,8,7,

37,7,7,44,7,7,

37,7,7,45,9,7,

37,7,7,44,9,7,

37,7,7,44,9,7,

37,7,7,44,10,7,

37,7,7,49,10,7,

36,7,7,49,9,7,

36,7,7,48,9,7,

35,7,7,49,9,7,

35,7,7,48,9,7,

35,7,7,48,9,7,

35,7,7,48,9,7,

35,7,7,48,9,7,

35,7,7,47,9,7,

35,7,7,47,9,7,

35,7,7,47,9,7,

35,7,7,47,9,7,

35,7,7,47,9,7,

35,7,7,47,9,7,

35,7,7,47,9,7,

35,7,7,46,9,7,

34,7,7,46,9,7,

34,7,7,45,9,7,

34,7,7,46,9,7,

34,7,7,45,9,7,

33,7,7,45,9,7,

34,7,7,45,9,7,

34,7,7,45,9,7,

33,7,7,44,8,7,

33,7,7,44,10,7,

33,7,7,44,9,7,

33,7,7,44,9,7,

33,7,7,45,9,7,

33,7,7,44,8,7,

33,7,7,44,9,7,

33,7,6,44,9,7,

33,7,7,44,9,7,

32,7,7,43,8,7,

32,7,7,43,9,7,

31,7,7,43,9,7,

32,7,7,43,9,7,

31,7,7,43,9,7,

31,7,7,43,8,7,

31,7,7,43,8,7,

31,7,6,42,9,7,

31,7,7,42,9,7,

31,7,7,42,9,7,

31,7,7,41,7,7,

31,7,7,42,9,7,

31,7,7,41,9,7,

30,7,7,41,9,7,

31,7,7,42,8,7,

31,7,7,41,7,7,

30,7,7,40,8,7,

30,7,7,41,9,7,

30,7,7,41,9,6,

30,7,7,39,7,7,

30,7,6,40,9,7,

30,7,7,39,9,7,

30,7,7,39,9,7,

30,7,7,39,8,7,

30,7,7,39,7,7,

29,7,7,39,7,7,

30,7,7,39,9,6,

29,7,7,39,9,7,

29,7,7,39,9,7,

29,7,7,39,9,7,

29,7,7,39,9,7,

29,7,7,39,7,7,

28,7,7,38,9,7,

29,7,7,39,8,7,

29,7,7,38,8,7,

28,7,7,38,9,7,

28,7,7,38,9,7,

28,7,7,38,8,7,

28,7,7,38,8,7,

28,7,7,38,9,7,

28,7,7,37,7,7,

28,7,7,37,9,7,

28,7,6,37,7,7,

28,7,7,52,8,7,

27,7,6,52,8,7,

27,7,7,51,9,7,

28,7,7,51,8,7,

27,7,7,51,8,7,

27,7,7,51,8,7,

27,7,7,50,7,7,

27,7,7,51,7,7,

27,7,7,51,9,7,

27,7,7,51,7,6,

27,7,7,50,7,7,

26,7,7,50,9,7,

27,7,7,50,8,7,

26,7,7,49,8,7,

26,7,7,64,8,7,

26,7,7,68,7,7,

26,7,7,67,7,6,

26,7,7,67,7,7,

25,7,7,67,7,7,

26,7,7,66,7,7,

25,7,7,66,7,7,

25,7,7,66,7,7,

25,7,7,66,7,7,

25,7,7,66,7,6,

25,7,7,66,10,7,

25,7,7,65,25,7,

25,7,7,65,28,7,

25,7,7,65,27,7,

25,7,7,63,27,7,

25,7,7,64,27,7,

24,7,7,63,27,7,

25,7,7,63,26,7,

24,7,7,63,26,7,

24,7,7,63,26,7,

25,7,7,62,25,7,

24,7,7,63,25,7,

24,7,7,62,25,7,

24,7,7,62,25,7,

24,7,7,61,25,7,

24,7,7,62,25,7,

25,7,6,61,25,7,

25,7,7,61,25,7,

24,7,7,60,25,7,

25,7,7,60,24,7,

24,7,7,60,25,7,

24,7,7,60,25,6,

24,7,7,59,24,7,

24,7,7,59,24,7,

24,7,7,59,24,7,

24,7,7,59,24,7,

24,7,7,59,24,7,

24,6,7,58,24,7,

24,7,7,58,24,7,

24,7,7,58,24,7,

24,7,7,58,24,7,

24,7,7,57,24,7,

24,7,7,58,24,7,

24,7,7,57,23,7,

23,7,7,57,24,7,

23,7,7,57,23,7,

23,7,7,57,24,7,

22,7,6,56,23,7,

22,7,7,56,23,7,

23,7,7,56,23,7,

23,7,7,56,22,7,

23,7,7,56,23,7,

24,7,7,56,23,7,

23,7,7,55,23,7,

23,7,7,55,22,7,

23,7,7,55,23,7,

23,7,7,55,22,7,

23,7,7,54,22,7,

23,7,7,54,22,7,

22,7,7,54,22,7,

22,8,7,54,22,7,

22,7,7,54,22,7,

22,7,7,53,22,7,

22,7,7,53,22,7,

22,7,7,53,21,7,

21,7,7,53,22,7,

24,7,7,52,21,7,

24,7,7,52,21,7,

24,7,7,53,22,7,

24,7,7,51,21,7,

24,7,7,51,21,7,

24,7,7,51,21,7,

24,7,7,51,21,7,

23,7,7,51,21,7,

23,7,7,51,21,7,

23,7,7,51,20,7,

24,7,7,51,21,7,

22,7,7,51,21,7,

22,7,7,50,21,7,

23,7,7,50,21,7,

23,7,7,49,21,7,

22,7,7,50,21,7,

22,7,7,49,21,7,

22,7,7,50,20,7,

22,8,7,49,20,7,

22,8,7,49,20,7,

22,9,7,49,20,7,

22,8,7,49,19,7,

22,7,7,48,20,7,

22,8,7,48,19,7,

21,7,7,48,20,7,

22,7,7,48,19,7,

21,9,7,48,24,7,

29,9,7,48,25,7,

31,9,7,47,26,7,

30,9,7,47,25,7,

30,8,7,47,25,7,

30,8,7,47,25,7,

29,7,7,47,25,7,

30,8,7,46,25,7,

29,9,7,46,25,7,

29,9,7,46,25,7,

29,9,7,46,25,7,

29,8,7,46,25,7,

29,8,7,45,25,7,

29,9,7,45,24,7,

38,9,7,45,25,7,

44,9,7,45,25,7,

44,9,7,45,25,7,

43,9,7,44,24,7,

43,9,7,44,24,7,

43,8,7,44,24,7,

43,9,7,44,24,7,

42,9,7,44,24,7,

43,9,7,43,24,7,

42,9,7,44,24,7,

41,9,7,44,24,7,

42,9,7,44,24,7,

41,9,7,44,24,7,

41,9,7,43,24,7,

41,9,7,43,24,7,

41,9,7,43,23,7,

41,8,7,42,23,7,

40,8,7,42,23,7,

39,11,7,42,23,7,

39,12,7,42,24,7,

39,14,7,42,23,7,

39,14,7,42,22,7,

39,14,7,41,23,7,

39,14,7,41,22,7,

39,14,7,41,23,7,

39,14,7,41,22,7,

39,14,7,41,22,7,

39,14,7,41,22,7,

38,14,7,41,22,7,

39,14,7,41,22,7,

39,14,7,39,22,7,

39,13,7,39,21,7,

39,13,7,39,22,7,

38,13,7,39,21,7,

38,13,7,39,21,7,

38,13,7,39,21,7,

38,13,7,39,21,7,

38,13,7,39,21,7,

37,13,7,39,21,7,

37,13,7,39,21,7,

37,13,7,39,21,7,

37,13,7,39,20,7,

37,13,7,38,21,7,

37,13,7,38,20,7,

36,13,7,38,21,7,

36,13,7,38,20,7,

36,13,7,38,20,7,

35,13,7,38,20,7,

36,13,7,38,20,7,

35,13,7,37,20,7,

35,13,7,37,19,7,

35,13,7,37,20,7,

35,13,7,37,19,7,

35,13,7,37,19,7,

35,13,7,37,19,7,

35,13,7,36,19,7,

34,13,7,36,19,7,

35,12,7,36,19,7,

34,13,7,36,19,7,

35,12,7,37,19,7,

34,13,7,37,19,7,

33,13,7,36,19,7,

34,12,7,36,19,7,

34,13,7,35,19,7,

33,13,7,35,19,7,

33,12,7,36,19,7,

34,13,7,36,19,7,

39,13,7,35,20,7,

39,12,7,35,19,7,

39,13,7,35,19,7,

39,13,7,35,19,7,

39,13,7,35,19,7,

38,13,7,35,19,7,

38,13,7,35,19,7,

38,13,7,35,19,7,

38,13,7,35,19,7,

38,13,7,35,19,7,

37,13,7,35,19,7,

38,13,7,34,19,7,

37,13,7,35,18,7,

37,13,7,35,18,7,

37,13,7,34,21,7,

36,13,7,33,20,7,

36,13,7,34,20,7,

36,13,7,34,20,8,

36,14,7,34,19,7,

36,14,7,34,20,7,

35,14,7,33,20,8,

35,14,7,33,19,7,

35,14,7,33,20,7,

35,14,8,33,19,9,

36,14,9,103,30,7,

35,14,9,102,30,9,

38,14,9,101,30,7,

39,14,9,101,30,9,

39,15,9,100,29,9,

39,21,9,99,30,9,

39,23,10,99,29,9,

38,23,10,99,30,9,

38,23,9,98,29,9,

38,22,10,98,29,10,

38,22,10,97,29,10,

38,22,10,97,28,10,

38,22,10,96,29,11,

37,22,11,96,36,11,

38,22,11,96,36,11,

38,22,11,95,37,11,

39,23,11,94,36,11,

38,25,11,94,36,11,

38,25,11,94,35,11,

38,25,12,93,35,12,

38,24,11,93,35,12,

38,24,12,92,35,12,

37,25,12,92,35,12,

37,24,12,92,35,12,

37,24,12,91,35,12,

37,24,12,91,35,12,

55,25,12,90,35,12,

67,24,13,90,34,12,

67,24,12,89,34,12,

66,24,13,89,33,12,

66,26,12,89,33,12,

65,26,12,88,33,12,

65,26,12,88,33,12,

65,25,12,88,33,13,

65,25,13,87,33,12,

63,25,12,87,33,12,

63,25,13,86,33,12,

63,25,12,86,33,13,

63,25,12,85,35,13,

63,25,13,85,35,13,

63,27,13,85,35,13,

63,28,13,84,35,13,

62,28,13,84,35,12,

61,29,13,83,34,13,

61,28,13,83,34,12,

61,28,13,83,33,13,

61,28,13,83,33,13,

61,27,12,82,37,13,

60,28,13,81,37,13,

60,28,13,81,37,13,

60,28,12,81,37,13,

60,27,13,81,36,12,

59,27,13,80,37,13,

59,28,13,79,36,12,

58,27,13,79,36,13,

58,27,13,79,35,13,

58,27,13,79,35,13,

58,27,13,79,35,12,

57,27,13,78,35,13,

57,27,13,78,35,13,

57,27,13,77,35,12,

57,27,13,77,35,12,

57,26,13,77,35,13,

56,26,13,77,35,12,

56,26,13,76,35,13,

56,26,14,77,35,13,

56,26,13,76,35,13,

56,27,13,76,34,13,

56,27,13,76,34,13,

56,26,13,75,34,13,

55,26,13,75,34,14,

55,26,13,75,34,13,

56,26,14,75,34,14,

110,29,14,74,35,14,

110,30,14,74,35,15,

109,30,15,74,35,15,

108,31,15,73,35,16,

108,30,16,73,35,17,

107,30,17,73,35,17,
106,30,18,71,34,18,

105,30,19,71,34,19,

105,30,19,71,35,19,

103,30,19,71,37,20,

103,30,21,71,36,21,

103,30,22,70,36,22,

105,43,22,71,36,21,

103,44,22,70,36,22,

103,44,23,69,35,23,

103,44,23,70,35,23,

103,44,24,69,35,24,

102,4,24,69,35,24,

102,43,24,68,35,24,

101,44,25,67,35,24,

100,43,25,68,54,25,

99,43,25,68,55,25,

100,43,25,67,54,26,

99,43,25,124,54,25,

99,42,25,127,53,25,

98,48,25,126,53,26,

98,51,25,125,52,25,

97,51,26,124,52,26,

96,51,26,124,52,26,

96,51,26,123,52,26,

96,51,26,123,52,2,

96,50,26,122,57,27,

95,50,26,121,57,26,

94,50,26,120,57,27,

94,50,26,120,57,27,

94,49,26,122,63,27,

93,49,26,121,63,26,

93,48,26,121,63,26,

92,49,27,121,62,26,

92,48,26,120,61,26,

91,48,26,119,62,26,

91,48,26,119,61,26,

91,48,26,118,61,26,

90,47,26,118,60,26,

90,47,26,117,60,26,

96,48,25,116,60,26,

96,48,26,115,59,26,

95,48,25,115,59,25,

94,48,25,115,59,26,

94,47,25,114,59,25,

93,48,25,113,58,25,

93,47,25,113,58,25,

92,47,25,112,57,25,

92,46,25,112,57,25,

92,46,25,111,57,25,

91,46,25,112,57,25,

91,46,25,110,58,25,

90,46,25,110,59,25,

90,46,24,110,59,25,

89,46,25,109,59,25,

89,46,24,108,58,24,

89,45,24,108,57,24,

88,45,24,107,57,24,

88,45,24,107,57,24,

88,44,24,106,57,24,

87,45,24,106,56,24,

86,44,24,105,56,24,

86,44,23,105,59,24,

86,44,23,105,59,24,

85,44,24,103,59,24,

85,44,23,103,58,23,

84,43,23,103,58,23,

84,43,24,103,58,24,

83,43,23,102,57,24,

83,43,23,102,57,22,

83,43,22,101,57,22,

82,42,23,101,56,23,

82,42,22,100,56,22,

82,42,22,99,56,23,

82,42,22,99,56,22,

81,42,22,99,55,22,

80,41,22,98,55,22,

80,41,22,98,55,22,

79,41,21,98,54,22,

79,41,22,97,54,22,

79,40,21,97,54,21,

79,39,21,96,54,21,

78,40,21,96,53,21,

78,39,21,96,54,21,

78,39,21,95,53,21,

77,39,21,95,53,21,

77,39,20,95,53,21,

77,39,21,94,53,21,

76,39,21,94,52,21,

76,39,20,94,52,21,

76,39,20,97,51,20,

75,38,20,96,51,20,

75,39,20,96,51,20,

75,38,19,96,51,20,

75,39,19,95,51,20,

74,38,20,95,51,19,

74,38,20,95,50,19,

74,37,20,94,50,20,

73,37,19,94,50,19,

73,37,19,94,49,19,

73,37,19,93,49,19,

71,37,19,92,49,19,

71,37,19,92,49,19,

71,36,19,92,48,19,

71,36,19,91,48,19,

71,36,19,90,48,19,

70,36,18,90,48,19,

71,36,19,90,48,19,

71,36,19,90,48,19,

89,35,19,89,48,19,

89,35,18,89,48,19,

88,35,18,88,48,18,

88,35,18,88,47,18,

88,35,18,88,47,18,

87,35,18,88,47,18,

87,35,18,88,47,18,

87,35,18,87,46,18,

86,34,17,86,46,18,

86,34,18,86,46,17,

85,34,18,86,46,18,

85,34,17,85,46,18,

84,34,17,86,46,18,

84,33,18,85,45,17,

83,33,17,83,45,18,

83,33,17,83,45,17,

83,33,17,83,45,17,

82,33,17,83,44,17,

82,33,17,83,44,17,

82,33,17,82,44,17,

81,32,16,82,44,17,

81,32,17,81,44,17,

80,31,17,81,43,16,

79,31,16,81,44,17,

79,31,16,81,44,17,

79,31,16,80,43,16,

79,31,16,80,43,16,

79,31,16,79,42,17,

78,31,17,79,42,16,

78,31,16,79,42,16,

78,31,16,79,42,16,

77,31,16,78,42,16,

77,31,16,78,41,15,

77,30,16,78,41,15,

76,30,15,77,41,16,

76,30,16,77,41,16,

76,30,15,77,41,15,

75,30,15,77,41,16,

75,30,16,76,39,16,

74,30,15,76,39,15,

74,30,15,76,39,15,

74,30,15,75,39,15,

73,29,15,75,39,15,

73,29,15,75,39,15,

73,29,15,75,39,15,

71,29,15,74,39,15,

71,29,15,74,39,15,

71,29,15,74,39,15,

71,28,15,73,39,15,

71,28,15,73,38,15,

71,28,15,73,38,15,

70,28,14,72,38,15,

70,28,15,71,38,14,

70,28,15,71,38,15,

70,28,14,71,38,14,

69,28,14,71,37,14,

69,27,14,71,37,14,

68,28,14,71,37,14,

68,27,14,71,37,15,

68,27,14,70,37,15,

67,27,14,70,36,14,

67,27,14,69,36,14,

67,27,14,69,36,14,

67,27,14,69,36,14,

67,27,14,68,35,14,

66,26,14,68,35,14,

66,25,14,68,35,14,

65,25,14,67,35,14,

66,26,13,67,35,14,

65,26,14,67,35,14,

65,26,13,67,35,13,

65,25,14,67,35,14,

65,26,14,83,35,14,

64,26,14,91,35,14,

63,26,13,90,35,13,

63,26,14,89,34,13,

63,25,13,89,35,13,

63,25,13,88,34,13,

63,25,13,88,34,13,

62,25,13,88,34,13,

62,25,13,87,34,13,

62,25,13,87,33,13,

62,25,13,87,33,13,

61,24,13,86,33,13,

61,25,13,85,33,13,

61,25,13,85,33,13,

60,26,13,85,33,13,

60,26,13,84,32,13,

60,25,12,84,32,13,

60,25,13,83,31,12,

59,25,12,83,32,13,

59,25,12,83,31,12,

59,25,13,83,31,12,

58,25,13,81,31,12,

59,25,13,81,31,13,

58,25,13,81,31,12,

58,24,12,81,31,12,

58,25,13,80,31,12,

57,24,12,80,31,12,

57,24,12,80,31,12,

57,24,12,79,31,12,

57,24,12,79,31,12,

57,24,12,79,30,12,

56,24,12,79,30,12,

56,24,12,78,30,12,

56,24,12,78,30,12,

56,24,12,77,30,12,

56,23,12,77,30,12,

56,24,12,77,29,12,

55,24,12,77,29,12,

54,23,12,76,30,12,

54,23,12,76,30,11,

54,23,12,76,29,12,

54,23,12,75,29,12,

54,22,12,75,29,11,

53,23,11,74,29,11,

53,22,11,74,29,12,

53,22,12,73,29,12,

53,22,11,73,29,11,

53,22,11,73,29,11,

52,22,12,73,28,11,

52,22,12,71,28,11,

51,22,11,71,28,11,

51,21,11,71,28,11,

51,21,11,71,28,12,

51,21,11,71,28,11,

51,21,12,71,27,11,

51,21,12,70,28,11,

50,21,11,70,27,11,

50,21,11,70,28,11,

50,22,11,69,27,11,

49,20,11,69,28,11,

50,21,11,69,27,11,

49,21,11,68,27,11,

49,20,10,68,27,11,

49,20,11,68,27,11,

48,20,11,68,26,11,

48,21,11,67,27,11,

48,20,11,67,26,11,

48,21,11,67,26,11,

48,20,11,66,26,11,

48,20,11,67,26,10,

48,19,11,66,26,11,

47,20,11,65,25,11,

48,19,11,66,25,11,

47,19,11,65,25,10,

46,19,10,65,25,11,

46,20,10,65,25,10,

46,19,10,64,25,10,

46,19,11,63,25,11,

45,19,10,63,24,11,

46,19,11,63,25,11,

46,19,10,63,24,10,

45,19,10,63,25,11,

46,19,10,63,25,10,

45,19,11,63,24,10,

45,18,10,63,24,10,

45,19,11,62,24,10,

44,19,11,62,24,10,

44,19,10,62,24,10,

44,18,10,61,24,10,

44,18,10,61,24,10,

43,18,10,61,24,10,

43,18,10,61,23,10,

43,18,10,60,25,10,

43,18,10,60,25,10,

43,18,10,60,25,10,

42,18,10,60,25,10,

42,18,9,60,25,10,

42,18,10,59,25,10,

42,18,10,59,25,10,

42,17,9,59,25,10,

41,17,9,59,24,9,

42,18,10,59,24,9,

41,17,10,58,24,10,

41,18,10,58,24,10,

41,17,10,58,24,10,

41,17,10,57,24,10,

40,17,10,57,24,10,

41,17,10,57,24,9,

40,17,10,57,24,9,

40,16,10,56,24,9,

39,16,9,56,24,10,

39,17,9,56,24,10,

39,17,10,56,24,9,

39,17,9,56,24,9,

39,16,9,55,23,9,

39,15,9,54,22,9,

51,15,9,55,22,9,

88,15,9,55,25,9,

88,15,9,54,24,9,

86,15,9,54,24,9,

86,15,9,54,24,9,

86,15,9,54,24,9,

85,16,9,53,23,9,

85,15,9,53,24,9,

84,15,9,53,23,9,

83,15,8,52,24,9,

83,15,9,52,24,9,

83,15,9,52,24,9,

83,15,9,52,23,9,

82,15,9,51,23,9,

82,15,9,51,23,9,

82,15,9,51,23,9,

81,14,9,51,22,9,

81,15,8,51,23,9,

80,15,9,51,22,9,

80,15,9,51,22,8,

79,15,9,50,23,7,

79,15,8,50,22,9,

79,14,9,50,22,7,

79,15,7,50,21,8,

78,14,7,50,22,9,

78,14,9,50,21,7,

78,14,9,49,22,9,

77,14,9,49,22,9,

77,14,8,49,21,7,

77,14,9,48,21,8,

77,14,9,49,21,9,

76,14,8,49,21,8,

76,14,9,48,21,8,

76,14,8,48,21,9,

76,14,8,48,21,7,

75,14,8,47,21,9,

75,14,8,48,20,7,

75,14,8,48,20,7,

74,14,9,48,20,9,

73,14,7,47,20,8,

73,14,7,47,20,8,

73,14,8,47,20,8,

73,13,7,46,20,8,

71,13,7,46,20,7,

71,13,7,46,19,8,

71,13,7,46,19,7,

71,13,7,46,19,7,

71,13,7,46,19,7,

71,13,8,45,19,7,

71,13,9,45,20,9,

71,13,7,45,19,8,

70,13,7,45,19,7,

70,13,8,45,19,9,

69,13,9,45,19,9,

69,13,8,45,19,8,

69,12,8,44,19,8,

69,13,7,44,19,7,

68,13,9,44,19,8,

68,13,7,44,19,8,

67,13,7,43,19,7,

67,13,8,44,19,7,

67,13,9,43,19,8,

67,13,7,43,19,7,

67,12,9,43,19,8,

66,12,8,43,19,7,

66,13,8,43,19,9,

66,12,8,43,18,7,

65,12,7,42,18,7,

65,12,7,42,18,7,

65,12,8,42,18,7,

65,12,7,42,18,7,

64,12,8,42,18,8,

64,12,7,41,18,7,

64,12,7,41,17,8,

63,12,7,41,18,7,

63,12,7,41,18,7,

63,12,7,41,17,8,

63,12,8,41,18,8,

62,12,8,40,17,7,

62,12,7,41,17,7,

62,12,7,41,17,8,

62,12,7,39,17,8,

62,12,7,39,17,7,

61,12,8,39,17,7,

61,11,7,39,17,7,

61,12,7,39,18,7,

61,12,8,39,17,7,

60,12,7,39,17,7,

60,12,7,39,17,8,

60,11,8,39,17,7,

60,12,7,39,16,7,

60,12,7,38,17,7,

60,11,7,39,17,7,

59,11,7,39,16,7,

59,12,8,38,16,7,

59,11,8,38,16,7,

58,12,7,38,17,7,

58,12,7,38,16,7,

57,11,7,38,16,7,

57,11,7,38,16,7,

57,11,7,38,16,7,

57,11,7,37,16,7,

57,11,7,37,16,7,

57,11,7,37,16,7,

57,11,7,37,15,7,

56,11,7,37,16,7,

56,11,7,37,15,7,

56,11,7,37,16,7,

56,11,7,37,16,7,

55,11,7,36,15,7,

55,11,7,36,15,7,

56,11,9,85,16,9,

55,11,7,127,15,7,

54,11,7,125,15,7,

54,11,7,125,15,7,

54,11,7,124,15,8,

54,11,7,123,15,7,

53,11,7,123,15,7,

53,10,7,122,15,7,

53,11,7,121,15,7,

53,11,7,120,15,7,

53,11,7,120,15,7,

52,11,7,120,15,7,

53,10,7,119,15,7,

52,10,7,118,14,7,

51,10,7,118,14,7,

51,11,7,118,15,7,

51,10,7,117,15,7,

51,10,7,116,15,7,

50,10,7,115,14,7,

50,10,7,115,14,7,

50,10,7,115,15,7,

50,10,7,114,14,7,

50,10,7,114,14,7,

49,10,7,113,14,7,

50,10,7,113,14,7,

49,10,7,112,14,7,

49,10,7,112,14,7,

49,10,7,111,13,7,

49,10,7,111,14,7,

48,10,7,110,14,7,

48,10,7,110,14,7,

48,10,7,110,14,8,

48,9,7,109,14,7,

48,10,7,109,13,7,

47,9,7,108,14,7,

47,10,7,108,14,7,

47,10,7,108,13,7,

47,9,7,107,13,7,

47,9,7,106,13,7,

46,9,7,106,13,7,

46,9,7,105,13,7,

46,9,7,105,13,7,

46,9,7,105,13,7,

46,10,7,103,13,7,

46,10,7,103,13,7,

45,10,7,103,13,7,

45,9,7,103,13,7,

45,10,7,103,13,8,

45,9,7,102,13,7,

44,9,7,102,13,7,

44,10,7,101,13,7,

44,9,7,101,13,7,

44,9,7,101,13,7,

44,9,7,100,13,8,

44,9,7,99,12,7,

43,10,7,99,13,7,

43,9,7,99,13,7,

44,10,7,99,13,7,

43,10,7,98,12,7,

43,9,7,98,12,7,

43,9,7,97,13,7,

43,9,7,97,13,7,

43,9,7,97,13,7,

42,9,7,97,12,7,

41,9,7,96,12,7,

41,9,7,95,12,7,

41,9,7,95,12,7,

41,9,7,94,12,7,

41,9,7,94,12,7,

41,9,7,94,12,7,

41,9,7,94,12,7,

41,9,7,93,12,7,

40,9,7,93,12,7,

39,8,7,93,11,7,

39,7,7,92,11,7,

39,9,7,92,12,7,

39,8,7,91,12,7,

39,8,7,91,12,7,

39,9,7,91,12,7,

39,9,7,91,12,7,

39,9,7,91,11,7,

39,8,7,90,12,7,

39,9,7,89,12,7,

39,9,7,89,11,7,

38,8,7,88,12,7,

39,8,7,88,12,7,

39,7,7,88,12,7,

38,8,7,88,12,7,

38,8,7,88,11,7,

38,9,7,88,11,7,

38,8,7,88,11,7,

38,9,7,86,11,7,

38,7,7,87,11,7,

37,9,7,86,11,7,

37,9,7,86,11,7,

37,9,7,86,11,7,

37,9,7,86,11,7,

37,9,7,85,11,7,

37,9,7,84,11,7,

37,9,7,84,11,7,

36,9,7,83,11,7,

36,9,7,83,11,7,

36,9,7,83,11,7,

36,9,7,82,10,7,

36,9,7,83,11,7,

35,9,7,82,11,7,

35,9,7,82,11,7,

35,9,7,82,11,7,

35,9,7,81,11,7,

35,9,7,81,11,7,

35,9,7,81,10,7,

35,9,7,81,11,7,

35,9,7,80,11,7,

35,9,7,80,10,7,

34,9,7,79,10,7,

34,9,7,79,10,7,

34,9,7,79,11,7,

34,9,7,78,11,7,

34,9,7,79,10,7,

34,9,7,78,12,7,

34,9,7,78,10,7,

34,9,7,78,10,7,

33,9,7,78,10,7,

33,9,7,77,10,7,

33,9,7,77,11,7,

33,9,7,77,10,7,

33,9,7,76,10,7,

33,14,7,76,11,7,

32,17,7,76,10,7,

32,17,7,76,9,7,

33,16,7,76,10,7,

32,16,7,75,10,7,

33,16,7,75,10,7,

31,17,7,74,10,7,

31,16,7,74,10,7,

31,16,7,74,10,7,

31,16,7,73,10,7,

31,16,7,73,10,7,

31,16,7,73,10,7,

31,15,7,73,10,7,

31,16,7,71,10,7,

31,16,7,71,9,7,

31,15,7,71,10,7,

31,15,7,71,10,7,

31,15,7,71,10,7,

30,15,7,71,10,7,

30,15,7,71,10,7,

30,15,7,71,10,7,

30,15,7,70,9,7,

30,15,7,70,10,7,

30,15,7,70,10,7,

30,15,7,70,9,7,

30,15,7,69,10,7,

30,15,7,69,10,7,

29,15,7,69,9,7,

29,14,7,68,9,7,

29,14,7,68,9,7,

29,14,7,67,9,7,

29,14,7,67,9,7,

29,14,7,67,9,7,

28,14,7,67,9,7,

28,14,7,67,9,7,

28,14,7,66,9,7,

28,14,7,66,9,7,

28,14,7,66,9,7,

28,14,7,65,9,7,

28,14,7,66,9,7,

28,14,7,65,9,7,

27,14,7,65,9,7,

28,14,7,65,8,7,

28,13,7,65,9,7,

27,14,7,64,9,7,

27,13,7,63,9,7,

28,13,7,63,9,7,

27,13,7,63,9,7,

27,13,7,63,9,7,

27,13,7,63,10,7,

27,13,7,63,9,7,

26,13,7,63,9,7,

27,13,7,63,9,7,

26,13,7,62,9,7,

26,13,7,62,8,7,

26,12,7,61,8,7,

26,13,7,61,8,7,

26,13,7,62,9,7,

26,12,7,62,9,7,

27,13,7,62,9,7,

26,13,7,61,9,7,

26,13,7,60,9,7,

26,13,7,61,9,7,

25,13,7,61,9,7,

25,13,7,60,9,7,

25,14,7,60,9,7,

25,14,7,60,9,7,

26,15,7,60,9,7,

30,27,7,60,9,7,

29,26,7,59,9,7,

29,26,7,59,9,7,

29,25,7,59,9,7,

29,25,7,59,9,7,

29,26,7,59,9,7,

29,25,7,58,9,7,

28,25,7,57,9,7,

28,25,7,57,8,7,

28,25,7,57,9,7,

28,25,7,57,9,7,

28,25,7,57,9,7,

28,25,7,57,9,7,

28,25,7,57,9,7,

28,24,7,56,8,7,

28,24,7,56,9,7,

28,25,7,56,9,7,

27,24,7,56,9,7,

28,24,7,56,8,7,

27,24,7,56,8,7,

27,24,7,56,8,7,

27,24,7,55,9,7,

27,24,7,55,8,7,

27,24,7,54,8,7,

26,24,7,55,9,7,

26,26,7,54,9,7,

26,26,7,55,9,7,

26,26,7,54,8,7,

27,26,7,54,10,7,

26,25,7,53,9,7,

25,26,7,54,8,7,

26,26,7,53,9,7,

25,25,7,53,7,7,

25,25,7,53,7,7,

25,26,7,53,9,7,

25,25,7,53,7,7,

25,25,7,52,8,7,

25,25,7,52,9,7,

25,25,7,51,8,7,

25,24,7,51,7,7,

25,25,7,51,7,7,

25,24,7,51,9,7,

25,25,7,51,9,7,

25,24,7,51,8,7,

25,24,7,51,7,7,

24,24,7,51,7,7,

24,24,7,50,8,7,

25,24,7,50,8,7,

24,24,7,50,8,7,

24,24,7,50,8,7,

24,24,7,50,9,7,

24,24,7,50,8,7,

24,23,7,50,7,7,

24,24,7,49,7,7,

24,24,7,49,8,7,

24,24,7,49,8,7,

23,23,7,49,7,7,

24,23,7,49,7,7,

24,24,7,48,7,7,

24,23,7,48,7,7,

23,23,7,48,8,7,

23,23,7,48,7,7,

23,22,7,48,8,7,

23,23,7,48,9,7,

23,24,7,47,7,7,

23,24,7,47,8,7,

23,24,7,47,8,7,

22,24,7,47,7,7,

22,24,7,46,8,7,

22,24,7,47,7,7,

22,24,7,46,7,7,

22,24,7,47,7,7,

23,28,7,46,8,7,

22,47,7,46,8,7,

21,47,7,45,7,7,

22,46,7,46,7,7,

22,46,7,46,8,7,

22,46,7,45,8,7,

21,45,7,45,7,7,

21,45,7,45,7,7,

22,45,7,45,7,7,

21,45,7,44,8,7,

21,45,7,45,7,7,

21,45,7,44,8,7,

22,44,7,44,7,7,

22,44,7,44,7,7,

22,44,7,44,7,7,

22,44,7,43,7,7,

22,43,7,44,7,7,

21,43,7,44,7,7,

22,43,7,44,8,7,

21,43,7,43,7,7,

21,43,7,43,7,7,

21,43,7,43,7,7,

22,43,7,43,7,7,

21,42,7,43,7,7,

21,42,7,43,12,7,

21,41,7,42,23,7,

21,42,7,42,24,7,

21,42,7,42,23,7,

21,41,7,42,23,7,

20,44,7,42,23,7,

20,44,7,41,22,7,

20,44,7,41,22,7,

21,44,7,41,22,7,

20,43,7,41,22,7,

20,43,7,41,22,7,

20,43,7,39,22,7,

19,43,7,41,22,7,

20,43,7,39,22,7,

35,44,7,41,22,7,

43,69,7,39,21,7,

42,81,7,39,22,7,

42,79,7,39,21,7,

41,79,7,39,21,7,

41,79,7,39,21,7,

41,79,7,39,21,7,

41,78,7,39,20,7,

39,78,7,39,21,7,

39,77,7,39,21,7,

39,77,7,39,21,7,

39,77,7,39,20,7,

39,76,7,39,21,7,

39,76,7,39,20,7,

39,76,7,38,20,7,

39,76,7,39,20,7,

39,75,7,38,20,7,

39,75,7,38,20,7,

39,74,7,38,20,7,

38,74,7,37,20,7,

39,73,7,37,19,7,

38,73,7,38,20,7,

38,73,7,37,19,7,

38,71,7,37,19,7,

38,72,7,37,19,7,

38,71,7,36,19,7,

37,71,7,37,19,7,

37,71,7,36,19,7,

37,76,7,37,20,7,

37,76,7,37,19,7,

37,76,7,36,19,7,

37,76,7,37,19,7,

36,75,7,37,19,7,

36,75,7,36,19,7,

36,74,7,35,19,7,

36,74,7,36,19,7,

35,73,7,37,19,7,

35,73,7,37,19,7,

36,73,7,37,19,7,

35,73,7,36,19,7,

35,71,7,36,18,7,

35,71,7,36,18,7,

35,71,7,36,19,7,

35,71,7,36,18,7,

34,71,7,36,18,7,

35,71,7,35,18,7,

34,71,7,35,18,7,

34,70,7,35,18,7,

34,70,7,35,18,7,

34,69,7,35,18,7,

34,69,7,35,18,7,

63,69,7,35,18,7,

71,69,7,35,18,7,

71,68,7,34,18,7,

71,68,7,37,18,7,

71,68,7,48,18,7,

71,67,7,48,17,7,

71,68,7,47,17,7,

69,67,7,48,17,8,

70,67,7,47,17,7,

69,66,7,47,17,7,

69,66,7,47,17,7,

69,66,7,47,17,7,

68,66,7,46,17,7,

68,65,7,46,17,7,

67,65,7,46,17,7,

67,65,7,46,17,7,

67,74,7,46,16,7,

66,76,7,45,16,7,

67,76,7,45,17,7,

66,75,7,45,17,7,

66,75,7,44,16,7,

65,74,7,44,16,7,

65,73,7,44,17,7,

65,73,7,44,16,7,

65,73,7,44,15,7,

64,72,7,43,16,7,

65,73,7,44,16,7,

64,71,7,43,15,7,

64,71,7,43,15,7,

63,71,7,43,16,7,

63,71,7,43,16,7,

63,71,7,43,15,7,

63,71,7,42,15,7,

63,70,7,42,15,7,

62,70,7,42,15,7,

62,70,7,61,15,7,

62,69,7,60,15,7,

62,69,7,60,15,7,

61,69,7,59,15,7,

62,68,7,59,15,7,

61,68,7,59,15,7,

61,68,7,58,15,7,

60,68,7,58,15,7,

60,67,7,57,15,7,

60,67,7,58,15,7,

59,67,7,57,15,7,

59,67,7,57,15,7,

59,66,7,59,15,7,

59,66,7,59,15,7,

59,65,7,59,14,7,

58,65,7,59,14,7,

57,65,7,59,14,7,

58,64,7,58,15,7,

58,64,7,58,16,7,

57,64,7,57,16,7,

57,63,7,57,16,7,

57,63,7,57,16,7,

57,63,7,57,16,7,

56,63,7,57,15,7,

56,63,7,57,16,7,

56,63,7,56,16,7,

56,62,7,56,15,7,

55,62,7,56,16,7,

55,62,7,55,15,7,

56,62,7,55,16,7,

55,61,7,55,15,7,

65,62,7,56,15,7,

66,61,7,55,15,7,

66,61,7,55,15,7,

65,61,7,54,15,7,

65,61,7,54,15,7,

63,60,7,54,15,7,

64,61,7,53,15,7,

63,60,7,53,15,7,

63,60,7,52,14,7,

63,59,7,52,15,7,

63,59,7,52,14,7,

63,59,7,52,15,7,

62,59,7,52,15,7,

62,59,7,52,18,7,

62,58,7,51,18,7,

62,57,7,51,18,7,

62,58,7,51,18,7,

62,57,7,50,18,7,

61,57,7,51,17,7,

61,57,7,51,17,7,

60,56,7,51,17,7,

60,56,7,50,17,7,

60,56,7,50,17,7,

60,56,7,50,17,7,

59,56,7,50,17,7,

59,56,7,49,17,7,

60,56,7,49,18,7,

59,55,7,49,20,7,

59,59,7,49,20,7,

58,107,7,48,20,7,

57,105,7,48,19,7,

58,103,7,49,20,7,

57,103,7,54,19,7,

57,103,7,54,19,7,

57,103,7,53,19,7,

57,103,7,54,19,7,

56,101,7,53,19,7,

56,101,7,52,19,7,

56,100,7,52,19,7,

56,100,7,53,19,7,

56,99,7,52,19,7,

56,99,7,51,19,7,

55,99,7,51,19,7,

55,98,7,51,19,7,

54,98,7,51,18,7,

54,98,7,51,18,7,

53,97,7,51,18,7,

54,96,7,51,18,7,

53,96,7,50,19,7,

53,96,7,50,18,7,

53,96,7,50,17,7,

53,95,7,50,18,7,

53,95,7,49,29,7,

52,94,7,49,29,7,

52,94,7,49,28,7,

53,94,7,49,28,7,

51,93,7,48,28,7,

52,93,7,48,28,7,

52,92,7,48,28,7,

51,92,7,48,28,7,

51,91,7,48,27,7,

51,91,7,48,27,7,

51,91,7,47,27,7,

51,90,7,47,27,7,

50,90,7,47,27,7,

50,90,7,47,27,7,

50,89,7,47,27,7,

50,89,7,46,26,7,

50,88,7,47,27,7,

49,88,7,46,26,7,

49,88,7,46,26,7,

49,88,7,46,26,7,

48,88,7,46,25,7,

49,86,7,45,26,7,

48,87,7,45,26,7,

48,86,7,45,25,7,

48,85,7,45,25,7,

48,85,7,44,25,7,

48,85,7,45,25,7,

48,85,7,44,25,7,

48,84,7,44,25,7,

47,83,7,44,24,7,

47,83,7,44,24,7,

46,83,7,43,25,7,

46,83,7,44,25,7,

46,82,7,43,24,7,

46,82,7,43,24,7,

46,82,7,43,24,7,

46,81,7,43,24,7,

45,81,7,43,24,7,

45,81,7,43,24,7,

46,80,7,43,24,7,

46,80,7,43,24,7,

45,79,7,42,24,7,

45,79,7,41,24,7,

45,79,7,41,24,7,

45,79,7,41,24,7,

44,79,7,41,24,7,

44,78,7,45,23,7,

44,78,7,56,24,7,

44,78,7,54,23,7,

43,77,7,55,23,7,

44,77,7,54,23,7,

44,77,7,54,23,7,

44,76,7,53,23,7,

44,76,7,54,23,7,

43,76,7,84,22,7,

43,75,7,83,22,7,

43,75,7,83,22,7,

43,75,7,82,22,7,

42,75,7,82,22,7,

43,74,7,82,22,7,

42,75,7,81,22,7,

42,73,7,80,22,7,

41,73,7,80,22,7,

41,73,7,80,22,7,

41,73,7,79,23,7,

41,71,7,79,23,7,

61,71,7,79,23,7,

61,71,7,79,23,7,

61,71,7,78,23,7,

60,71,7,78,22,7,

60,71,7,78,22,7,

60,71,7,77,22,7,

60,71,7,77,22,7,

59,70,7,77,22,7,

59,70,7,76,22,7,

58,69,7,76,22,7,

58,69,7,76,21,7,

58,69,7,76,22,7,

58,69,7,75,22,7,

58,68,7,75,21,7,

58,68,7,75,21,7,

57,67,7,74,22,7,

57,68,7,73,21,7,

57,68,7,73,21,7,

57,67,7,73,21,7,

56,67,7,73,21,7,

57,67,7,73,21,7,

56,66,7,71,21,7,

56,66,7,71,20,7,

56,66,7,71,21,7,

55,66,7,71,20,7,

56,65,7,71,20,7,

56,65,7,71,20,7,

55,65,7,71,20,7,

55,66,7,71,20,7,

55,65,7,70,20,7,

54,64,7,70,20,7,

54,64,7,69,19,7,

54,64,7,69,19,7,

54,64,7,69,19,7,

54,63,7,69,20,7,

53,63,7,68,19,7,

53,63,7,68,19,7,

53,63,7,68,20,7,

53,63,7,68,41,7,

52,62,7,67,41,7,

51,62,7,67,40,7,

52,62,7,67,39,7,

51,61,7,67,39,7,

51,62,7,67,39,7,

51,61,7,66,39,7,

51,61,7,66,39,7,

51,61,7,66,39,7,

50,61,7,65,39,7,

50,60,7,65,39,7,

50,60,7,65,38,7,

50,60,7,65,38,7,

50,59,7,63,39,7,

50,59,7,64,38,7,

50,60,7,64,38,7,

50,59,7,63,38,7,

49,59,7,63,37,7,

49,59,7,63,37,7,

49,58,7,63,37,7,

48,57,7,63,37,7,

49,57,7,62,37,7,

48,57,7,62,36,7,

48,57,7,62,36,7,

48,57,7,62,38,8,

114,88,7,62,36,7,

113,88,7,62,36,7,

112,86,7,61,35,7,

111,86,7,61,35,7,

110,85,7,60,35,7,

110,85,7,60,36,7,

110,84,7,60,35,7,

109,84,7,60,35,7,

108,83,7,60,35,7,

107,83,7,59,35,7,

107,83,7,59,35,7,

107,83,7,59,34,7,

106,83,7,59,34,7,

106,82,7,59,35,7,

105,82,7,58,34,7,

105,81,7,58,34,7,

103,81,7,57,34,7,

103,81,7,57,33,7,

103,79,7,57,33,7,

103,79,7,57,33,7,

102,79,7,56,33,7,

102,79,7,56,33,7,

102,79,7,56,33,7,

101,78,7,56,44,7,

100,78,7,56,44,7,

101,77,7,56,44,7,

100,77,7,55,43,7,

99,77,7,55,43,7,

99,77,7,55,43,7,

98,76,7,55,42,7,

98,76,7,54,42,7,

97,75,7,54,42,7,

97,75,7,54,42,7,

97,74,7,53,41,7,

96,74,7,54,42,7,

96,75,7,54,41,7,

96,74,7,53,41,7,

96,74,7,53,41,7,

95,74,7,53,41,7,

98,73,7,52,39,7,

98,73,7,52,39,7,

98,71,7,51,39,7,

97,71,7,52,39,7,

97,71,7,51,39,7,

96,71,7,53,39,7,

96,71,7,55,39,7,

96,71,7,55,39,7,

95,70,7,55,39,7,

95,71,7,54,39,7,

94,70,7,54,39,7,

94,70,7,54,39,7,

94,70,7,53,38,7,

93,69,7,53,39,7,

93,69,7,53,38,7,

93,69,7,53,38,7,

92,68,7,53,38,7,

91,68,7,52,38,7,

91,68,7,52,37,7,

91,67,7,52,37,7,

91,67,7,51,37,7,

90,67,7,51,37,7,

89,66,7,51,37,7,

89,67,7,51,36,7,

89,66,7,50,37,7,

89,66,7,51,36,7,

89,66,7,51,36,7,

89,66,7,50,35,7,

88,66,7,50,36,7,

89,66,7,71,35,7,

88,65,7,70,35,7,

88,64,7,70,35,7,

88,65,7,69,35,7,

87,63,7,69,35,7,

86,63,7,68,35,7,

86,63,7,68,35,7,

86,63,7,67,34,7,

86,63,7,67,34,7,

85,63,7,67,35,7,

88,63,7,67,34,7,

89,63,7,66,33,7,

88,62,7,66,34,7,

88,62,7,66,33,7,

88,62,7,66,34,7,

87,62,7,66,33,7,

87,61,7,65,33,7,

86,61,7,65,33,7,

87,61,7,64,33,7,

86,60,7,64,33,7,

85,60,7,64,33,7,

85,60,7,64,32,7,

85,60,7,63,32,7,

85,60,7,63,32,7,

90,59,7,63,32,7,

90,59,7,63,32,7,

89,59,7,63,31,7,

88,59,7,62,31,7,

88,58,7,62,31,7,

88,58,7,62,32,7,

88,57,7,61,31,7,

88,57,7,62,31,7,

87,57,7,61,31,7,

87,57,7,61,31,7,

86,57,7,61,31,7,

86,57,7,60,31,7,

85,57,7,60,30,7,

85,57,7,60,30,7,

85,56,7,59,30,7,

85,56,7,59,30,7,

84,56,7,59,30,7,

84,56,7,59,30,7,

83,58,7,59,30,7,

83,59,7,58,29,7,

83,57,7,58,29,7,

82,57,7,58,29,7,

82,57,7,57,29,7,

81,57,7,57,29,7,

82,57,7,57,29,7,

81,57,7,57,33,7,

81,56,7,57,35,7,

81,56,7,65,38,7,

80,56,7,65,37,7,

79,56,7,65,37,7,

79,55,7,64,37,7,

79,56,7,63,38,8,

79,55,7,63,37,7,

78,54,7,63,37,7,

78,55,7,63,37,7,

78,55,7,63,37,7,

77,54,7,63,36,7,

77,54,7,62,37,7,

77,54,7,62,37,7,

83,53,7,62,36,7,

83,53,7,61,35,7,

82,54,7,61,36,7,

82,53,7,60,35,7,

81,53,7,61,35,7,

81,52,7,60,35,7,

81,52,7,60,35,7,

81,52,7,59,35,7,

79,51,8,60,35,7,

79,51,7,59,35,7,

79,51,7,60,35,7,

119,51,7,59,35,7,

117,51,7,59,34,7,

117,51,7,58,34,7,

115,51,7,58,33,7,

115,55,7,58,34,7,

115,74,7,57,33,7,

114,73,7,57,33,7,

114,73,7,57,33,7,

113,71,7,57,33,7,

113,72,7,57,33,7,

112,71,7,56,33,7,

112,71,7,56,32,7,

111,71,7,56,32,7,

110,71,7,56,34,7,

111,71,7,56,98,8,

110,71,7,55,135,7,

110,70,7,55,135,7,

109,70,7,54,134,7,

108,70,7,55,133,7,

108,69,7,54,132,7,

108,69,7,54,131,7,

107,68,7,54,130,7,

106,68,7,53,130,7,

105,67,7,53,129,7,

105,67,7,53,129,7,

105,67,7,53,127,7,

103,67,7,52,127,7,

103,67,7,51,127,7,

103,66,7,51,126,7,

103,66,7,57,125,7,

102,65,7,57,124,7,

102,65,7,56,124,7,

101,65,7,56,124,7,

101,65,7,56,123,7,

101,64,7,56,123,7,

100,64,7,56,122,7,

99,63,7,55,121,7,

99,63,7,55,121,7,

99,63,7,54,120,7,

98,62,7,55,120,7,

99,63,7,54,120,7,

97,62,7,54,119,7,

97,62,7,54,118,7,

97,62,7,54,117,7,

97,62,7,53,117,7,

96,61,7,53,117,7,

96,61,7,52,116,7,

95,61,7,52,115,7,

94,60,7,52,115,7,

94,60,7,51,114,7,

94,60,7,67,114,7,

94,60,7,111,114,7,

93,60,7,146,113,7,

93,59,7,145,112,7,

92,59,7,143,112,7,

91,59,7,143,112,7,

91,58,7,142,111,7,

91,58,7,142,110,7,

91,57,7,141,110,7,

91,58,7,140,109,7,

89,57,7,140,109,7,

89,57,7,139,109,7,

89,57,7,138,108,7,

89,57,7,138,107,7,

88,56,7,137,108,7,

88,56,7,135,107,7,

88,56,7,135,106,7,

87,56,7,135,105,7,

87,56,7,135,106,7,

87,82,7,134,103,7,

86,81,7,133,103,7,

86,81,7,132,103,7,

85,80,7,131,103,7,

85,79,7,131,103,7,

84,79,7,130,102,7,

83,79,7,130,102,7,

83,79,7,130,102,7,

83,78,7,129,101,7,

83,78,7,128,101,7,

83,78,7,127,100,7,

82,77,7,127,100,7,

81,77,7,127,99,7,

81,77,7,126,98,7,

81,76,7,126,99,7,

80,76,7,125,98,7,

81,76,7,124,98,7,

79,76,7,124,97,7,

79,75,7,123,96,7,

79,75,7,123,96,7,

79,75,7,123,96,7,

79,74,7,122,96,7,

78,74,7,121,95,7,

78,73,7,121,95,7,

78,73,7,120,95,7,

77,73,7,120,94,7,

77,71,7,119,94,7,

77,71,7,119,94,7,

76,71,7,118,93,7,

76,71,7,118,92,7,

76,71,7,118,92,7,

76,71,7,117,92,7,

76,70,7,116,91,7,

75,70,7,116,91,7,

75,70,7,115,91,7,

75,69,7,115,91,7,

74,69,7,114,90,7,

73,68,7,114,89,7,

73,69,7,113,89,7,

73,68,7,113,88,7,

73,68,7,112,88,7,

71,67,7,112,88,7,

72,68,7,112,88,7,

71,67,7,111,88,7,

71,67,7,110,87,7,

71,67,7,110,86,7,

71,66,7,110,86,7,

71,66,7,109,86,7,

71,66,7,109,86,7,

70,65,7,109,85,7,

70,65,7,109,84,7,

69,65,7,108,84,7,

70,65,7,108,84,7,

69,64,7,107,83,7,

69,63,7,107,83,7,

69,63,7,106,83,7,

68,63,7,105,83,7,

67,63,7,105,82,7,

68,63,7,105,82,7,

67,63,7,103,81,7,

67,62,7,103,82,7,

67,62,7,103,81,7,

67,62,7,103,80,7,

66,61,7,103,80,7,

66,61,7,102,80,7,

66,61,7,102,79,7,

66,61,7,102,79,7,

65,60,7,101,79,7,

65,61,7,101,79,7,

65,60,7,100,79,7,

64,60,7,100,78,7,

64,60,7,100,78,7,

63,59,7,99,77,7,

63,59,7,99,77,7,

63,59,7,98,77,7,

63,59,7,98,77,7,

63,58,7,98,76,7,

63,58,7,97,76,7,

63,58,7,97,76,7,

62,58,7,96,76,7,

71,57,7,96,75,7,

71,57,7,96,75,7,

71,56,7,96,75,7,

71,57,7,95,74,7,

71,56,7,95,74,7,

70,56,7,95,73,7,

70,56,7,94,73,7,

69,56,7,94,73,7,

69,56,7,93,73,7,

69,55,7,93,73,7,

69,55,7,93,71,7,

69,56,7,92,71,7,

86,55,7,92,71,7,

85,54,7,92,71,7,

85,55,7,107,71,7,

84,54,7,115,71,7,

83,53,7,115,71,7,

83,53,7,114,70,7,

83,53,7,113,70,7,

83,53,7,113,70,7,

82,53,7,113,69,7,

82,52,7,112,69,7,

81,52,7,112,69,7,

81,51,7,112,69,7,

80,52,7,111,68,7,

80,51,7,110,68,7,

79,51,7,110,67,7,

79,51,7,109,67,7,

79,51,7,109,67,7,

79,51,7,108,67,7,

79,50,7,108,67,7,

78,50,7,107,67,7,

78,50,7,107,66,7,

78,50,7,107,66,7,

77,49,7,105,66,7,

77,49,7,105,65,7,

77,49,7,105,65,7,

76,49,7,104,65,7,

76,49,7,103,65,7,

76,48,7,103,63,7,

75,48,7,103,63,7,

75,48,7,103,63,7,

74,48,7,102,63,7,

74,48,7,102,63,7,

73,48,7,101,63,7,

73,47,7,101,63,7,

73,47,7,101,63,7,

73,47,7,100,62,7,

73,47,7,100,62,7,

73,47,7,99,62,7,

73,46,7,99,62,7,

71,46,7,99,61,7,

71,46,7,98,61,7,

71,46,7,98,61,7,

71,46,7,97,61,7,

71,45,7,97,60,7,

71,45,7,97,60,7,

71,45,7,97,91,7,

71,45,7,96,121,7,

70,45,7,96,120,7,

70,45,7,95,120,7,

69,45,7,95,119,7,

70,77,7,95,118,7,

69,76,7,94,118,7,

69,75,7,94,117,7,

68,75,7,93,116,7,

67,75,7,93,116,7,

67,75,7,92,115,7,

67,74,7,92,115,7,

67,73,7,92,115,7,

67,73,7,91,114,7,

67,73,7,92,113,7,

66,73,7,91,113,7,

66,71,7,90,112,7,

66,71,7,90,112,7,

66,71,7,89,111,7,

65,71,7,89,110,7,

65,71,7,89,110,7,

65,71,7,88,110,7,

65,71,7,88,109,7,

64,70,7,88,109,7,

64,70,7,88,108,7,

63,69,7,87,108,7,

63,69,7,86,108,7,

63,69,7,87,107,7,

63,69,7,87,106,7,

71,68,7,86,106,7,

71,68,7,85,106,7,

71,67,7,85,105,7,

70,67,7,85,104,7,

70,67,7,84,104,7,

69,67,7,84,103,7,

69,66,7,83,103,7,

69,66,7,83,103,7,

68,65,7,83,102,7,

68,65,7,83,102,7,

68,65,7,96,101,7,

67,65,7,96,123,7,

67,65,7,96,122,7,

67,64,7,95,121,7,

67,63,7,94,121,7,

66,63,7,94,120,7,

66,63,7,93,120,7,

66,63,7,92,119,7,

65,63,7,92,119,8,

66,63,7,92,118,7,

65,63,7,92,117,7,

65,62,7,91,117,7,

64,62,7,91,117,7,

63,62,7,91,115,7,

63,61,7,90,115,7,

63,61,7,89,115,7,

63,61,7,89,114,7,

63,61,7,89,114,7,

63,60,7,88,113,7,

63,60,7,88,112,7,

62,60,7,88,112,7,

61,60,7,88,111,7,

61,59,7,87,111,7,

61,59,7,87,111,7,

61,59,7,86,110,7,

61,58,7,86,110,7,

61,58,7,86,109,7,

60,58,7,85,109,7,

59,58,7,85,108,7,

60,57,7,85,108,7,

59,57,7,84,107,7,

60,57,7,84,107,7,

59,57,7,83,107,7,

59,56,7,83,106,7,

58,56,7,83,105,7,

58,56,7,82,105,7,

57,56,7,82,105,7,

57,56,7,82,103,7,

