
17,37,4,28,9,4,

17,36,3,28,9,3,

17,36,3,27,9,4,

16,36,3,27,9,3,

16,36,3,27,9,4,

16,35,3,28,9,3,

16,35,3,27,9,3,

18,35,3,27,9,3,

18,35,3,27,9,3,

18,35,4,27,9,4,

18,35,3,27,9,3,

19,35,4,27,9,3,

18,35,4,27,9,4,

17,35,3,26,9,3,

17,34,4,26,9,3,

17,34,4,26,8,3,

18,35,3,26,8,3,

17,34,3,25,8,3,

17,34,3,26,9,4,

17,33,3,26,9,4,

17,34,3,25,7,3,

18,33,3,26,9,4,

18,33,3,27,9,4,

18,33,4,26,8,3,

16,33,3,26,9,3,

17,33,3,26,7,3,

17,33,3,26,7,3,

17,32,3,26,7,3,

16,31,3,25,8,4,

16,32,3,25,7,4,

16,31,3,25,8,5,

16,31,4,26,14,4,

16,31,4,25,13,3,

16,31,3,25,14,4,

16,31,3,25,13,3,

17,31,4,25,13,4,

16,31,3,25,13,3,

16,31,4,25,14,3,

17,31,4,24,13,3,

16,31,3,25,13,3,

16,30,4,24,12,3,

15,31,3,24,12,4,

15,30,3,24,13,3,

15,31,4,24,13,3,

15,30,3,24,13,3,

15,30,3,24,13,3,

15,29,3,24,13,3,

15,30,3,24,12,4,

15,29,3,24,13,3,

15,29,4,24,13,3,

15,29,3,24,12,3,

15,29,3,23,13,3,

15,29,3,23,12,3,

15,29,3,24,12,3,

14,29,3,22,12,3,

15,28,3,22,11,3,

15,29,3,22,11,3,

15,29,4,22,12,4,

15,28,3,22,12,3,

15,28,3,22,12,3,

15,27,3,22,12,3,

14,28,3,22,12,4,

14,28,3,21,12,5,

15,27,4,22,12,3,

14,28,3,22,12,3,

14,28,3,21,11,3,

14,27,3,22,11,4,

15,27,3,21,11,3,

14,27,4,21,12,4,

14,26,4,21,11,3,

14,27,4,21,12,3,

14,27,4,21,11,3,

14,27,3,21,11,4,

14,27,4,20,10,3,

14,26,4,20,11,3,

15,26,4,21,11,3,

14,27,3,20,11,4,

14,26,3,21,12,3,

15,50,3,21,11,3,

14,51,4,20,11,3,

14,50,3,20,11,4,

14,50,3,21,11,3,

14,49,3,20,12,3,

14,49,4,20,11,4,

14,49,3,20,11,3,

14,49,3,19,11,3,

14,48,4,19,10,3,

14,48,4,19,11,3,

14,48,3,19,10,4,

13,48,3,19,11,4,

14,48,3,19,11,3,

13,48,3,19,11,4,

14,48,4,19,11,3,

14,47,3,19,10,3,

13,47,4,19,10,4,

14,47,4,18,10,4,

14,46,3,18,10,3,

13,46,3,19,11,4,

13,46,5,19,10,3,

13,45,4,18,10,4,

13,45,3,18,10,4,

14,45,3,19,11,3,

15,45,4,18,12,3,

15,45,3,17,12,3,

15,44,3,18,12,3,

15,71,4,18,12,3,

14,73,3,17,12,4,

14,71,3,18,12,4,

15,71,3,18,12,3,

15,71,4,17,12,4,

15,71,3,17,11,4,

14,71,3,17,12,4,

15,70,4,17,11,3,

14,70,4,17,12,4,

15,70,3,17,11,3,

14,69,4,17,12,4,

15,69,4,17,12,4,

15,69,4,16,12,4,

15,67,4,17,11,3,

14,67,4,16,11,4,

15,67,4,16,11,3,

14,67,3,16,11,3,

14,67,3,16,11,3,

14,67,4,16,11,3,

14,66,4,16,11,4,

14,66,3,16,11,3,

14,66,3,35,11,3,

20,65,4,34,11,3,

21,65,3,33,10,4,

21,65,3,33,10,4,

21,65,3,33,11,3,

20,63,4,33,11,3,

20,64,4,33,10,3,

20,63,3,33,10,3,

20,63,3,33,9,4,

19,63,3,33,10,4,

20,62,4,31,9,4,

19,63,4,31,10,3,

19,62,4,31,10,3,

19,62,4,31,10,3,

19,62,4,31,9,4,

19,62,3,31,10,3,

19,60,3,31,10,4,

19,61,4,31,9,4,

19,60,3,31,10,4,

19,60,4,32,10,3,

18,60,3,31,9,3,

18,59,4,31,10,4,

19,60,3,31,9,3,

18,60,3,31,9,4,

18,59,4,31,10,5,

18,58,3,30,9,4,

19,58,3,30,9,3,

18,58,3,30,9,3,

18,57,3,30,10,4,

18,57,4,30,9,3,

18,57,3,30,9,4,

17,57,3,30,9,3,

18,57,3,29,9,3,

18,57,3,30,10,4,

18,57,4,30,9,4,

18,56,4,29,9,3,

18,56,3,29,9,4,

18,56,3,29,9,4,

18,56,4,29,9,3,

18,56,4,29,9,3,

17,55,4,29,9,3,

24,55,3,29,9,4,

25,55,3,28,9,4,

25,54,3,29,10,3,

25,55,3,28,10,4,

25,54,4,28,9,4,

24,54,4,28,8,4,

24,54,4,28,8,4,

24,53,3,27,8,4,

24,53,3,27,7,3,

24,53,4,27,9,4,

24,53,4,27,10,3,

23,52,4,27,9,4,

24,51,3,27,9,3,

24,52,4,27,10,4,

24,51,4,26,10,3,

24,51,4,26,9,4,

23,51,3,27,9,3,

23,51,3,26,10,3,

23,51,3,25,9,4,

23,50,3,26,9,4,

22,50,4,26,9,3,

23,50,3,25,10,4,

23,50,4,26,20,4,

23,50,3,25,22,4,

22,49,3,25,21,3,

22,49,3,39,21,3,

22,50,4,45,67,4,

27,85,5,45,74,4,

71,152,3,45,73,4,

75,261,4,44,71,4,

74,257,4,44,71,4,

74,255,3,43,71,3,

73,254,3,43,71,3,

73,252,3,43,71,3,

73,251,3,43,71,4,

71,249,3,42,70,4,

71,248,4,43,70,4,

71,247,3,42,69,3,

71,245,3,42,69,4,

71,245,4,41,68,3,

70,243,3,41,68,4,

71,241,4,41,68,4,

71,241,3,42,67,3,

70,240,4,41,67,3,

69,238,4,41,67,4,

70,237,4,41,66,4,

69,236,4,39,66,3,

69,235,3,39,65,4,

69,233,3,39,65,3,

68,231,4,39,65,3,

67,231,4,39,65,4,

67,231,4,39,64,4,

67,229,3,39,65,3,

67,228,3,39,63,3,

66,227,3,39,63,4,

66,225,4,38,63,4,

65,225,4,38,63,3,

65,223,3,38,62,4,

65,223,4,38,63,3,

65,222,4,37,62,4,

64,220,4,38,61,3,

64,220,3,38,62,3,

63,219,4,37,61,4,

63,217,3,37,61,3,

63,217,3,43,61,4,

63,216,4,53,60,4,

62,214,3,51,60,4,

62,214,4,52,60,3,

62,213,4,51,59,3,

62,211,3,51,59,3,

62,211,4,51,59,3,

62,210,3,50,59,4,

61,208,4,51,58,3,

60,207,4,50,59,4,

60,207,3,50,57,3,

60,206,3,49,57,3,

60,205,4,49,58,4,

60,205,4,49,57,4,

60,204,5,49,57,5,

61,203,3,49,57,5,

62,203,5,49,57,4,

62,202,4,49,56,4,

62,199,4,49,57,4,

62,199,5,48,56,4,

60,199,4,48,56,4,

60,198,4,48,56,4,

61,197,5,47,54,4,

60,195,4,47,55,3,

60,195,4,48,55,4,

60,194,4,46,55,4,

59,193,5,47,54,4,

59,192,3,46,54,5,

59,192,4,46,54,4,

58,192,4,46,53,4,

57,190,4,46,53,3,

57,190,4,45,52,4,

57,189,4,45,52,4,

57,188,4,45,52,4,

57,187,4,45,51,4,

57,186,5,45,51,5,

57,185,4,45,51,4,

56,184,4,44,51,4,

56,184,5,44,51,4,

59,183,4,45,51,4,

58,182,4,44,51,5,

57,182,4,44,50,4,

57,181,5,44,50,4,

57,180,5,44,50,4,

56,179,4,43,49,4,

56,179,5,43,50,5,

56,178,5,43,49,5,

56,177,4,42,49,5,

56,176,5,43,48,5,

56,175,5,43,49,4,

55,175,5,42,48,4,

55,174,5,43,48,5,

55,174,5,41,48,5,

54,173,4,41,48,4,

54,172,5,41,47,4,

54,171,5,41,48,4,

54,171,5,41,47,4,

53,169,5,39,47,5,

53,167,5,39,46,4,

53,167,5,41,46,4,

52,167,5,39,46,6,

53,166,5,39,46,4,

54,166,5,39,46,5,

79,166,6,39,45,5,

79,164,5,39,45,4,

78,164,5,39,46,5,

78,163,5,38,45,4,

77,162,5,39,44,6,

76,161,5,38,45,4,

76,162,6,38,45,5,

76,161,6,59,51,5,

76,159,5,59,51,5,

75,159,5,57,50,5,

75,158,5,57,49,5,

74,157,6,57,50,5,

75,157,4,57,49,4,

74,156,5,56,49,5,

74,156,5,56,48,5,

73,156,5,56,49,5,

71,154,5,56,48,4,

71,154,5,55,48,5,

71,153,5,55,48,4,

71,153,5,55,48,4,

71,152,5,55,47,5,

70,152,5,55,47,5,

71,151,5,54,47,4,

70,151,5,54,51,5,

70,149,5,54,51,4,

69,149,5,54,51,4,

69,148,5,54,51,5,

69,147,5,53,51,5,

69,147,4,53,50,5,

67,147,5,52,50,4,

68,146,5,52,50,5,

67,145,5,53,50,5,

67,145,5,52,49,5,

67,143,4,51,50,5,

67,143,5,51,51,4,

66,143,4,51,51,5,

66,142,5,51,51,4,

66,142,5,51,50,4,

66,141,5,50,50,4,

65,141,5,51,50,5,

64,140,4,50,50,5,

64,139,4,50,49,4,

64,139,4,49,49,4,

63,138,5,50,49,4,

63,137,4,49,48,4,

63,137,4,48,48,4,

63,137,4,49,48,4,

62,135,5,48,48,5,

62,135,4,48,48,5,

107,135,5,48,48,4,

151,135,5,48,48,5,

149,134,5,48,48,5,

214,133,5,47,47,5,

211,133,4,47,47,4,

210,133,5,47,46,5,

209,131,4,46,46,4,

207,131,4,46,46,5,

206,131,5,46,45,5,

205,130,4,46,47,4,

204,130,4,45,47,5,

203,129,4,46,47,4,

203,129,4,45,46,5,

201,127,4,45,46,4,

199,127,5,45,46,4,

199,127,5,44,45,4,

198,126,4,44,45,5,

197,126,4,44,45,5,

195,126,4,44,45,4,

195,124,5,44,45,4,

195,124,5,44,46,5,

193,124,4,48,45,5,

192,123,4,48,45,5,

191,123,5,48,45,4,

190,122,5,47,45,4,

189,122,5,47,44,4,

188,121,4,47,45,5,

187,121,4,48,44,4,

187,120,5,50,43,4,

185,120,5,56,44,5,

185,119,4,56,44,4,

184,119,4,56,43,4,

184,118,4,59,44,4,

182,117,5,57,43,4,

181,117,5,57,43,4,

180,117,5,57,43,4,

179,116,4,57,43,4,

179,115,3,57,42,4,

178,115,5,56,57,4,

177,115,4,56,56,4,

176,114,4,57,56,4,

175,114,4,56,56,3,

174,113,4,56,56,4,

174,113,4,56,55,4,

173,112,5,55,55,4,

172,112,4,54,54,5,

172,111,4,54,54,4,

171,111,4,54,54,4,

169,110,4,54,54,4,

170,110,5,54,54,4,

167,110,4,54,54,5,

167,109,4,53,53,4,

167,109,4,53,53,4,

167,109,5,84,52,5,

165,108,5,84,53,5,

164,108,4,83,52,4,

163,107,4,83,51,5,

163,107,5,82,51,5,

162,107,4,82,51,4,

162,105,4,82,51,4,

161,105,4,81,50,4,

160,105,4,81,50,4,

179,103,5,80,51,4,

178,103,5,80,50,4,

177,103,5,80,49,4,

177,103,4,79,49,4,

176,103,5,79,49,5,

175,103,5,79,50,5,

174,102,4,77,51,5,

173,101,5,78,51,4,

172,101,4,78,51,4,

171,101,5,77,51,4,

184,99,5,76,50,5,

184,99,5,76,50,5,

183,99,5,76,50,5,

182,99,4,76,50,5,

181,99,4,75,50,4,

180,98,5,75,78,5,

179,98,5,74,92,5,

179,97,5,107,95,5,

177,97,4,105,95,4,

176,97,5,105,94,4,

176,97,4,105,93,5,

175,96,4,103,92,5,

174,95,4,103,92,4,

173,96,5,103,92,4,

172,95,3,103,92,5,

172,94,4,102,91,4,

171,94,4,101,90,4,

170,93,5,101,89,4,

169,93,5,101,90,4,

167,92,5,100,89,4,

167,92,5,99,89,4,

166,92,4,99,89,5,

166,92,4,98,88,5,

165,92,4,98,88,4,

164,91,4,97,86,4,

163,91,4,98,87,5,

162,90,5,97,87,4,

162,90,4,96,85,3,

162,89,5,96,85,5,

161,89,5,96,85,4,

160,88,4,96,85,4,

159,88,5,94,83,4,

158,88,4,94,83,4,

158,88,4,94,83,5,

157,88,4,94,83,4,

156,88,5,93,82,4,

156,87,4,92,81,4,

155,86,4,91,82,4,

154,86,4,92,82,3,

154,86,5,91,81,4,

153,86,4,91,81,5,

152,85,4,90,81,5,

152,84,4,90,79,4,

152,84,4,91,79,4,

150,84,4,120,79,4,

151,83,3,120,78,3,

149,83,5,119,78,4,

148,83,4,118,79,4,

147,82,4,117,78,4,

147,82,5,117,78,4,

146,82,4,116,77,4,

147,81,4,115,77,4,

145,81,4,115,76,4,

145,80,4,115,76,4,

144,80,4,114,76,3,

143,79,4,114,76,4,

142,79,4,113,74,4,

142,79,4,112,75,4,

141,122,4,112,74,5,

141,120,4,112,73,4,

140,120,4,111,74,4,

140,119,4,110,73,4,

139,118,5,109,73,4,

139,117,4,109,71,4,

138,117,4,108,71,4,

137,116,5,108,71,4,

135,115,4,107,71,3,

135,115,5,107,70,5,

135,114,4,106,70,3,

135,114,4,105,70,4,

134,113,4,105,69,4,

134,112,4,105,69,3,

133,112,5,104,69,3,

132,112,4,103,69,4,

131,111,4,103,68,5,

131,110,4,103,67,4,

131,109,4,103,68,4,

130,109,4,102,68,5,

129,109,4,102,67,3,

129,108,4,101,67,3,

127,108,5,100,67,3,

127,108,4,100,67,4,

127,107,4,99,66,4,

127,107,4,99,66,3,

126,105,4,98,66,4,

125,105,4,98,65,5,

124,105,4,98,65,4,

124,103,4,97,66,4,

124,103,3,97,65,5,

123,103,4,97,65,5,

122,102,3,96,65,4,

122,102,4,95,65,3,

121,102,4,95,64,4,

121,128,5,96,63,3,

139,177,4,94,63,3,

138,176,3,94,63,3,

137,174,4,94,65,4,

137,174,4,93,65,3,

135,172,3,92,65,4,

135,171,4,92,65,4,

135,171,5,92,64,4,

135,170,5,91,63,4,

133,169,4,91,63,4,

133,167,5,91,63,3,

133,167,5,90,63,4,

132,167,4,90,62,4,

131,165,4,89,62,3,

130,164,4,89,62,4,

129,163,4,88,62,4,

130,163,4,88,61,4,

128,162,4,88,61,5,

128,161,4,88,61,4,

127,159,4,87,61,4,

126,159,5,87,75,3,

126,159,4,87,78,4,

126,158,4,88,99,4,

125,157,5,88,98,3,

124,156,4,88,97,4,

124,156,3,87,96,5,

123,155,3,86,96,4,

122,155,3,86,95,4,

122,156,4,85,94,4,

122,156,3,85,94,4,

121,155,4,85,94,4,

121,155,4,85,93,4,

120,153,4,84,92,3,

120,152,4,83,92,4,

119,152,5,83,92,4,

118,151,4,83,92,4,

119,150,5,83,91,3,

117,150,3,82,91,4,

117,149,4,82,91,5,

116,148,4,81,89,3,

116,147,4,81,89,4,

115,147,4,81,88,4,

115,146,4,81,89,4,

114,145,4,80,88,4,

113,145,4,79,88,3,

113,145,4,79,87,3,

113,143,3,79,87,4,

113,143,3,78,86,4,

112,142,3,78,85,4,

111,141,4,78,85,4,

111,141,4,78,85,4,

110,140,4,77,85,4,

110,139,4,77,84,4,

109,139,4,76,83,4,

110,138,5,76,83,4,

109,138,4,76,83,4,

108,137,3,75,82,3,

108,137,4,75,83,4,

107,135,3,76,81,4,

107,135,3,75,82,5,

107,134,3,75,81,4,

106,134,4,74,81,4,

105,133,4,73,80,3,

105,133,3,73,81,4,

103,132,4,73,79,4,

103,131,4,73,79,3,

103,131,4,71,79,4,

103,130,3,71,78,4,

103,129,4,71,78,4,

103,129,4,71,78,3,

102,129,3,71,77,3,

102,127,4,71,77,4,

101,127,4,71,77,3,

101,126,3,71,77,5,

109,126,5,70,76,3,

108,126,4,69,75,4,

108,125,4,69,132,3,

107,125,4,69,130,3,

107,124,4,69,129,4,

106,123,3,68,129,4,

105,123,4,68,127,3,

105,123,3,68,127,4,

103,121,3,67,126,4,

103,121,3,67,125,4,

103,120,4,67,125,4,

103,120,4,66,124,3,

103,120,3,66,123,5,

102,119,4,66,122,3,

101,118,4,66,123,3,

101,118,4,65,121,3,

100,117,3,65,121,4,

100,117,4,65,120,5,

99,116,4,64,120,4,

99,115,4,64,119,5,

98,115,4,63,118,4,

98,115,5,63,118,4,

98,114,3,63,117,3,

97,113,3,63,117,3,

97,113,3,63,116,3,

96,112,3,63,116,4,

96,112,3,62,115,3,

96,112,4,62,114,3,

95,111,4,61,114,3,

95,110,3,61,113,4,

95,111,5,62,113,4,

94,109,4,60,113,4,

93,109,4,60,112,3,

93,108,4,60,111,3,

93,108,3,60,110,4,

92,108,3,59,110,3,

92,107,4,60,110,4,

92,106,4,59,109,4,

92,106,3,59,108,3,

91,105,4,59,108,4,

91,105,3,58,108,4,

91,105,4,58,108,4,

89,103,4,58,107,4,

89,103,3,57,106,3,

89,103,3,57,105,4,

89,103,3,57,105,4,

88,103,5,57,105,4,

88,102,3,57,103,5,

88,102,4,56,103,3,

87,101,4,56,103,3,

87,101,4,56,103,4,

87,100,4,56,102,3,

86,100,4,56,102,4,

85,99,4,56,101,4,

85,99,3,55,101,4,

85,98,4,56,100,4,

85,98,3,55,100,3,

85,97,4,55,100,4,

84,98,3,54,99,3,

84,97,3,54,99,4,

83,96,4,53,98,4,

83,96,4,54,98,3,

83,96,4,53,97,4,

82,96,5,53,97,3,

82,95,4,53,96,4,

81,95,5,52,96,4,

81,94,3,53,96,3,

81,94,3,52,96,4,

81,93,4,51,95,4,

81,93,4,51,96,4,

80,93,4,52,94,4,

79,92,3,51,94,5,

79,92,4,51,93,3,

79,92,4,51,93,3,

79,91,3,51,94,4,

79,91,3,50,92,4,

78,91,3,51,92,3,

78,90,3,50,92,3,

78,89,3,50,91,4,

78,90,4,50,91,4,

78,89,4,50,91,4,

79,89,3,49,90,4,

130,88,4,50,90,4,

129,91,4,49,89,3,

127,93,4,48,89,4,

127,92,3,48,88,3,

126,92,4,48,88,4,

125,91,4,48,88,3,

125,91,3,48,88,4,

124,91,4,48,88,4,

124,90,4,47,86,3,

123,90,3,48,87,4,

123,89,3,48,86,3,

122,89,3,47,86,4,

121,89,3,47,85,3,

121,88,3,47,85,4,

121,88,3,46,84,4,

120,88,4,46,84,4,

120,88,4,46,85,4,

198,87,4,46,83,3,

230,87,4,45,83,4,

228,86,4,46,83,4,

226,86,4,45,83,3,

225,86,4,45,82,3,

224,85,5,51,82,4,

222,85,4,50,82,4,

221,85,3,49,81,4,

221,83,4,49,81,4,

220,83,3,49,80,5,

218,102,4,48,79,4,

217,102,4,49,79,3,

216,101,4,49,79,4,

216,101,4,49,79,3,

214,99,4,48,79,5,

213,99,4,48,78,4,

212,98,4,48,78,4,

211,99,3,48,78,4,

210,97,5,47,77,4,

208,97,3,47,77,3,

207,97,4,48,77,3,

207,97,4,46,77,4,

206,96,3,46,76,3,

205,96,3,46,76,4,

204,95,4,46,76,4,

203,95,3,46,75,3,

202,93,4,46,75,3,

202,94,5,45,75,4,

199,94,3,45,74,3,

199,93,4,45,73,3,

198,92,3,45,74,4,

198,92,4,44,73,4,

197,92,3,45,72,3,

196,91,3,44,73,3,

195,90,3,44,71,4,

194,90,4,44,71,4,

193,89,4,44,71,4,

192,89,3,43,71,4,

192,89,5,43,71,4,

191,89,3,43,71,4,

190,88,5,43,70,3,

189,88,4,43,71,4,

188,88,4,43,71,3,

188,87,4,43,70,4,

187,87,4,43,70,4,

186,87,4,57,69,4,

185,86,4,65,69,4,

184,85,4,64,68,3,

184,85,4,65,68,3,

183,85,3,64,68,4,

182,91,4,63,68,4,

182,90,4,63,67,4,

180,89,4,63,67,5,

179,89,4,63,67,4,

179,89,4,62,67,4,

179,88,4,62,67,3,

177,88,3,61,66,5,

176,88,4,62,66,4,

176,86,4,61,65,4,

174,86,4,60,65,5,

174,86,4,61,65,4,

174,86,4,61,65,3,

172,86,3,60,65,4,

172,85,4,60,64,4,

171,84,4,60,63,3,

170,85,4,60,63,3,

170,83,4,59,63,5,

169,83,5,59,63,5,

167,83,4,58,63,4,

167,83,3,58,62,4,

167,82,4,59,62,4,

166,82,3,57,62,4,

166,81,4,58,62,4,

165,81,4,57,62,4,

164,81,4,57,62,4,

163,81,5,56,61,5,

163,81,3,57,61,4,

162,79,4,56,61,4,

161,79,4,56,60,3,

160,79,4,56,60,3,

159,79,4,55,59,4,

159,79,4,55,60,5,

158,78,4,55,60,4,

158,78,4,55,59,4,

157,78,5,55,59,4,

157,78,4,55,59,3,

156,77,4,54,58,4,

155,76,4,54,59,3,

155,76,4,53,57,4,

155,76,3,54,58,4,

153,76,4,53,57,4,

153,75,5,52,57,5,

152,75,3,52,56,4,

152,75,4,52,56,4,

151,74,4,52,57,4,

151,75,5,51,56,3,

149,73,4,51,56,5,

149,74,4,51,56,4,

148,73,5,51,55,4,

147,71,4,50,55,4,

147,73,4,50,55,5,

146,73,4,50,55,4,

145,71,4,50,55,4,

145,71,4,49,55,3,

145,71,4,49,54,4,

143,71,4,49,54,4,

143,71,5,49,53,4,

142,71,4,49,53,4,

142,71,4,48,53,4,

141,70,3,48,53,4,

141,71,4,48,52,4,

140,70,3,48,51,4,

140,70,5,48,52,5,

139,70,3,47,51,4,

139,69,4,47,52,4,

138,68,4,47,51,4,

137,69,4,46,51,3,

137,68,5,46,51,3,

137,69,4,46,51,3,

135,67,3,46,51,4,

135,67,4,46,50,3,

134,67,3,45,50,4,

135,67,4,45,50,4,

134,67,4,45,50,4,

134,66,4,45,49,3,

133,66,3,45,49,4,

132,66,4,44,49,4,

131,66,3,45,48,4,

131,65,4,45,48,4,

130,65,4,44,48,4,

130,65,3,44,48,3,

130,64,4,44,48,4,

129,65,3,43,48,3,

128,64,3,44,47,3,

127,63,3,43,47,4,

127,63,3,44,47,4,

127,63,4,43,48,4,

126,63,4,43,47,3,

126,63,3,42,47,4,

125,62,4,42,46,4,

124,62,4,42,46,4,

124,62,4,42,46,3,

124,61,3,41,46,4,

124,62,3,41,46,4,

123,61,5,41,45,4,

122,61,4,41,45,4,

122,61,4,41,46,4,

121,61,4,40,45,3,

121,60,5,41,45,3,

120,60,4,39,44,4,

120,60,4,39,45,4,

120,60,3,39,45,4,

119,60,4,39,44,4,

119,59,3,39,45,4,

118,59,4,39,44,5,

117,59,4,39,44,4,

117,59,3,39,44,3,

117,59,3,39,44,3,

116,58,4,38,43,4,

115,58,3,39,43,4,

115,58,4,38,43,4,

114,57,3,38,43,3,

115,57,3,38,43,4,

113,57,3,38,43,4,

113,57,4,56,43,3,

112,56,4,56,42,4,

112,56,4,56,42,4,

112,56,4,55,41,4,

112,56,3,55,41,4,

111,56,3,54,41,4,

110,56,4,54,41,4,

110,56,3,54,39,4,

110,55,4,54,41,4,

109,54,4,54,39,4,

109,54,4,52,39,4,

108,55,4,53,39,4,

108,54,3,52,39,3,

108,54,4,52,39,3,

107,54,4,52,39,4,

107,53,4,51,39,3,

106,54,3,51,39,4,

106,67,4,51,39,3,

106,67,4,51,39,3,

106,67,3,50,39,4,

105,67,3,50,39,3,

103,66,4,50,38,3,

103,66,4,50,38,4,

103,66,4,50,38,4,

103,65,5,50,38,3,

103,65,3,49,38,3,

102,64,3,49,38,3,

102,63,3,48,37,4,

102,64,4,48,38,4,

102,63,3,48,37,4,

101,63,4,48,37,3,

100,63,4,48,37,3,

100,63,4,48,37,4,

99,62,3,48,37,3,

99,62,4,47,37,4,

99,61,4,47,37,4,

98,61,5,47,35,4,

98,61,4,46,36,4,

98,61,3,47,35,4,

97,77,3,46,35,4,

96,76,3,46,35,4,

96,77,4,46,36,3,

96,76,5,46,35,3,

96,75,3,46,35,3,

95,75,4,45,35,3,

96,75,4,45,35,4,

95,75,4,45,34,4,

95,74,4,44,34,4,

93,74,4,44,35,4,

94,73,3,44,34,3,

94,73,4,44,34,3,

93,73,3,44,34,3,

93,73,4,44,34,3,

92,71,3,43,34,3,

92,71,4,43,34,5,

91,112,4,43,33,3,

91,111,3,43,34,3,

91,111,3,43,33,4,

91,111,3,43,33,4,

90,110,3,43,32,3,

89,109,3,42,33,4,

89,109,3,41,32,4,

89,108,4,42,33,4,

89,108,3,41,31,4,

89,107,3,41,31,3,

88,106,4,41,32,4,

88,109,4,41,31,4,

88,108,4,41,35,3,

87,107,4,39,35,4,

88,107,4,41,34,3,

86,106,4,40,34,4,

86,105,3,39,34,3,

85,105,3,39,34,4,

85,105,3,39,34,5,

85,103,4,39,34,3,

84,103,3,39,33,3,

85,103,4,39,34,4,

84,103,3,39,33,3,

83,102,4,38,34,3,

83,101,4,38,34,3,

83,102,4,38,33,4,

83,101,4,38,33,4,

82,100,4,38,32,3,

82,99,4,38,32,3,

81,99,3,37,32,4,

82,99,5,38,32,4,

81,99,4,50,31,4,

81,98,4,50,32,4,

81,98,3,49,32,3,

79,98,4,49,31,4,

79,97,3,49,32,3,

80,96,3,49,31,3,

79,96,3,49,31,4,

79,98,4,48,31,4,

78,150,4,48,31,4,

79,147,4,48,31,3,

78,147,3,48,31,3,

78,145,4,48,30,3,

77,146,5,48,30,3,

77,145,4,47,30,4,

77,143,4,47,30,4,

77,142,4,47,30,4,

76,143,4,47,30,4,

76,142,3,46,30,4,

76,141,3,71,30,4,

75,140,3,71,30,4,

75,139,4,71,30,3,

74,138,4,71,30,4,

75,138,4,71,29,4,

75,137,3,70,30,4,

74,135,3,69,29,3,

73,135,3,69,29,3,

73,135,4,70,29,3,

73,135,4,68,29,4,

73,135,4,69,29,4,

73,133,3,68,29,3,

73,133,3,67,28,4,

71,132,4,67,28,3,

71,131,3,67,28,3,

71,131,4,66,29,3,

71,131,4,67,28,4,

71,130,4,66,28,3,

70,129,3,66,27,4,

70,129,4,66,27,3,

70,129,4,65,28,5,

70,127,4,64,28,3,

69,127,4,65,28,3,

69,127,3,65,28,3,

68,126,3,63,27,4,

69,125,3,64,27,3,

69,125,4,63,27,4,

67,124,3,63,27,3,

67,124,3,63,26,3,

67,123,3,62,26,4,

67,122,4,63,27,4,

67,122,3,62,26,3,

66,121,3,62,26,4,

66,121,4,61,26,5,

66,120,3,61,27,3,

66,120,3,61,25,3,

65,120,4,60,26,3,

65,118,4,60,26,3,

65,118,3,60,25,3,

65,118,3,60,25,4,

65,117,4,59,25,3,

64,117,4,59,26,3,

64,117,4,59,25,3,

63,116,4,59,25,3,

63,115,3,58,25,4,

63,115,3,59,24,3,

63,114,4,58,24,3,

63,114,5,57,25,4,

62,113,3,57,25,5,

63,113,4,57,24,3,

62,113,3,57,24,3,

62,112,4,57,24,3,

61,111,3,56,24,4,

61,111,4,56,24,4,

61,111,4,56,24,5,

61,110,4,56,24,3,

60,109,4,56,23,3,

61,109,4,55,24,4,

60,108,4,55,23,3,

60,108,3,55,23,3,

59,107,4,54,23,3,

60,107,4,54,23,3,

60,106,3,54,23,3,

59,110,5,53,22,3,

59,109,4,54,22,3,

58,108,5,53,23,3,

58,108,3,53,23,3,

58,107,3,52,22,3,

57,107,3,53,22,4,

58,106,4,51,22,3,

57,105,4,51,22,3,

57,105,4,51,22,3,

57,105,4,51,22,4,

57,103,3,51,21,3,

57,103,4,50,22,4,

57,103,4,51,21,4,

56,103,3,50,21,3,

56,102,3,51,22,3,

56,102,4,50,21,3,

56,102,4,50,21,4,

55,101,4,50,20,3,

55,100,3,49,21,4,

55,99,4,49,20,3,

55,100,3,49,21,3,

54,99,3,49,20,4,

54,99,4,49,21,4,

54,99,3,49,20,3,

54,98,3,48,20,3,

54,98,3,48,21,3,

53,97,3,48,21,4,

53,97,4,48,20,3,

52,96,4,47,20,4,

52,96,3,48,20,3,

53,95,4,47,19,3,

52,96,3,47,19,3,

52,95,3,46,19,3,

52,95,4,47,19,4,

52,94,4,54,31,4,

51,93,3,64,30,4,

51,94,3,63,29,4,

51,93,4,63,30,3,

51,92,3,63,29,3,

51,93,3,62,29,4,

51,92,4,62,28,4,

50,92,4,62,29,3,

50,91,4,62,29,5,

50,90,3,61,28,4,

50,90,4,61,28,4,

50,90,4,60,28,3,

49,89,4,61,28,3,

50,89,3,60,28,3,

49,89,4,60,27,3,

48,89,4,60,28,4,

48,88,4,60,28,4,

49,88,4,60,28,4,

48,88,3,59,27,4,

48,88,3,59,27,3,

48,87,4,59,27,4,

48,87,4,59,26,3,

48,86,3,58,27,3,

47,86,4,57,27,4,

47,85,3,57,26,3,

47,85,3,57,26,3,

47,85,4,57,27,4,

47,84,3,56,25,4,

46,83,4,56,26,3,

47,83,3,57,25,3,

46,83,4,56,26,3,

46,83,3,56,25,4,

46,83,4,56,25,4,

46,83,3,55,25,3,

45,82,4,55,25,4,

45,82,4,55,25,3,

45,81,3,54,25,4,

45,81,4,54,25,4,

45,81,3,54,25,4,

44,80,4,54,25,4,

44,80,3,54,24,4,

45,79,3,53,24,3,

44,79,3,53,24,3,

44,79,3,52,24,4,

43,79,3,53,24,3,

44,78,3,52,25,4,

44,78,3,53,24,4,

43,77,3,52,24,4,

43,78,4,51,24,4,

43,78,4,51,24,3,

43,77,3,51,24,4,

43,77,4,51,25,4,

43,76,3,51,27,3,

42,77,4,51,27,3,

42,76,3,51,26,3,

42,76,3,50,27,4,

41,75,3,50,27,3,

42,75,3,51,26,4,

42,75,4,51,69,3,

42,74,4,51,68,4,

41,74,3,51,67,3,

41,74,3,51,67,3,

42,73,3,50,67,4,

40,73,4,50,66,4,

41,73,3,50,66,4,

41,71,3,50,65,4,

40,71,3,50,65,3,

39,71,3,49,65,4,

39,71,3,49,64,3,

39,71,3,49,65,3,

39,71,5,49,65,3,

39,71,3,48,63,4,

39,71,4,48,63,3,

39,71,4,48,63,4,

39,70,4,48,63,3,

39,70,4,47,63,4,

39,69,4,48,63,4,

39,69,3,48,62,3,

39,69,3,47,62,3,

38,69,4,46,61,3,

38,68,4,46,61,3,

39,68,4,46,61,4,

38,67,3,46,60,3,

38,67,4,47,61,3,

38,67,4,46,61,3,

38,67,3,46,60,3,

37,67,4,45,60,4,

37,66,4,45,60,5,

38,66,3,46,59,3,

37,67,3,45,65,4,

36,66,4,45,66,5,

36,65,3,47,65,5,

36,65,3,47,65,4,

37,65,3,47,63,3,

36,64,4,46,63,3,

36,65,3,47,63,4,

35,64,3,46,63,3,

35,64,3,47,63,4,

36,63,3,46,62,3,

36,63,3,45,62,5,

35,63,4,46,62,4,

35,63,4,45,62,4,

35,63,4,45,61,3,

35,63,3,45,61,3,

35,62,3,45,61,4,

34,62,3,45,60,3,

34,62,4,45,61,3,

34,62,4,44,60,4,

34,61,3,44,59,4,

34,61,3,44,60,4,

34,61,3,44,59,4,

34,61,4,44,59,3,

34,60,4,43,59,4,

33,60,3,44,58,4,

34,59,3,43,59,4,

34,59,4,43,58,4,

33,59,3,42,58,3,

33,59,3,42,57,3,

33,58,3,42,57,4,

33,59,3,42,57,4,

33,58,3,43,57,4,

32,58,3,42,56,4,

32,57,3,43,56,4,

32,58,4,42,56,4,

31,57,4,41,56,4,

31,57,4,41,56,4,

32,57,3,41,55,3,

31,56,4,41,55,3,

32,56,3,41,54,3,

31,56,3,41,55,3,

31,56,3,40,54,3,

31,56,4,39,54,3,

31,55,4,39,53,3,

31,55,4,39,53,4,

31,55,3,39,54,4,

31,55,3,39,53,3,

31,55,3,39,53,3,

31,55,4,39,52,3,

31,54,3,39,53,3,

30,54,3,39,51,3,

30,55,4,39,51,4,

30,53,4,39,51,4,

30,53,4,39,51,3,

30,53,3,38,51,3,

29,53,4,38,127,3,

30,53,4,39,124,5,

30,53,4,38,123,3,

29,52,3,38,123,4,

29,52,3,38,122,4,

29,52,3,37,121,3,

29,51,3,37,121,4,

29,51,4,37,120,3,

29,51,3,37,120,3,

29,51,4,36,119,3,

28,51,3,37,118,4,

28,50,3,37,117,4,

28,51,3,37,117,3,

29,50,3,37,115,4,

28,50,3,37,115,4,

28,49,5,36,115,4,

28,50,3,36,115,4,

34,49,3,36,114,3,

33,49,3,36,113,3,

33,49,4,35,113,3,

32,48,4,35,112,3,

33,49,4,35,112,3,

32,49,4,35,112,3,

32,48,3,35,111,3,

33,48,3,35,111,3,

31,48,4,34,110,3,

31,47,4,35,109,3,

31,47,4,35,109,3,

31,48,3,34,108,3,

31,47,3,35,108,3,

31,47,3,34,107,4,

31,46,4,34,107,4,

31,46,4,33,106,3,

31,46,3,33,106,3,

31,46,4,33,106,3,

31,45,3,33,105,4,

30,45,3,33,104,4,

31,46,4,32,103,4,

30,45,3,33,103,4,

30,45,4,33,103,4,

30,61,4,32,103,4,

29,60,4,33,103,4,

30,60,3,32,102,3,

29,59,3,31,102,3,

29,59,3,31,102,3,

29,59,3,32,100,3,

28,59,4,31,100,4,

29,59,3,31,99,3,

28,58,3,31,99,3,

29,58,3,31,99,4,

28,57,4,31,99,4,

28,58,4,31,99,3,

28,57,3,32,97,4,

28,57,4,32,97,3,

28,57,5,32,97,3,

28,57,4,31,96,4,

27,56,4,31,96,5,

28,56,3,32,96,4,

27,56,4,31,95,4,

27,55,3,31,95,4,

28,55,4,31,94,3,

27,54,4,31,94,4,

27,54,3,31,94,4,

26,54,4,30,93,3,

27,54,4,30,93,3,

26,53,3,30,93,3,

27,54,3,39,92,3,

27,53,3,73,92,3,

27,53,4,71,92,4,

26,89,4,71,92,4,

25,89,4,71,91,3,

26,88,3,71,90,4,

25,88,4,71,90,3,

26,88,4,71,90,3,

26,87,3,70,89,3,

25,86,3,70,88,4,

26,86,4,69,89,3,

25,86,4,69,88,4,

25,86,4,69,88,3,

25,84,4,68,88,3,

25,84,4,67,87,4,

25,83,4,68,87,3,

25,84,4,67,86,4,

24,83,3,67,86,4,

24,83,4,66,85,3,

24,82,3,67,85,3,

24,82,3,66,84,4,

24,82,4,65,84,3,

24,82,3,65,84,4,

24,82,3,65,83,5,

24,80,4,65,83,3,

24,81,4,65,83,3,

24,80,4,65,83,3,

24,79,4,65,82,4,

24,79,3,64,83,3,

24,79,4,63,81,4,

24,79,4,63,82,3,

23,78,3,63,81,4,

24,78,4,62,81,4,

23,78,4,62,80,3,

23,77,3,62,80,3,

23,77,4,62,80,3,

23,76,4,62,80,3,

23,77,4,62,79,3,

22,76,3,61,79,4,

23,76,4,61,79,4,

23,76,3,61,78,4,

77,75,4,60,78,3,

76,75,3,60,77,4,

76,75,3,60,77,3,

75,75,4,59,77,3,

75,74,4,60,76,4,

74,73,4,59,76,4,

74,73,3,59,76,4,

73,71,4,59,75,4,

73,71,3,58,76,4,

71,71,3,57,76,3,

71,71,4,58,75,4,

71,71,4,57,75,3,

71,71,5,57,74,4,

71,71,3,58,74,3,

71,71,4,57,73,4,

70,70,4,57,73,4,

71,70,3,57,74,3,

70,70,4,56,73,4,

70,70,3,56,71,3,

70,70,3,56,71,4,

69,68,4,56,71,5,

68,68,4,56,71,4,

68,67,4,55,71,4,

67,68,4,55,71,3,

67,68,4,54,71,4,

67,67,4,54,71,3,

67,67,3,54,70,3,

67,67,3,54,71,3,

66,66,4,53,69,3,

66,66,4,54,69,4,

66,66,4,53,69,3,

66,65,3,53,69,4,

65,65,3,52,68,3,

65,65,4,52,68,3,

65,65,3,52,69,4,

64,65,3,51,68,4,

63,64,4,51,67,4,

63,63,4,51,67,4,

63,63,3,51,67,3,

63,63,4,51,67,4,

63,63,3,51,67,4,

63,62,4,51,66,3,

62,63,3,50,65,4,

63,62,3,50,66,3,

62,62,3,49,65,3,

62,61,3,50,65,4,

61,61,4,50,65,3,

61,61,4,49,64,4,

61,61,4,50,63,4,

60,60,3,49,63,3,

60,60,4,48,63,4,

60,60,4,48,63,3,

60,60,4,48,63,4,

59,60,4,48,63,3,

59,60,4,48,62,3,

59,60,4,48,62,3,

59,59,4,47,62,3,

58,58,3,47,62,3,

58,58,3,47,62,4,

58,58,4,47,61,5,

58,58,3,48,61,3,

57,57,4,46,61,3,

57,57,3,47,60,4,

57,56,4,46,61,4,

56,56,3,47,61,3,

57,57,4,46,60,3,

56,56,4,45,60,4,

56,56,3,45,59,4,

56,56,4,46,59,4,

56,56,3,45,60,3,

56,56,3,45,58,3,

55,55,3,45,58,3,

55,55,4,45,58,4,

55,55,4,44,58,5,

54,55,3,44,57,4,

54,54,4,44,58,5,

53,53,3,43,57,3,

53,53,3,44,57,4,

53,53,3,43,57,3,

54,53,4,43,56,4,

53,53,4,43,56,3,

52,53,4,42,56,4,

52,52,3,42,56,4,

53,52,4,43,56,3,

52,51,3,42,56,4,

52,51,3,41,55,4,

51,51,4,42,55,3,

51,52,3,41,55,4,

51,51,4,41,55,3,

51,51,3,41,55,4,

51,50,4,40,55,4,

51,50,3,41,54,3,

50,50,4,40,55,3,

50,50,4,39,53,3,

50,50,4,41,53,3,

50,49,3,39,53,3,

49,50,4,39,52,5,

49,49,4,39,53,3,

49,49,4,39,52,3,

48,48,4,39,52,3,

49,48,3,39,51,4,

49,48,3,39,52,4,

48,49,4,39,52,3,

48,49,4,39,51,3,

48,49,3,39,51,3,

48,49,4,38,51,3,

48,48,3,38,50,4,

47,48,4,38,51,3,

48,49,3,38,50,4,

47,48,4,38,51,3,

46,48,3,38,50,3,

47,47,3,38,50,4,

46,47,3,38,50,4,

46,47,3,37,50,4,

46,47,4,37,50,4,

46,46,3,39,50,4,

63,46,4,39,49,4,

69,46,3,38,48,3,

70,47,4,39,49,4,

68,47,4,38,48,4,

67,46,3,38,48,4,

69,45,3,38,48,4,

67,46,3,38,48,3,

67,46,3,38,48,3,

67,45,3,38,47,3,

67,45,3,37,46,3,

66,45,3,37,46,3,

66,45,3,37,46,3,

66,44,4,37,46,3,

65,44,4,37,47,4,

65,45,4,37,46,3,

64,45,4,36,46,3,

65,45,4,37,46,3,

64,44,3,36,45,4,

63,44,4,37,45,4,

63,44,3,35,45,3,

63,43,3,35,45,3,

63,43,5,35,45,3,

62,43,3,35,45,4,

62,43,3,35,44,3,

63,43,3,34,44,4,

62,42,3,35,44,3,

61,42,3,34,44,3,

61,43,3,34,44,4,

61,42,3,34,43,3,

61,42,4,34,43,4,

61,42,4,34,43,4,

60,42,4,34,43,4,

60,41,4,34,43,4,

60,41,4,34,43,5,

60,41,4,33,43,3,

60,41,4,33,43,3,

58,41,4,33,43,3,

59,41,4,33,42,3,

59,41,3,32,42,4,

58,39,3,32,41,3,

57,39,3,32,42,3,

58,39,5,32,41,4,

58,39,3,31,41,3,

57,39,4,31,41,3,

57,39,4,31,41,4,

57,39,3,31,41,4,

56,39,3,31,40,3,

56,39,3,31,42,4,

56,39,3,31,51,3,

56,39,3,31,50,4,

56,39,3,31,50,4,

55,39,3,31,50,3,

56,38,5,31,50,3,

55,45,4,30,49,3,

55,44,4,30,49,3,

54,44,5,31,49,4,

54,44,3,30,49,4,

53,45,4,30,49,4,

53,44,3,30,48,4,

53,43,3,30,48,3,

53,44,4,29,48,3,

52,43,3,29,47,4,

52,43,3,29,47,3,

53,43,3,29,47,3,

51,42,4,29,47,4,

51,43,4,29,47,4,

52,42,3,29,46,3,

51,42,4,29,46,3,

51,42,3,29,46,3,

51,41,3,29,46,3,

51,41,3,28,46,3,

51,41,4,28,45,3,

51,40,3,28,45,3,

50,40,4,28,45,4,

50,41,4,29,45,4,

51,39,3,28,45,3,

49,39,3,28,44,3,

49,39,3,28,45,3,

50,39,3,28,44,4,

49,39,3,27,44,3,

49,39,4,27,44,4,

48,39,3,27,44,3,

48,39,4,27,43,3,

48,39,4,27,43,4,

48,38,4,27,43,4,

48,38,4,27,43,3,

48,39,4,27,43,3,

48,38,3,27,43,4,

48,38,4,26,43,3,

47,38,3,27,48,5,

48,37,4,27,49,3,

47,37,4,26,48,3,

46,37,3,26,48,4,

46,37,3,26,48,3,

46,37,4,26,48,3,

45,37,3,26,47,3,

46,37,3,25,48,3,

45,37,4,25,47,4,

45,36,3,25,46,4,

45,36,3,25,46,4,

45,36,4,25,46,3,

45,35,3,25,46,3,

45,35,3,25,46,4,

44,36,3,25,45,3,

44,35,4,24,45,3,

44,39,5,25,46,3,

50,48,4,24,44,4,

51,50,4,24,44,3,

50,49,3,24,44,3,

50,49,4,25,44,4,

49,48,3,24,44,4,

49,49,3,25,43,3,

50,48,3,24,44,3,

49,48,4,24,44,3,

49,48,3,24,43,4,

49,48,3,24,42,4,

49,48,4,24,42,3,

48,65,5,24,43,4,

48,63,3,24,42,4,

48,63,3,24,42,4,

47,63,3,24,42,4,

47,63,3,24,42,3,

47,63,4,23,41,3,

47,63,3,23,41,3,

47,62,3,24,41,3,

47,61,3,23,41,3,

46,61,3,23,40,5,

45,62,3,23,40,3,

46,61,4,23,41,4,

45,60,5,24,39,3,

45,60,4,23,41,4,

45,60,3,24,39,3,

45,59,4,23,39,3,

44,60,4,22,39,4,

45,60,3,22,39,3,

45,59,3,23,39,4,

44,59,3,23,39,3,

44,58,3,22,39,4,

43,58,4,21,39,3,

44,58,3,22,38,4,

43,57,4,22,38,3,

44,58,3,21,39,3,

43,57,3,22,38,3,

43,56,4,21,38,3,

42,57,3,22,38,3,

42,57,4,22,38,4,

42,56,3,22,37,3,

42,56,4,22,38,3,

42,56,4,21,37,4,

41,56,4,21,37,4,

41,55,3,21,37,4,

42,55,4,20,37,4,

41,54,3,20,36,3,

40,54,4,21,37,5,

41,54,3,21,35,3,

41,54,3,20,35,3,

39,54,4,20,35,3,

41,53,3,20,35,3,

41,53,3,21,36,4,

39,53,4,20,35,4,

39,53,3,19,35,4,

39,52,4,20,35,3,

39,51,3,20,35,3,

39,52,4,19,35,3,

39,51,3,19,34,3,

39,51,4,19,35,4,

39,51,4,19,34,3,

39,51,4,19,34,4,

39,50,3,19,34,3,

39,51,4,19,35,3,

38,50,3,19,34,4,

38,50,3,19,33,4,

39,50,4,18,33,4,

38,49,3,18,34,4,

37,49,3,19,33,4,

37,49,3,19,33,3,

37,49,3,18,33,3,

37,49,3,18,32,3,

37,48,3,18,33,3,

37,48,3,18,33,4,

37,48,4,19,32,3,

36,48,3,18,31,3,

36,48,4,18,33,4,

36,47,4,18,31,3,

35,47,4,18,31,4,

39,47,4,18,31,3,

39,47,3,17,31,3,

39,47,3,17,31,4,

38,47,4,17,31,4,

38,47,3,17,31,3,

38,46,4,17,31,4,

37,46,3,17,31,3,

38,45,3,17,32,4,

37,46,3,24,32,4,

38,46,3,41,32,3,

36,45,4,41,32,4,

37,45,3,39,31,4,

36,47,4,40,32,3,

37,68,3,39,32,4,

36,67,4,39,31,4,

75,67,4,39,31,3,

74,67,4,39,31,4,

74,67,3,39,31,3,

73,66,3,39,31,3,

73,66,4,39,31,4,

73,65,4,39,31,4,

71,65,4,39,30,3,

71,65,3,38,30,3,

71,65,4,38,30,4,

71,65,3,37,30,3,

71,63,3,38,30,4,

70,63,3,37,30,4,

71,63,3,37,30,3,

69,63,3,37,30,3,

69,63,4,37,30,4,

69,63,3,38,29,4,

68,62,3,36,29,3,

69,62,4,37,29,3,

68,61,3,37,29,4,

68,61,3,37,29,4,

67,61,5,35,29,3,

67,61,4,36,29,3,

67,60,4,35,29,3,

67,61,3,35,28,4,

67,60,3,35,29,4,

67,60,3,35,28,3,

66,59,3,35,28,4,

66,60,3,35,28,4,

65,59,4,35,28,3,

65,58,4,35,28,5,

65,58,3,34,28,4,

65,58,4,34,28,3,

65,57,3,34,27,4,

64,57,3,33,28,4,

63,57,4,33,27,3,

63,57,3,34,27,4,

63,57,3,33,27,3,

63,56,4,34,27,4,

62,56,3,33,26,3,

62,56,5,33,26,4,

61,56,3,33,27,4,

62,56,3,33,26,3,

61,56,3,32,26,3,

61,55,4,32,27,4,

60,54,4,31,27,4,

61,55,3,31,27,4,

61,55,3,31,26,3,

60,54,3,47,25,3,

60,54,3,47,25,3,

60,53,3,45,25,4,

59,53,3,46,26,4,

59,53,4,45,25,3,

58,53,3,45,25,3,

58,53,4,45,25,4,

57,52,3,44,25,3,

57,51,4,45,25,4,

58,51,3,44,25,4,

58,51,4,44,24,4,

57,51,3,44,24,4,

57,51,4,43,25,3,

56,51,3,44,24,3,

57,94,4,43,24,4,

57,107,3,43,24,4,

56,106,3,43,24,4,

56,105,4,42,24,4,

56,105,4,42,24,3,

55,103,4,42,23,4,

55,103,4,42,24,3,

55,103,4,42,24,4,

55,103,4,41,23,3,

54,102,3,41,24,4,

55,102,3,41,23,3,

53,101,4,41,23,4,

53,101,4,41,23,3,

53,100,3,40,23,4,

53,99,3,41,23,3,

52,99,4,41,23,4,

52,98,4,73,23,4,

53,98,4,71,22,3,

51,98,4,71,22,4,

51,98,4,71,22,4,

51,97,4,71,22,3,

51,97,4,70,22,3,

51,96,3,70,22,4,

51,96,4,70,22,4,

51,95,4,69,22,4,

51,95,4,69,21,4,

50,95,4,69,22,4,

50,94,4,68,21,3,

50,93,3,68,22,4,

50,93,3,69,21,3,

49,92,4,67,21,3,

50,92,3,67,22,4,

49,92,4,67,21,4,

48,91,4,66,20,3,

48,91,4,67,20,4,

49,91,3,66,21,3,

48,90,4,65,20,4,

48,90,3,65,21,4,

48,90,3,65,20,4,

47,89,4,65,19,4,

48,88,3,63,20,4,

47,88,4,64,19,4,

47,88,3,64,21,3,

47,88,3,63,20,4,

46,88,4,63,19,4,

46,87,4,63,20,4,

46,87,3,63,19,3,

45,86,3,62,19,5,

45,86,3,62,19,4,

45,85,4,62,19,5,

46,85,4,63,19,4,

45,85,4,71,19,4,

45,85,3,71,19,4,

45,84,3,71,19,4,

44,83,4,71,19,4,

45,83,4,70,19,4,

45,82,3,70,18,4,

63,83,3,69,18,3,

69,82,3,69,19,4,

69,83,3,69,19,4,

68,81,3,69,18,4,

67,81,3,69,18,3,

68,81,4,69,18,4,

67,80,3,67,19,3,

67,79,3,68,19,4,

67,80,4,67,18,3,

67,79,3,67,18,4,

67,79,3,67,18,4,

65,78,4,67,18,3,

65,78,3,66,17,4,

65,78,3,66,17,3,

65,78,3,66,18,4,

64,77,4,65,18,4,

64,78,4,65,17,4,

65,76,4,65,17,3,

63,76,4,65,17,3,

63,76,3,64,18,4,

63,76,4,65,18,3,

63,75,4,64,17,4,

62,76,3,63,17,4,

62,75,4,63,17,3,

62,74,3,63,17,3,

62,74,4,63,16,3,

62,74,4,62,17,4,

62,73,4,63,17,4,

61,73,3,62,17,3,

61,73,4,62,16,4,

60,71,3,62,17,4,

61,71,3,62,17,4,

60,71,3,61,16,3,

60,71,3,61,16,4,

59,71,4,61,16,3,

60,71,4,60,16,3,

65,71,3,60,16,5,

65,71,3,59,16,3,

65,70,4,60,15,4,

65,70,3,59,16,3,

63,70,4,59,15,3,

63,69,3,59,16,4,

63,69,3,58,15,3,

63,68,3,58,17,4,

63,68,3,57,16,4,

62,68,4,57,16,4,

62,67,5,57,15,3,

62,67,3,57,15,3,

62,67,4,57,27,4,

62,67,3,57,29,4,

61,67,4,57,29,4,

61,66,3,56,29,5,

61,66,3,56,29,4,

60,66,4,56,28,4,

60,65,4,55,28,5,

60,65,3,56,28,4,

60,65,4,54,29,4,

59,64,3,55,28,4,

59,64,3,54,28,3,

59,64,5,54,28,3,

59,64,3,54,28,3,

58,63,3,54,27,3,

58,63,4,54,27,4,

57,65,4,53,28,3,

58,76,3,54,28,4,

57,76,4,53,27,4,

58,75,5,53,26,3,

58,75,3,52,27,4,

58,75,3,51,27,4,

57,75,3,51,27,3,

57,74,3,51,26,4,

56,74,3,51,26,3,

56,73,4,51,25,3,

56,73,4,51,25,4,

56,73,3,51,25,3,

56,71,4,51,26,3,

55,71,4,51,26,4,

55,71,4,50,25,3,

55,71,3,50,25,3,

54,71,3,50,25,3,

54,71,3,49,24,3,

54,71,3,49,25,3,

54,70,4,50,24,4,

54,70,3,48,24,4,

53,70,4,49,48,4,

53,70,4,48,47,4,

53,69,4,48,47,4,

52,69,3,48,47,3,

53,69,3,48,47,4,

53,69,4,48,46,3,

53,69,4,48,46,3,

51,69,4,48,45,5,

51,68,3,54,45,3,

51,68,3,56,45,5,

51,67,4,54,45,4,

51,67,3,55,45,3,

51,66,3,55,44,3,

50,66,3,54,44,3,

51,66,3,53,44,3,

50,66,4,54,44,4,

50,65,3,53,44,3,

50,65,4,52,43,4,

50,65,3,53,43,3,

49,64,3,52,43,3,

49,64,4,51,42,3,

49,63,4,52,43,4,

48,64,4,51,42,3,

48,63,4,51,42,5,

48,63,4,51,41,4,

48,63,3,51,41,4,

48,63,4,50,41,4,

48,62,4,50,41,3,

47,62,4,50,41,3,

47,61,4,50,41,3,

47,62,3,50,41,5,

47,61,4,49,39,3,

46,61,4,49,39,4,

47,61,4,49,39,3,

46,60,4,49,39,4,

46,60,4,49,39,4,

45,60,4,48,39,4,

45,59,3,48,39,3,

45,60,4,48,39,3,

45,60,3,48,39,4,

45,59,3,48,39,4,

45,59,3,48,38,3,

45,59,3,48,39,3,

44,58,4,47,38,4,

44,58,3,48,38,4,

44,58,4,46,38,4,

44,57,3,46,38,3,

43,58,3,46,37,3,

44,57,4,46,37,3,

43,56,5,46,37,3,

42,57,3,46,37,3,

43,56,4,45,37,3,

43,57,4,46,36,4,

42,56,3,45,36,3,

42,56,4,45,36,4,

42,65,4,45,36,3,

41,65,5,46,36,3,

42,65,4,46,35,4,

41,64,4,46,35,3,

41,63,3,46,35,4,

41,64,3,45,35,3,

41,63,3,45,36,3,

41,63,3,45,35,3,

40,62,3,44,35,4,

39,62,4,45,34,4,

39,62,3,44,35,3,

39,62,4,44,34,3,

39,62,3,44,34,3,

39,62,4,44,34,3,

39,61,3,44,34,3,

39,61,4,43,34,4,

39,60,3,43,34,3,

39,60,4,43,33,3,

39,60,3,43,33,3,

39,59,4,43,33,4,

39,60,3,42,32,3,

38,59,4,42,33,3,

38,59,3,41,33,3,

38,59,3,42,32,4,

38,59,4,42,33,4,

37,58,3,41,32,3,

37,57,3,42,31,4,

38,58,3,41,31,4,

37,57,3,41,31,4,

37,57,3,41,32,4,

