
24,23,4,76,17,3,

24,22,4,76,17,3,

24,22,3,75,16,3,

24,23,3,75,17,4,

24,23,4,74,16,4,

24,22,4,75,16,3,

24,21,3,74,16,4,

24,22,3,74,16,3,

23,22,4,74,15,3,

23,22,4,73,16,3,

24,21,4,73,16,3,

23,21,4,71,15,3,

23,21,3,71,15,5,

23,21,4,71,16,4,

22,21,4,71,16,4,

22,21,4,71,15,4,

23,21,4,71,15,5,

23,20,3,71,15,3,

28,35,4,71,15,4,

42,48,5,71,15,3,

41,46,5,70,15,4,

41,46,3,70,15,3,

41,46,4,70,15,4,

39,46,4,69,15,3,

41,46,3,70,15,4,

39,45,4,69,15,3,

40,46,3,68,15,4,

39,45,4,68,15,4,

39,44,4,67,22,4,

39,45,4,68,29,3,

39,44,3,67,29,4,

39,44,4,67,28,3,

39,56,4,67,28,4,

39,55,4,67,28,4,

38,55,5,66,28,4,

38,55,4,66,27,4,

38,54,4,66,27,3,

38,54,4,65,27,3,

37,54,3,65,27,4,

37,54,5,65,27,4,

37,53,4,65,27,4,

37,53,4,63,27,4,

36,53,4,64,27,4,

37,53,4,64,27,3,

36,52,4,63,27,3,

37,51,4,63,26,4,

36,52,4,63,25,3,

36,51,4,63,26,3,

36,51,3,62,27,4,

35,51,3,62,26,4,

36,50,4,62,25,4,

35,50,3,62,26,4,

35,50,4,61,25,3,

35,49,4,62,26,4,

35,49,4,61,25,3,

35,49,4,61,25,4,

34,50,4,60,26,3,

35,49,4,60,24,4,

34,49,4,61,30,4,

34,48,4,60,30,3,

34,48,5,60,31,3,

33,48,4,59,30,4,

34,48,4,59,30,4,

33,48,4,59,30,4,

33,48,3,59,30,4,

33,47,3,58,30,4,

33,46,3,59,30,3,

33,47,3,57,29,4,

33,46,3,57,29,4,

33,47,4,57,29,3,

32,47,4,57,29,4,

32,46,3,57,29,4,

32,46,4,57,28,4,

32,46,4,57,28,3,

32,46,3,56,28,5,

31,45,3,56,28,4,

31,45,3,56,27,4,

31,44,5,56,29,4,

31,45,3,56,28,4,

31,45,4,56,27,3,

31,44,4,55,28,4,

31,44,4,55,27,3,

31,43,3,55,27,3,

31,44,3,54,27,5,

31,43,3,54,27,4,

31,43,3,54,27,3,

31,43,3,53,27,4,

31,43,3,53,27,4,

31,43,4,53,26,3,

31,42,3,53,26,4,

31,42,4,53,26,4,

31,42,3,52,25,4,

31,41,4,52,27,4,

31,41,3,51,26,4,

30,41,3,52,26,4,

30,41,3,51,25,3,

31,42,5,51,25,4,

30,41,4,52,25,4,

30,39,4,51,25,4,

30,40,3,51,25,4,

30,39,4,51,25,4,

30,39,3,51,25,3,

29,39,4,50,24,3,

29,39,4,50,24,3,

29,39,4,50,25,4,

29,39,4,49,24,3,

29,39,3,49,24,5,

29,39,4,49,25,3,

29,39,3,50,24,4,

28,38,5,49,24,3,

28,38,4,48,24,3,

28,39,5,49,24,4,

28,38,4,48,24,3,

28,38,3,48,25,3,

28,38,5,48,24,4,

27,38,3,48,24,3,

27,38,4,48,24,4,

28,37,4,48,24,4,

28,37,4,47,24,3,

27,36,3,47,24,4,

27,37,3,47,24,3,

27,36,4,47,24,3,

27,36,3,47,24,3,

26,36,4,47,24,4,

26,36,4,46,23,3,

27,36,5,46,23,3,

26,36,4,46,23,3,

26,35,4,45,22,4,

25,36,4,46,22,4,

25,35,4,45,22,4,

26,35,3,45,22,4,

25,35,3,45,23,4,

25,34,3,45,21,4,

26,35,3,45,21,3,

25,35,4,45,22,3,

25,35,4,43,21,4,

25,34,4,44,22,4,

25,33,3,44,22,4,

25,34,4,44,22,4,

25,34,3,44,21,3,

25,33,4,44,21,4,

24,33,4,43,21,3,

24,33,3,43,21,4,

24,33,4,43,20,3,

24,33,4,43,21,4,

24,33,4,43,20,3,

24,33,3,41,20,4,

24,32,3,42,19,4,

24,31,4,42,21,4,

23,33,4,42,20,4,

23,31,4,41,19,4,

24,32,4,42,20,4,

23,31,4,41,19,4,

24,31,4,41,19,3,

22,31,3,41,19,4,

23,31,4,41,20,3,

23,31,3,42,19,3,

23,31,4,42,19,4,

23,30,4,41,19,4,

22,31,3,41,19,4,

22,30,4,41,19,3,

22,30,3,41,18,4,

22,30,4,41,19,3,

24,30,3,39,19,4,

23,29,3,41,18,4,

22,29,4,39,18,4,

22,30,5,39,18,4,

22,30,4,39,18,4,

22,30,4,39,18,4,

22,29,4,39,18,4,

22,29,4,39,19,4,

22,29,3,39,18,3,

21,28,3,39,18,4,

21,29,4,39,17,5,

21,28,3,39,18,3,

22,28,4,38,17,4,

21,28,4,38,17,4,

22,28,3,38,17,3,

21,27,3,38,18,4,

21,28,3,38,17,4,

21,27,4,38,17,3,

20,28,5,38,17,4,

21,27,4,37,17,4,

20,28,5,38,16,3,

20,27,3,37,17,4,

19,27,4,38,16,4,

20,27,4,50,16,4,

19,27,4,54,17,3,

20,27,4,53,16,4,

24,27,3,53,16,3,

24,27,3,52,16,5,

25,26,3,52,16,4,

24,26,4,52,15,4,

24,26,3,52,16,3,

24,25,4,52,16,3,

24,26,3,51,15,4,

24,25,4,51,15,4,

24,26,4,51,16,3,

24,25,4,51,19,4,

23,25,4,50,21,4,

24,25,4,50,20,3,

24,25,5,50,19,3,

24,25,3,50,20,4,

24,25,4,50,19,3,

24,25,4,49,19,3,

24,24,3,49,19,4,

24,24,4,49,19,4,

23,24,3,48,19,3,

23,24,4,48,19,4,

23,25,4,48,19,3,

24,25,3,48,19,4,

23,24,4,48,19,4,

23,24,3,48,19,3,

22,24,4,47,19,3,

22,24,3,47,18,4,

25,24,4,47,18,4,

24,24,3,47,18,5,

24,24,4,46,18,3,

24,24,3,46,18,4,

24,23,4,47,18,4,

24,23,4,45,18,5,

24,24,3,45,18,3,

24,23,3,46,18,4,

24,22,4,45,18,5,

24,23,3,44,18,4,

23,22,4,45,19,3,

24,23,3,45,18,5,

23,22,4,45,17,3,

23,22,3,44,18,4,

23,22,3,45,18,4,

22,22,3,44,18,4,

22,23,4,44,18,5,

22,22,3,44,18,3,

22,21,4,43,18,5,

23,22,3,43,17,4,

22,21,4,43,17,3,

22,21,3,42,17,3,

22,22,3,43,17,4,

21,22,4,42,17,3,

21,22,4,42,19,4,

28,22,5,43,18,4,

29,21,3,41,18,4,

30,21,4,41,18,3,

29,21,3,41,18,4,

29,20,4,41,19,3,

29,21,3,41,17,4,

29,20,4,41,17,3,

28,21,3,41,18,5,

28,20,4,41,17,4,

28,20,4,39,17,3,

27,21,5,39,17,3,

28,20,3,43,17,5,

28,21,4,49,17,3,

27,19,4,48,16,4,

27,19,3,48,16,3,

27,20,3,48,18,3,

27,19,3,48,17,4,

26,19,4,48,16,3,

26,19,3,47,16,4,

26,19,4,47,16,5,

26,19,3,47,16,4,

26,19,3,47,15,4,

26,19,4,46,16,4,

26,19,4,46,15,4,

25,19,4,46,15,4,

25,19,4,46,16,4,

26,18,3,45,16,4,

26,18,3,45,15,4,

25,19,3,46,15,4,

25,18,4,46,15,4,

25,18,3,45,16,3,

25,18,5,45,15,4,

24,18,3,45,15,4,

25,18,4,45,15,4,

24,17,3,45,16,4,

24,17,3,44,15,3,

25,18,4,44,15,3,

24,18,3,44,15,4,

24,17,4,43,15,4,

24,17,3,44,15,3,

24,17,4,44,21,4,

24,17,3,43,23,4,

57,18,4,43,23,4,

91,56,4,43,23,4,

90,56,3,42,23,3,

89,56,4,43,22,4,

89,56,4,42,22,3,

88,55,4,43,22,4,

88,55,4,42,22,5,

88,54,3,42,22,4,

87,54,3,42,21,4,

87,53,4,41,22,4,

86,54,3,41,22,4,

85,54,3,41,21,3,

85,53,3,41,21,3,

85,53,4,39,22,4,

84,53,3,39,21,3,

84,57,3,39,22,4,

83,58,4,39,22,3,

83,58,3,39,22,4,

83,57,4,39,21,3,

82,57,3,39,21,4,

82,57,3,39,20,4,

82,56,5,39,21,3,

82,56,4,39,21,3,

81,56,4,41,20,3,

81,71,4,41,21,3,

80,80,4,41,20,4,

79,89,3,41,19,4,

80,103,4,41,19,3,

79,102,4,39,21,3,

79,101,4,39,19,3,

78,101,3,39,19,4,

78,100,5,39,19,3,

77,99,4,39,19,4,

78,99,4,39,19,3,

77,98,4,39,19,3,

77,98,4,39,19,4,

76,97,4,39,19,4,

77,97,4,39,19,4,

76,98,4,39,19,3,

76,98,4,39,19,3,

75,98,3,39,19,5,

75,97,4,39,19,4,

75,96,4,38,19,3,

74,96,4,38,18,4,

74,96,4,38,18,3,

73,96,4,37,19,4,

74,95,4,37,18,4,

73,95,3,37,19,3,

73,94,4,37,18,4,

71,94,4,37,18,3,

74,93,4,36,19,4,

140,137,4,36,18,3,

139,135,3,37,18,3,

137,135,4,36,17,4,

137,134,4,37,17,3,

136,133,4,43,18,3,

135,133,5,43,18,4,

135,131,4,42,17,3,

134,131,4,42,18,4,

133,130,4,42,18,3,

133,130,5,41,18,4,

132,129,4,42,18,3,

131,128,4,41,17,3,

131,127,4,41,17,3,

130,127,4,41,17,4,

129,126,3,40,31,5,

129,126,4,39,30,4,

127,125,4,39,29,4,

127,124,4,39,29,3,

127,124,4,39,29,3,

126,123,4,39,29,3,

125,123,4,39,29,4,

125,122,3,39,29,3,

124,121,4,39,29,4,

127,121,4,38,28,3,

126,121,4,39,28,4,

126,120,4,38,27,4,

126,119,4,39,28,4,

124,118,4,38,28,3,

124,118,3,37,27,4,

124,118,5,37,69,4,

123,117,4,38,101,3,

122,116,4,37,100,3,

121,116,3,76,99,4,

121,115,4,122,99,4,

120,115,4,120,98,3,

120,114,3,120,98,3,

120,113,5,119,97,4,

119,113,3,118,96,4,

117,112,4,117,96,5,

117,112,4,117,96,4,

116,112,4,115,94,3,

116,111,4,115,94,4,

115,110,4,115,94,4,

115,109,3,114,94,4,

114,109,3,114,93,4,

114,108,3,113,93,4,

113,108,4,112,92,4,

113,116,5,112,92,5,

113,176,3,112,91,3,

111,174,4,111,91,5,

111,173,3,110,90,4,

111,172,3,110,89,3,

110,171,5,109,89,4,

110,170,3,108,89,4,

109,169,4,108,88,3,

109,167,3,108,88,4,

146,167,4,107,88,3,

144,166,3,106,87,5,

195,166,4,105,86,3,

255,164,5,105,86,3,

282,163,3,104,86,4,

281,163,4,103,85,4,

279,162,3,103,85,5,

350,161,4,103,85,5,

409,159,4,103,84,4,

405,159,3,193,84,3,

401,158,4,220,83,5,

399,158,4,230,82,4,

396,157,4,227,82,3,

393,156,4,227,81,4,

391,187,3,226,81,3,

387,184,4,225,81,5,

385,184,4,223,80,4,

384,182,4,221,79,4,

381,181,4,221,80,5,

421,180,5,220,79,3,

417,179,4,218,79,3,

413,178,3,217,78,4,

410,178,3,216,78,4,

408,177,4,216,78,4,

405,175,4,214,77,3,

403,174,4,212,77,4,

399,174,5,211,76,5,

398,172,3,210,76,4,

395,172,4,209,76,4,

391,171,4,207,75,4,

391,169,4,207,75,4,

388,169,4,206,78,4,

385,167,5,206,78,4,

384,169,4,205,78,5,

382,167,5,203,77,5,

379,165,4,202,77,5,

376,165,5,201,76,4,

374,164,4,199,76,4,

371,163,5,199,76,5,

370,162,5,199,76,4,

368,162,4,197,75,4,

366,161,5,197,75,5,

364,161,4,195,75,4,

362,159,4,195,75,4,

359,159,5,194,74,4,

358,158,4,193,73,4,

355,157,5,192,74,5,

369,156,5,191,73,4,

366,156,4,190,73,4,

364,154,5,189,71,4,

361,154,4,188,71,4,

359,153,4,188,71,4,

357,152,5,186,71,4,

355,152,4,185,71,4,

353,151,5,184,71,5,

352,150,5,184,70,5,

349,149,5,184,70,5,

348,153,5,183,69,4,

345,151,4,182,69,4,

344,150,4,180,68,4,

342,149,4,180,68,4,

339,149,5,179,67,5,

338,147,5,179,69,5,

336,147,5,177,67,5,

335,147,4,177,67,4,

333,146,5,176,67,5,

331,145,5,175,67,5,

329,145,5,175,66,4,

327,143,4,173,66,5,

326,143,6,173,66,5,

325,143,5,172,65,5,

323,142,5,171,65,5,

321,142,6,170,65,4,

319,140,5,169,64,5,

318,140,6,169,65,5,

316,139,6,167,72,5,

314,139,6,167,83,6,

313,138,5,167,83,6,

312,137,6,166,82,6,

310,137,6,165,82,6,

307,137,6,165,81,6,

306,137,6,163,81,6,

305,135,5,163,81,5,

304,135,6,162,80,5,

302,135,6,161,79,6,

300,134,6,160,79,6,

300,134,6,159,79,6,

298,133,7,159,127,6,

295,133,6,159,126,6,

295,131,6,158,125,6,

293,131,7,157,124,6,

291,130,6,156,123,6,

289,130,6,156,123,7,

353,183,6,154,122,7,

349,181,6,153,121,6,

347,179,6,153,121,7,

344,178,6,152,140,6,

343,177,6,152,140,6,

340,177,7,151,139,6,

338,175,6,151,138,7,

336,175,6,149,137,6,

334,173,7,149,135,6,

332,172,7,148,135,6,

330,172,6,147,135,7,

327,171,7,147,134,6,

326,169,6,146,133,6,

324,169,7,145,132,6,

323,167,6,145,131,6,

321,167,6,145,131,6,

318,167,5,143,130,5,

316,165,6,143,129,6,

315,165,6,142,129,6,

313,163,6,142,129,7,

312,179,6,141,127,6,

310,177,6,141,127,7,

307,177,6,139,126,6,

306,175,6,140,125,5,

304,174,6,138,124,6,

303,174,6,137,124,6,

301,173,6,137,123,6,

300,171,6,137,123,6,

297,171,6,135,122,5,

295,170,6,135,122,6,

295,169,6,135,121,6,

293,167,6,134,120,6,

291,167,5,133,120,6,

289,166,6,133,119,5,

287,166,5,132,118,5,

286,163,6,132,119,5,

286,163,6,131,118,5,

284,163,5,130,117,5,

282,161,6,130,116,6,

280,161,6,129,115,6,

280,159,5,129,115,6,

278,159,6,128,114,5,

276,158,5,127,114,5,

275,172,6,127,113,6,

273,173,6,126,112,5,

271,172,6,126,112,5,

271,172,6,126,111,5,

269,171,5,125,110,6,

268,169,6,124,110,6,

267,167,5,124,110,5,

265,167,6,123,109,6,

263,167,6,123,123,6,

263,166,6,122,122,5,

262,164,5,122,122,6,

260,164,6,121,121,5,

259,163,5,120,120,6,

258,163,5,120,119,5,

255,162,5,120,119,5,

255,161,6,119,118,5,

254,159,5,119,117,5,

252,159,6,118,116,5,

263,159,5,117,115,5,

263,158,5,117,115,5,

262,157,6,116,115,5,

259,156,5,116,114,5,

258,155,5,115,114,5,

257,153,6,115,113,5,

255,153,5,114,112,5,

254,153,5,114,112,6,

252,152,5,114,111,5,

251,151,5,113,111,5,

250,150,5,112,110,5,

249,150,5,112,109,5,

248,149,5,112,109,5,

246,147,5,111,109,5,

245,147,5,110,108,5,

244,147,5,110,107,5,

242,145,5,109,107,6,

241,145,5,109,107,5,

241,143,5,108,105,5,

239,143,5,108,105,6,

238,143,5,107,103,5,

237,142,6,107,103,5,

236,141,5,107,103,5,

235,141,5,107,103,5,

233,140,5,105,103,5,

233,171,5,105,102,5,

231,169,4,105,102,5,

230,168,5,103,101,5,

229,167,5,103,100,5,

227,167,5,103,99,5,

227,165,5,103,99,5,

226,165,5,102,99,5,

225,165,5,102,98,5,

224,163,4,101,99,4,

223,162,4,102,97,5,

222,161,5,101,97,5,

222,160,4,100,97,5,

221,159,5,100,96,6,

219,159,5,99,96,5,

219,158,5,99,96,5,

217,157,5,98,96,5,

217,157,5,98,95,4,

216,156,5,98,94,5,

215,156,4,97,94,5,

214,154,4,97,94,5,

213,154,5,96,93,4,

211,152,4,96,93,4,

211,152,6,96,93,5,

209,152,4,95,92,5,

209,151,5,95,92,5,

208,151,4,94,91,5,

207,149,5,94,91,5,

206,148,5,94,90,4,

206,147,5,94,89,4,

204,147,5,93,89,5,

204,147,4,93,89,5,

203,146,5,93,88,4,

203,145,5,92,88,4,

202,143,4,92,88,5,

199,143,5,92,88,5,

199,143,5,91,87,4,

199,142,4,91,86,4,

199,142,4,90,86,5,

198,141,5,90,86,5,

196,140,4,89,85,4,

195,140,5,89,86,5,

194,139,4,89,85,4,

194,138,5,89,84,4,

193,138,4,88,86,4,

193,137,4,88,86,5,

192,137,4,88,86,4,

191,135,5,88,86,4,

190,135,4,87,85,4,

189,135,4,86,85,4,

188,134,5,86,84,5,

188,134,5,86,84,5,

187,133,5,85,83,3,

186,133,4,85,83,5,

186,132,5,85,82,4,

184,131,4,85,82,5,

184,130,4,84,82,4,

183,130,3,83,82,5,

183,130,5,83,81,4,

182,129,4,83,81,5,

181,129,5,82,81,5,

180,127,4,82,80,4,

179,127,4,82,79,5,

179,127,5,82,79,4,

178,126,4,82,79,5,

177,126,5,81,79,5,

177,125,5,80,78,4,

176,125,4,81,78,5,

176,138,4,80,78,5,

219,169,4,79,77,5,

217,167,5,79,76,5,

216,167,5,81,77,5,

215,165,4,81,76,5,

213,165,4,80,76,4,

213,163,5,80,76,4,

211,163,4,79,76,5,

211,162,4,79,75,4,

209,162,4,79,75,4,

208,160,4,79,85,5,

207,167,4,114,113,5,

206,167,5,114,112,4,

205,165,5,113,111,5,

204,164,4,112,111,4,

203,163,3,112,110,5,

201,162,3,111,110,4,

199,161,4,111,108,4,

199,159,5,110,108,5,

198,159,4,109,108,4,

198,159,4,109,107,5,

196,158,5,108,106,4,

195,157,4,108,106,4,

194,157,5,107,105,3,

193,156,4,106,103,4,

192,154,5,105,103,4,

191,153,5,106,103,5,

191,153,5,105,103,4,

190,152,5,103,103,4,

188,152,4,103,102,4,

187,150,5,103,101,5,

186,149,4,103,100,3,

185,149,5,102,100,3,

184,149,5,102,100,4,

184,147,4,102,99,4,

182,147,4,100,98,5,

182,146,4,101,98,4,

181,145,4,100,97,4,

180,144,3,99,97,4,

179,143,4,99,97,3,

179,143,4,98,96,4,

178,142,4,98,96,3,

177,142,4,97,96,5,

176,141,4,97,96,4,

175,140,5,97,96,4,

195,141,4,96,94,4,

194,140,4,95,94,4,

193,139,4,96,94,4,

192,139,4,95,93,4,

190,138,4,94,93,4,

190,137,4,95,92,4,

189,137,4,93,92,4,

188,137,4,92,92,4,

187,135,4,93,91,4,

185,135,4,92,91,4,

185,135,4,92,90,4,

184,134,5,91,89,4,

183,134,3,91,89,4,

182,133,4,91,89,5,

182,132,5,89,88,4,

181,132,4,89,88,4,

179,130,4,89,88,4,

179,131,4,89,88,4,

178,130,3,89,87,3,

178,129,4,88,87,4,

176,129,4,88,86,4,

175,127,4,87,85,4,

174,127,4,87,86,4,

174,127,3,87,86,4,

173,126,5,87,84,3,

173,125,3,86,84,4,

172,125,4,86,83,4,

171,124,4,85,83,3,

170,124,4,85,83,4,

169,124,4,85,83,4,

168,123,4,84,81,4,

167,123,4,83,81,4,

167,123,5,83,81,4,

167,121,4,83,81,4,

166,121,3,83,80,4,

165,120,4,82,80,4,

165,120,5,82,80,3,

163,119,4,81,79,4,

163,119,4,80,79,4,

163,118,3,81,79,4,

162,117,4,79,78,4,

161,117,4,79,78,4,

161,116,4,79,78,4,

159,116,5,79,77,4,

159,115,4,79,77,4,

158,115,4,78,77,4,

158,114,4,78,77,4,

157,114,3,78,76,4,

157,113,4,77,76,3,

156,113,4,77,75,4,

156,112,4,76,75,3,

155,112,3,76,75,4,

155,111,4,76,73,4,

153,111,4,75,74,4,

152,111,3,76,73,4,

153,110,3,75,73,3,

152,109,3,75,72,4,

151,109,4,74,71,3,

150,109,4,75,71,4,

151,108,4,74,71,4,

149,108,3,73,71,3,

149,107,3,73,71,3,

147,107,4,73,71,4,

147,106,4,73,71,3,

147,106,4,72,70,4,

147,105,4,71,70,4,

146,105,4,71,70,5,

146,103,3,71,69,3,

143,103,3,71,70,4,

145,103,4,71,69,5,

143,103,3,71,69,4,

143,102,4,70,68,4,

142,102,3,70,68,4,

142,102,4,71,67,4,

141,101,4,70,67,4,

140,101,4,69,67,4,

140,100,5,69,66,4,

139,100,4,69,66,4,

139,99,3,68,66,3,

139,99,4,68,66,3,

139,98,3,67,66,4,

137,99,3,67,66,3,

137,98,3,67,65,4,

137,97,4,67,65,4,

135,97,3,67,64,3,

135,96,3,67,64,4,

135,96,4,67,63,3,

135,96,3,66,63,4,

134,96,3,65,63,4,

134,95,4,66,63,3,

133,94,4,66,63,4,

132,94,3,65,63,5,

133,94,4,65,62,4,

131,94,3,65,63,4,

131,93,3,64,62,5,

130,93,4,64,61,3,

130,92,3,63,62,4,

129,92,4,63,61,4,

129,91,4,63,61,3,

128,91,4,63,60,3,

127,91,5,63,60,4,

127,91,4,63,60,4,

127,90,3,62,60,4,

126,90,4,62,60,4,

126,89,4,62,60,3,

126,89,3,62,60,5,

125,89,3,61,60,5,

125,88,4,62,59,4,

124,88,4,61,58,3,

123,88,4,61,58,3,

124,87,4,60,57,3,

123,87,4,60,58,4,

122,87,4,60,57,4,

122,86,4,60,57,4,

122,86,3,59,57,5,

121,85,4,60,56,3,

121,85,3,59,56,4,

121,85,3,59,56,3,

120,84,4,92,56,4,

120,84,5,124,56,4,

119,83,4,123,56,4,

119,83,5,122,56,4,

118,83,3,121,55,3,

117,82,3,120,55,5,

117,82,3,120,55,3,

117,82,3,120,55,5,

116,82,4,124,88,4,

116,81,3,124,86,5,

115,81,4,124,86,4,

115,80,3,123,86,3,

114,79,4,122,85,4,

114,79,4,121,84,4,

114,79,3,120,84,4,

113,79,4,120,83,3,

112,79,4,120,83,4,

112,78,4,118,83,4,

111,79,5,118,83,4,

112,78,4,118,82,4,

111,78,3,118,82,3,

110,77,3,116,81,4,

109,77,5,115,81,3,

109,76,4,116,79,4,

109,76,3,115,79,3,

109,78,4,115,79,5,

109,82,4,113,79,3,

108,82,3,114,79,5,

108,81,4,112,78,4,

108,81,5,112,79,3,

107,82,4,112,78,4,

107,80,4,111,77,3,

105,80,3,111,77,3,

105,79,3,110,77,4,

105,79,4,110,76,4,

103,79,4,109,76,4,

103,78,4,108,76,3,

103,78,4,108,75,3,

103,78,4,108,75,3,

103,77,4,107,74,4,

102,77,4,107,74,4,

102,77,4,106,73,3,

102,76,4,105,73,4,

102,75,4,105,73,4,

101,76,4,105,72,4,

101,75,4,103,73,4,

100,75,3,103,71,3,

99,75,4,103,71,3,

99,74,3,103,71,3,

99,74,5,103,71,4,

99,73,3,102,71,4,

98,73,4,102,71,4,

98,73,4,101,70,4,

98,73,3,101,70,3,

97,72,4,101,70,3,

97,73,4,99,70,4,

97,71,3,99,68,3,

96,71,4,99,69,4,

96,71,3,99,69,5,

95,71,4,99,67,4,

96,71,3,98,68,4,

95,71,4,98,67,3,

94,70,3,97,67,3,

94,71,4,97,67,5,

93,69,4,97,66,3,

94,70,4,96,67,4,

93,69,4,96,66,3,

92,84,5,96,66,4,

93,84,4,95,65,4,

92,84,4,95,65,3,

92,83,3,94,65,4,

92,82,4,94,64,4,

92,82,4,93,65,4,

91,82,4,93,64,4,

90,81,4,92,63,4,

91,81,3,92,63,3,

90,80,3,92,63,3,

89,80,4,92,63,4,

89,81,4,91,62,4,

89,79,4,91,62,3,

89,79,3,90,61,4,

88,79,4,89,62,4,

88,78,4,89,61,4,

88,78,3,89,61,3,

88,77,3,89,61,3,

87,78,3,88,61,4,

87,77,3,88,61,3,

86,77,4,88,60,4,

86,77,4,88,60,4,

86,76,4,88,61,4,

86,76,3,87,60,4,

85,76,3,87,59,3,

85,75,4,86,59,4,

85,75,3,87,59,4,

84,75,4,86,59,3,

84,74,4,85,58,3,

83,74,4,85,58,3,

83,74,4,85,58,5,

83,73,4,83,57,4,

83,73,4,84,57,3,

83,71,3,83,57,3,

82,71,4,83,60,4,

82,71,3,83,60,4,

82,71,4,83,60,3,

82,71,3,82,59,4,

81,71,4,82,59,3,

81,71,3,81,59,5,

80,70,3,81,59,3,

79,71,3,80,58,3,

79,70,4,79,57,3,

79,69,4,80,57,3,

80,69,3,80,57,4,

79,68,4,80,57,3,

79,68,4,79,57,4,

78,68,3,79,56,4,

78,70,3,78,56,4,

79,81,4,78,56,4,

78,82,5,78,56,3,

78,81,4,77,56,5,

77,80,4,77,56,4,

77,80,3,77,56,3,

77,79,4,76,55,3,

77,79,3,76,56,4,

77,79,3,77,55,3,

77,79,4,76,54,4,

76,79,3,75,55,4,

76,78,4,75,62,3,

75,77,3,75,70,4,

75,77,4,74,70,4,

75,76,4,74,69,3,

75,76,3,74,69,3,

74,76,4,73,68,3,

74,76,3,73,68,3,

73,76,4,73,67,3,

73,75,3,73,67,3,

73,75,4,72,67,3,

73,74,4,72,66,4,

71,73,3,73,66,4,

71,73,5,71,66,4,

71,73,4,71,66,4,

71,73,4,71,65,3,

71,73,4,71,65,3,

71,71,5,70,65,4,

71,71,4,71,65,4,

71,71,4,70,65,4,

70,71,3,70,64,3,

71,71,5,69,63,3,

70,70,3,69,63,4,

70,70,4,70,63,3,

69,70,4,69,63,4,

70,70,3,69,62,3,

69,69,3,69,62,3,

69,69,4,68,62,4,

69,69,3,68,62,4,

68,69,3,67,61,4,

68,68,3,67,61,4,

67,69,4,67,61,5,

67,67,3,67,61,4,

67,67,4,66,61,3,

67,67,4,66,61,4,

67,67,3,66,60,4,

67,66,3,65,60,4,

67,66,3,65,60,3,

66,66,3,65,59,4,

66,65,3,64,59,4,

66,65,4,65,59,3,

65,65,5,64,58,4,

66,65,4,64,58,3,

65,64,3,63,58,3,

65,65,4,63,57,4,

65,64,3,63,57,3,

64,63,4,63,57,4,

64,64,3,63,58,3,

64,63,3,63,56,4,

63,63,3,63,56,4,

63,63,4,62,56,4,

63,62,4,83,56,3,

63,62,4,83,56,3,

62,63,3,82,56,4,

63,62,3,82,55,4,

62,62,3,81,55,5,

62,62,5,82,55,4,

62,61,4,80,54,4,

61,61,3,80,55,4,

61,61,3,79,56,4,

61,60,3,79,56,4,

61,60,4,79,56,4,

60,60,4,79,56,4,

60,60,4,79,56,4,

61,60,3,78,55,3,

60,59,4,78,55,5,

60,59,4,78,55,4,

60,59,4,77,54,4,

60,59,4,77,54,3,

59,58,4,76,54,3,

59,59,3,76,54,4,

59,58,3,76,54,3,

59,57,3,76,54,3,

58,58,4,75,53,3,

58,57,3,75,53,3,

58,57,4,75,53,4,

57,57,3,74,52,4,

57,57,4,74,53,4,

57,57,4,73,51,4,

57,56,4,74,51,3,

57,56,4,73,51,3,

57,56,4,71,51,5,

57,56,4,71,51,4,

56,56,3,71,50,3,

57,56,4,71,50,4,

56,56,4,71,51,4,

56,54,3,71,50,3,

56,55,4,71,50,4,

56,54,3,70,50,3,

56,54,4,70,50,3,

55,54,3,70,50,4,

55,53,3,70,49,4,

54,53,3,69,49,4,

54,53,4,70,49,3,

54,53,4,68,49,3,

54,52,4,68,48,4,

54,52,4,68,48,4,

54,52,4,67,48,3,

54,51,4,67,48,3,

53,51,4,68,48,4,

53,52,4,67,47,3,

52,51,4,67,48,5,

53,51,4,67,47,3,

52,51,4,66,47,4,

53,51,3,66,46,4,

52,50,5,66,46,4,

57,50,5,65,46,4,

57,50,3,86,46,4,

57,50,3,87,46,4,

56,49,4,85,46,3,

56,49,3,85,46,3,

56,50,4,85,45,3,

56,50,3,84,45,3,

56,49,3,84,45,4,

56,48,3,83,45,4,

55,48,4,83,45,3,

56,49,4,83,45,3,

55,49,3,83,44,3,

54,48,3,82,44,3,

55,48,4,82,44,4,

67,68,4,82,44,4,

67,67,4,81,44,3,

67,67,3,81,44,3,

66,67,4,79,43,4,

65,67,4,80,43,4,

66,66,4,79,43,3,

65,66,4,79,43,4,

65,65,3,79,43,4,

64,65,3,79,43,4,

64,64,3,78,43,3,

64,65,3,78,42,4,

63,65,5,78,42,4,

63,63,3,79,103,3,

63,63,4,78,103,3,

63,63,4,77,101,3,

62,63,4,77,102,4,

63,63,3,76,100,3,

63,63,4,76,100,3,

62,62,3,76,99,4,

62,61,4,76,99,3,

62,61,4,75,98,4,

61,61,4,75,98,4,

61,61,3,75,97,3,

61,60,4,75,97,5,

60,61,4,74,97,5,

60,60,3,73,96,3,

59,61,3,73,95,3,

60,59,4,73,96,4,

59,59,4,71,95,3,

59,59,4,72,95,4,

58,59,4,73,94,3,

58,59,3,71,93,4,

58,58,4,71,93,3,

58,59,3,71,93,4,

57,57,4,71,92,4,

57,57,3,70,92,3,

57,57,4,70,91,4,

57,57,3,70,92,3,

57,56,4,70,90,4,

57,57,3,69,90,3,

56,56,4,69,90,3,

56,56,3,69,89,3,

56,56,4,67,89,3,

55,56,4,68,88,4,

56,56,3,68,89,3,

55,55,4,67,88,3,

55,55,4,67,88,3,

55,55,4,67,88,4,

54,54,4,67,87,3,

55,55,3,67,86,4,

54,54,4,66,86,4,

53,54,3,67,86,3,

53,54,4,66,85,4,

54,53,3,65,85,4,

53,52,4,65,85,4,

53,52,4,65,84,3,

53,52,5,64,83,3,

52,52,3,65,83,4,

51,52,3,63,83,4,

51,51,4,64,83,3,

51,51,3,63,83,3,

51,51,4,63,82,3,

51,50,3,63,82,4,

51,51,4,63,81,3,

51,51,4,63,81,4,

50,51,3,62,81,3,

50,50,3,62,80,3,

50,50,3,63,79,3,

51,50,3,62,80,4,

50,50,4,62,79,3,

49,49,4,61,79,4,

50,49,3,61,79,3,

49,49,4,60,78,3,

49,48,4,60,78,5,

48,49,3,60,77,4,

49,48,3,60,78,3,

48,48,4,59,77,3,

48,48,4,60,77,3,

48,48,3,60,76,4,

48,47,4,59,76,3,

47,47,3,59,76,4,

48,47,4,59,76,4,

47,47,3,58,75,3,

47,47,3,58,75,4,

47,46,3,58,75,3,

47,46,4,57,75,3,

46,46,3,57,74,3,

46,46,4,57,74,3,

47,46,3,57,73,3,

46,46,3,57,73,3,

46,45,4,56,73,4,

46,45,4,56,71,3,

45,45,4,56,71,3,

45,45,4,56,71,4,

45,45,3,56,71,3,

45,45,3,56,71,3,

44,44,4,56,71,3,

44,44,3,55,71,3,

45,44,4,55,70,3,

44,43,5,55,70,4,

44,43,3,54,70,3,

44,43,4,54,70,4,

44,43,3,55,70,4,

44,43,3,54,68,3,

43,43,3,54,69,4,

44,43,3,54,68,4,

43,43,3,53,67,4,

44,43,4,53,67,3,

43,43,3,53,67,3,

43,42,4,53,67,3,

43,41,3,53,67,4,

43,41,4,52,67,4,

42,41,4,52,112,4,

43,42,4,51,110,3,

43,41,3,52,110,4,

42,59,4,52,109,3,

107,120,4,51,108,4,

106,119,3,51,108,4,

105,117,3,51,107,3,

103,116,3,50,107,3,

103,115,4,50,106,4,

103,115,4,51,115,4,

103,115,4,50,185,5,

103,114,4,50,184,4,

102,113,4,50,182,4,

101,112,3,49,180,4,

100,112,3,49,180,4,

99,112,3,49,179,4,

99,111,3,48,178,4,

98,111,3,49,177,3,

99,110,4,49,176,4,

98,109,3,48,175,3,

97,108,3,48,174,4,

97,108,3,48,174,3,

96,108,4,48,172,3,

96,107,4,48,172,4,

96,107,3,48,171,3,

94,107,4,47,170,3,

94,105,3,47,169,4,

94,105,3,47,167,4,

94,104,4,47,167,3,

93,103,3,47,166,5,

92,103,3,46,166,4,

92,103,3,46,164,4,

92,102,4,46,164,3,

91,102,3,46,163,4,

91,102,4,45,162,4,

90,101,4,45,162,4,

90,100,3,45,161,4,

89,101,3,45,159,3,

89,99,4,44,159,4,

89,99,3,45,159,4,

89,99,4,45,158,3,

88,98,3,44,158,3,

88,98,4,44,156,3,

88,97,3,44,156,5,

86,97,3,44,155,4,

86,96,4,44,154,4,

86,96,4,44,153,3,

85,96,4,43,153,4,

85,96,4,43,152,3,

84,95,3,42,152,3,

84,94,4,43,151,4,

84,94,3,42,151,4,

84,93,4,42,150,4,

83,93,4,42,149,4,

83,93,3,41,148,3,

83,92,4,41,147,4,

82,92,4,41,147,3,

81,92,4,41,147,4,

81,91,4,41,146,4,

81,91,3,41,145,3,

81,90,3,41,144,5,

81,90,4,40,144,4,

79,90,4,41,220,5,

79,89,4,40,262,4,

116,89,3,40,258,3,

115,88,4,39,257,3,

115,88,3,39,255,3,

113,88,3,39,254,3,

113,87,3,39,253,4,

112,86,4,39,251,4,

112,86,4,39,249,4,

111,86,4,39,248,3,

111,85,5,39,248,3,

110,85,3,39,246,4,

109,85,4,39,245,4,

109,85,3,39,243,4,

109,83,3,39,242,4,

108,83,4,38,241,3,

108,83,4,38,239,3,

107,83,4,37,238,3,

107,82,3,38,237,4,

107,82,4,38,236,3,

106,81,3,38,235,4,

105,81,4,37,233,4,

105,81,4,37,231,3,

103,81,3,37,231,4,

103,79,4,37,230,4,

103,79,3,36,229,5,

102,79,4,36,227,4,

102,79,3,36,227,3,

101,78,4,36,226,4,

101,78,4,36,225,4,

101,78,4,36,223,4,

100,78,4,35,223,3,

99,77,3,35,222,4,

99,77,3,35,221,3,

99,76,3,35,219,4,

98,76,4,35,219,4,

98,76,4,35,217,3,

97,75,3,35,217,4,

97,75,3,35,216,3,

97,74,3,35,215,4,

96,75,4,35,214,3,

95,73,5,34,213,4,

96,74,4,34,212,4,

96,73,4,34,211,4,

95,73,3,34,210,3,

94,73,4,34,209,3,

94,71,4,33,207,4,

93,71,3,34,207,3,

92,71,4,34,207,4,

92,71,4,33,205,4,

92,71,4,33,205,4,

92,71,3,33,203,3,

91,71,4,32,203,3,

91,70,3,33,202,5,

90,70,4,33,201,4,

89,70,3,32,199,4,

89,69,3,32,199,4,

89,69,4,32,199,4,

89,69,3,33,198,3,

88,69,4,31,197,4,

88,68,4,33,197,4,

88,68,5,33,195,4,

88,67,5,32,194,4,

88,68,3,31,193,4,

87,67,3,32,193,4,

87,67,4,31,192,3,

86,66,4,31,191,4,

85,66,4,31,190,4,

85,66,4,31,189,4,

85,66,4,31,189,3,

84,65,3,30,188,4,

84,65,4,30,187,4,

83,65,3,30,187,4,

83,64,4,30,186,5,

83,64,4,30,185,4,

83,65,4,30,184,4,

82,63,4,30,184,3,

81,63,4,30,182,4,

81,63,4,29,182,4,

81,63,3,30,181,3,

81,63,4,30,181,4,

79,63,5,29,179,4,

80,62,3,29,179,3,

79,62,4,29,178,3,

79,61,3,29,177,3,

79,61,5,29,176,3,

79,61,4,29,176,4,

79,61,5,29,175,4,

78,61,4,29,174,3,

77,60,4,29,174,4,

77,60,4,28,172,4,

77,59,4,28,172,3,

77,60,3,29,172,4,

76,59,4,28,171,4,

76,59,4,28,171,4,

76,59,5,28,169,4,

75,59,4,28,169,4,

76,58,4,27,167,4,

75,58,3,27,167,4,

74,58,4,28,167,4,

75,58,3,28,167,4,

75,57,3,27,166,4,

74,57,5,27,164,4,

71,56,4,27,164,4,

73,57,3,26,163,5,

73,56,4,27,163,4,

71,56,4,26,162,5,

71,56,3,27,161,3,

71,56,4,28,159,4,

71,55,5,27,159,4,

71,55,4,27,159,4,

71,55,4,27,158,4,

70,54,4,28,158,3,

70,54,3,26,157,3,

70,54,4,27,157,4,

70,54,4,26,156,3,

69,53,3,26,156,3,

69,53,4,26,155,3,

68,53,3,26,154,3,

68,52,3,25,153,3,

68,52,5,25,153,4,

67,52,3,26,152,3,

67,52,3,25,152,4,

67,52,4,26,151,3,

66,51,3,25,150,4,

66,51,3,25,150,4,

66,51,4,24,149,3,

65,50,3,25,148,4,

65,50,4,25,147,4,

65,50,3,25,147,3,

65,50,4,24,147,3,

64,50,3,24,146,3,

63,49,4,24,145,4,

63,49,3,24,145,3,

63,50,4,24,144,3,

63,49,4,24,143,3,

63,49,4,24,143,4,

63,48,4,23,142,3,

63,48,4,24,143,4,

62,48,4,24,141,3,

62,48,3,24,141,4,

62,49,3,24,141,4,

61,47,3,24,140,3,

61,48,4,23,139,3,

62,47,3,23,139,4,

61,47,3,23,138,4,

60,46,4,23,138,3,

61,46,3,23,137,4,

60,46,4,23,137,4,

59,46,3,22,135,3,

60,45,4,23,135,3,

59,46,3,22,135,3,

59,45,3,23,135,4,

59,45,4,23,134,3,

59,46,3,22,134,4,

57,45,4,21,133,3,

59,45,3,22,133,3,

57,45,4,22,131,3,

57,44,3,22,131,3,

57,44,4,21,131,3,

57,44,4,21,130,3,

57,44,4,21,130,4,

57,44,4,22,130,3,

56,44,4,22,129,4,

57,43,4,22,128,3,

56,43,3,21,127,3,

56,43,3,21,127,5,

55,43,4,21,127,4,

55,42,4,21,126,3,

55,42,4,21,125,4,

54,42,3,21,126,3,

55,42,3,21,125,4,

54,42,3,21,124,3,

55,42,4,21,124,3,

54,41,4,20,123,4,

53,41,5,21,123,4,

53,41,3,21,122,4,

53,41,3,20,122,4,

53,39,4,21,121,4,

52,40,4,20,121,3,

52,39,4,20,121,3,

52,39,4,21,120,5,

51,39,4,20,120,3,

51,39,4,20,119,3,

51,39,3,20,119,4,

51,39,4,19,119,3,

51,40,4,41,118,4,

50,39,3,42,117,4,

51,39,4,41,117,3,

50,39,4,41,117,3,

51,39,3,41,115,3,

50,39,3,41,115,4,

50,39,3,39,115,4,

49,39,3,41,115,4,

49,39,4,39,115,4,

49,39,4,39,114,3,

49,38,3,39,113,4,

49,39,3,39,113,4,

48,38,4,39,112,3,

48,38,4,38,112,4,

48,38,4,38,111,3,

48,38,4,38,111,3,

47,37,5,38,110,3,

48,37,4,38,110,3,

47,37,3,38,110,4,

47,37,5,38,110,4,

46,37,3,38,109,4,

46,36,4,37,109,3,

46,37,3,37,108,4,

47,36,4,37,108,4,

46,36,3,37,107,4,

45,35,3,36,108,5,

46,36,3,37,106,5,

45,35,3,36,107,3,

45,35,4,35,106,3,

45,35,4,36,106,3,

46,35,4,35,105,4,

45,35,3,35,103,4,

45,35,4,35,103,3,

45,35,4,35,103,4,

44,35,3,35,103,4,

43,35,4,35,103,3,

44,34,3,34,102,4,

44,34,5,34,102,3,

44,34,4,34,101,4,

44,34,5,35,101,3,

43,34,4,34,101,4,

43,34,3,34,100,3,

43,33,3,34,100,5,

43,33,3,33,99,3,

41,33,4,34,99,3,

41,34,3,33,99,4,

41,33,3,33,99,3,

42,33,3,33,99,4,

41,32,3,33,98,3,

41,32,3,32,97,4,

42,32,4,33,97,3,

41,33,3,32,97,4,

41,32,4,32,96,4,

41,32,3,31,96,3,

41,31,4,31,96,4,

39,31,3,31,95,3,

39,31,3,31,95,3,

39,31,3,31,95,3,

39,32,4,31,94,3,

39,31,4,31,94,4,

39,31,3,31,94,3,

39,31,4,31,93,4,

39,31,3,30,93,4,

39,30,3,30,92,3,

39,30,3,31,93,4,

39,31,3,30,92,4,

39,31,3,30,92,4,

39,30,4,30,91,4,

38,30,4,30,91,4,

38,29,3,29,91,3,

39,30,3,29,91,4,

38,29,4,30,90,4,

38,30,3,29,90,4,

38,29,3,29,89,4,

38,30,3,29,89,3,

37,29,3,29,89,3,

37,29,5,29,88,4,

37,29,4,29,88,4,

37,29,4,28,88,4,

37,29,3,28,88,4,

37,29,4,28,88,3,

37,29,4,29,87,3,

37,28,3,28,86,3,

37,28,4,28,86,3,

36,28,4,28,86,4,

36,28,3,28,85,3,

36,28,4,28,85,3,

35,28,4,28,85,3,

35,28,4,28,84,4,

35,28,3,28,85,4,

35,27,4,28,84,4,

35,27,4,28,84,4,

35,27,4,28,83,3,

35,27,4,27,83,4,

35,27,5,27,83,3,

34,27,3,27,82,3,

34,27,4,27,82,4,

34,27,4,27,82,3,

35,27,4,26,82,4,

34,26,3,27,82,4,

34,27,4,26,81,3,

34,26,4,26,81,4,

34,26,4,26,81,4,

34,26,3,26,80,3,

33,26,3,25,79,3,

33,27,3,26,79,4,

33,26,4,25,79,4,

33,26,4,25,79,4,

33,26,3,26,79,4,

33,26,4,25,79,3,

32,26,4,25,78,4,

32,25,3,25,78,4,

31,26,3,25,78,4,

33,26,3,25,77,4,

32,25,3,24,77,3,

31,25,4,24,77,4,

32,25,3,24,76,4,

31,25,3,25,76,4,

31,25,4,25,76,4,

31,25,3,24,76,4,

32,25,4,25,76,5,

32,25,4,25,76,4,

31,24,3,24,75,4,

31,25,3,25,75,4,

31,24,3,24,74,3,

31,25,3,24,74,4,

31,25,3,24,74,3,

31,24,4,24,73,4,

31,24,3,24,73,3,

30,24,3,24,73,4,

30,24,4,24,72,3,

30,24,3,24,71,3,

30,24,4,24,71,4,

30,24,3,23,71,4,

30,24,4,23,71,3,

30,23,3,23,71,5,

29,23,4,23,71,5,

30,23,4,22,71,4,

29,23,3,22,71,3,

29,23,3,22,70,3,

29,23,4,22,70,3,

30,23,4,22,70,4,

30,22,4,23,69,4,

28,22,3,22,69,3,

29,22,4,22,70,3,

28,23,3,22,69,4,

28,21,3,22,68,3,

28,22,4,21,68,4,

28,22,4,22,68,3,

28,22,3,22,68,4,

28,22,4,21,67,4,

28,21,3,21,67,4,

28,21,4,21,67,4,

28,22,4,23,67,3,

28,21,4,24,67,3,

27,22,4,23,66,4,

28,21,4,23,66,3,

27,21,4,23,66,3,

28,21,3,22,65,3,

27,22,3,23,65,3,

28,20,3,23,65,4,

28,20,5,22,65,4,

27,20,3,22,65,3,

27,20,3,23,64,4,

27,20,4,22,63,4,

27,21,4,23,63,3,

26,20,3,22,63,3,

26,20,4,23,63,4,

27,20,4,22,63,4,

26,20,4,21,63,3,

26,20,4,22,63,4,

26,21,5,21,63,3,

26,20,4,21,62,3,

26,19,3,22,63,4,

25,19,3,21,62,4,

25,19,4,21,61,4,

25,19,4,20,61,4,

25,19,3,21,62,4,

25,19,3,20,61,3,

25,19,4,20,61,4,

25,19,4,21,60,4,

25,19,3,21,61,4,

25,19,4,21,60,4,

24,18,4,21,60,3,

25,18,4,21,60,4,

24,18,5,21,60,3,

24,18,3,20,59,3,

24,19,3,21,59,3,

24,18,3,20,59,3,

24,18,3,20,59,3,

24,18,4,20,58,4,

24,18,4,20,58,3,

24,18,4,20,57,3,

24,18,4,20,57,3,

23,18,3,26,58,4,

24,18,4,29,57,3,

24,17,3,30,57,4,

24,18,3,29,57,3,

24,17,4,30,56,4,

23,18,4,30,57,4,

23,18,4,29,56,3,

23,18,3,29,56,3,

22,17,4,29,56,4,

23,17,4,29,55,3,

22,17,3,28,56,5,

23,18,3,29,55,3,

23,16,3,29,55,3,

22,17,3,28,55,3,

22,17,4,28,55,4,

22,16,3,28,55,3,

22,16,5,28,54,3,

22,16,4,28,54,4,

22,17,3,27,53,4,

21,16,3,27,54,4,

22,17,3,28,54,3,

22,16,4,27,53,4,

22,16,3,27,53,4,

21,16,5,27,52,3,

21,16,3,26,53,3,

21,15,3,27,53,5,

22,56,4,27,52,3,

21,55,4,26,52,3,

22,54,3,26,52,3,

21,54,3,26,51,4,

21,54,4,25,51,3,

21,54,4,26,52,3,

22,53,3,26,51,3,

21,53,3,25,51,3,

21,53,4,25,51,5,

21,52,4,26,51,3,

21,52,4,25,50,3,

20,51,4,25,50,4,

20,51,4,25,50,4,

20,51,4,25,50,4,

21,51,3,25,50,3,

20,51,4,24,49,3,

20,51,3,25,49,3,

21,49,3,25,48,4,

20,50,4,24,49,4,

20,49,4,24,48,3,

20,50,4,24,48,3,

19,48,4,24,49,3,

19,49,4,24,48,3,

20,48,4,24,48,4,

19,48,3,23,48,4,

19,48,3,24,48,3,

19,48,3,23,48,3,

19,48,4,23,47,3,

19,48,3,23,47,4,

19,47,4,24,47,4,

19,47,4,23,46,3,

19,47,3,23,46,4,

19,47,3,22,46,4,

18,46,4,23,46,3,

19,46,3,23,46,4,

19,46,3,22,45,3,

18,46,4,22,46,3,

18,45,3,22,45,5,

18,45,4,22,46,3,

18,45,4,22,45,4,

18,45,4,22,45,3,

18,45,3,22,45,3,

19,45,3,21,45,3,

18,44,4,22,44,5,

18,44,3,22,44,4,

17,44,3,22,43,3,

18,44,3,21,44,4,

18,43,4,21,44,4,

17,44,4,21,44,4,

18,43,3,21,44,4,

17,43,3,21,43,4,

17,43,4,21,43,3,

17,43,3,21,43,4,

18,42,3,20,43,4,

17,43,4,20,43,4,

17,42,3,22,43,4,

17,41,3,23,42,3,

17,41,4,23,42,3,

17,41,3,23,42,4,

17,41,4,22,41,4,

17,41,3,23,41,4,

17,41,4,22,41,3,

17,39,4,23,41,5,

16,39,3,23,41,4,

16,39,3,22,41,3,

16,41,3,22,40,3,

16,39,4,22,41,4,

16,39,3,22,39,3,

16,39,3,22,41,4,

16,39,3,22,39,5,

17,39,3,22,39,3,

16,39,4,22,39,3,

15,38,4,21,39,3,

16,38,4,22,39,3,

15,39,3,21,39,3,

15,38,3,21,39,4,

15,38,4,20,39,3,

15,38,4,20,39,4,

15,37,3,20,39,3,

15,37,4,21,38,3,

15,38,4,21,39,4,

15,37,3,20,38,3,

15,37,4,20,39,3,

15,37,3,19,39,3,

15,36,4,21,38,4,

15,37,4,21,38,3,

15,36,4,20,38,3,

14,36,3,20,38,4,

14,36,4,20,38,3,

14,35,4,20,37,4,

14,35,3,27,37,4,

14,35,4,31,37,4,

15,35,3,31,37,4,

14,35,3,30,37,4,

14,35,3,31,37,4,

15,35,4,30,36,4,

15,34,4,30,36,3,

14,35,4,30,35,4,

14,34,4,30,37,3,

14,34,4,29,36,3,

14,34,3,30,35,4,

14,33,4,30,36,3,

14,33,4,29,35,3,

15,33,3,29,35,4,

14,33,3,29,35,4,

13,33,3,28,35,4,

15,33,3,29,34,4,

14,32,3,29,35,3,

14,33,3,29,35,3,

13,32,4,29,34,3,

13,33,4,28,34,3,

14,32,4,28,34,5,

13,31,4,27,35,3,

13,31,3,28,34,3,

13,31,4,28,34,4,

14,32,4,27,34,5,

13,31,3,27,33,3,

13,31,3,27,33,3,

14,31,4,27,34,3,

13,31,4,27,34,4,

13,31,3,27,33,3,

13,31,3,26,33,4,

13,30,4,27,33,3,

12,30,4,26,33,3,

13,30,3,27,33,4,

12,30,4,26,31,4,

12,30,3,26,32,4,

13,30,3,25,32,4,

12,30,4,26,33,3,

12,29,4,25,31,3,

12,30,4,25,32,3,

12,30,4,25,31,4,

12,29,4,25,31,3,

12,29,3,24,31,3,

13,29,3,25,31,4,

12,29,3,25,31,3,

13,28,3,25,31,4,

12,29,4,25,31,3,

12,28,3,24,31,3,

12,28,3,24,31,4,

12,28,3,25,30,4,

11,28,4,24,31,3,

12,28,4,24,30,3,

12,28,3,47,30,3,

12,28,4,47,30,4,

12,28,3,46,30,4,

12,27,4,47,29,4,

12,28,4,46,30,3,

12,27,4,46,29,3,

11,27,3,46,30,3,

11,27,4,46,30,4,

11,27,3,45,29,3,

12,27,3,45,29,3,

12,27,4,44,29,3,

11,26,4,44,29,4,

11,26,3,44,29,3,

11,26,3,44,28,3,

11,26,3,44,28,4,

11,26,4,44,29,3,

11,25,4,43,29,3,

11,26,3,43,28,3,

12,26,4,43,29,4,

11,25,3,43,28,3,

11,25,3,43,28,4,

11,25,4,43,28,3,

11,25,4,42,27,4,

11,24,4,42,28,3,

10,24,3,41,28,3,

10,25,3,42,27,3,

11,24,4,41,28,4,

11,56,3,41,27,4,

11,61,4,59,27,3,

11,61,3,69,27,3,

10,60,4,68,27,3,

10,59,3,68,27,3,

10,59,4,67,26,3,

10,59,3,67,27,3,

11,59,4,67,26,3,

11,58,4,67,27,3,

10,58,3,66,27,3,

9,58,3,67,26,3,

9,57,4,65,26,3,

10,57,3,65,26,3,

10,57,3,65,26,3,

10,57,3,65,26,4,

10,56,3,64,25,4,

10,56,4,65,25,3,

10,56,3,64,25,3,

9,56,3,63,25,4,

10,56,3,63,25,4,

9,55,3,63,25,3,

9,55,3,63,25,3,

9,55,3,62,25,3,

9,55,3,62,25,4,

9,54,4,62,25,3,

9,54,3,62,25,3,

10,54,3,62,24,3,

10,54,4,61,24,4,

9,53,3,62,24,3,

9,53,3,61,24,5,

10,53,4,60,24,3,

9,53,3,61,24,3,

10,52,3,60,24,3,

9,52,4,59,24,4,

9,52,3,60,24,3,

9,51,3,60,24,3,

9,51,3,58,24,3,

10,51,3,59,24,3,

9,51,4,59,24,4,

9,50,4,58,24,4,

9,50,4,58,24,3,

9,50,3,58,23,3,

9,51,3,58,23,3,

9,50,5,57,23,3,

9,49,4,57,23,4,

9,49,3,56,22,3,

9,49,4,56,23,3,

9,49,3,56,22,4,

9,49,3,56,23,3,

9,48,4,56,23,3,

8,49,3,56,23,3,

7,49,4,56,22,4,

8,48,3,56,22,3,

7,48,3,55,22,3,

8,47,4,55,21,4,

7,47,3,54,22,3,

9,47,3,55,21,3,

9,47,4,54,22,3,

7,46,4,54,21,3,

7,46,3,54,22,3,

7,46,3,53,22,3,

7,46,3,53,22,3,

7,46,3,53,21,3,

9,45,4,53,21,3,

8,45,3,53,21,3,

7,46,3,51,21,3,

7,45,3,51,21,4,

7,45,3,51,21,4,

7,44,4,51,20,3,

7,45,3,51,20,3,

7,44,4,51,20,3,

7,44,3,51,21,3,

7,44,3,51,20,4,

