
4,6,3,13,36,3,

4,5,3,13,35,3,

5,6,3,12,35,3,

4,6,3,13,35,3,

5,6,3,12,35,3,

4,5,3,12,34,3,

4,6,3,12,35,3,

5,6,3,12,35,3,

5,6,3,12,35,3,

4,6,3,12,35,3,

5,5,3,12,34,3,

3,6,3,11,34,3,

4,6,3,12,34,3,

4,5,3,12,34,3,

5,5,3,11,34,3,

4,6,3,12,33,3,

5,5,3,12,33,3,

4,5,3,11,34,3,

3,5,3,12,33,4,

5,6,3,12,33,3,

4,5,3,11,33,3,

4,5,3,11,33,3,

4,5,3,12,32,3,

4,5,3,11,32,3,

4,5,3,11,31,3,

4,5,3,11,33,3,

4,5,3,11,32,3,

4,5,3,11,32,3,

4,5,3,10,31,3,

4,5,3,11,31,3,

4,5,3,11,31,3,

4,5,3,11,31,3,

4,5,3,11,31,3,

4,5,3,10,31,3,

4,5,3,11,31,3,

4,5,3,11,30,3,

4,5,3,10,30,3,

3,4,3,11,30,3,

4,5,3,11,30,3,

5,4,3,10,31,3,

4,5,3,11,30,3,

3,6,3,10,30,3,

4,5,3,11,29,3,

4,5,3,11,29,3,

4,5,3,11,29,3,

4,5,3,11,30,3,

5,5,3,11,29,3,

4,6,3,11,30,3,

4,6,3,11,30,3,

5,6,3,10,30,3,

4,5,3,11,29,3,

4,6,3,11,29,3,

4,5,3,11,29,3,

4,5,3,11,29,3,

5,5,3,11,29,3,

4,5,3,10,29,3,

5,5,3,11,29,3,

4,4,3,11,28,3,

4,5,3,10,29,3,

4,5,3,39,28,3,

4,6,3,39,29,3,

4,5,3,38,28,3,

5,4,3,39,28,3,

4,5,3,37,28,3,

3,5,3,38,28,3,

3,5,3,37,28,4,

4,6,3,37,27,3,

3,5,3,38,28,3,

4,5,3,37,28,3,

3,5,3,37,27,3,

4,5,3,36,27,3,

4,5,3,37,27,3,

3,5,3,36,27,3,

4,4,3,37,26,3,

3,5,3,36,26,3,

5,5,3,35,27,3,

4,5,3,35,26,4,

5,5,3,35,26,3,

5,5,3,35,26,3,

4,5,3,35,27,3,

5,4,3,34,26,3,

4,4,3,35,25,4,

5,5,3,35,25,3,

4,4,3,35,26,3,

4,5,3,34,25,3,

5,4,3,34,25,3,

5,5,3,34,26,3,

4,5,3,34,25,3,

4,4,3,34,26,3,

6,5,3,34,28,3,

6,4,3,33,30,3,

6,5,3,34,30,3,

5,5,3,34,30,3,

5,5,3,33,29,3,

5,5,3,33,30,4,

6,5,3,32,29,3,

6,4,4,32,30,3,

6,4,3,32,29,3,

6,5,3,33,29,3,

6,4,3,33,29,3,

6,4,3,32,28,3,

6,5,3,33,29,3,

6,5,3,32,29,3,

5,4,3,32,29,3,

6,5,3,31,28,3,

7,5,3,32,28,3,

6,5,3,32,28,3,

7,5,4,32,28,3,

7,6,3,32,28,4,

7,5,3,31,28,3,

7,5,3,31,28,3,

6,6,3,31,28,3,

7,5,3,31,28,3,

7,5,3,31,27,3,

7,5,3,31,28,4,

6,5,3,31,27,3,

7,5,3,31,27,3,

6,5,3,31,27,4,

6,5,3,31,27,3,

6,5,3,30,27,3,

6,4,3,30,27,4,

6,5,3,31,26,3,

6,5,3,30,27,3,

6,5,3,30,27,3,

7,5,3,30,26,3,

7,5,3,30,26,3,

7,5,3,29,25,3,

6,6,3,29,25,3,

6,5,3,29,26,3,

6,6,3,29,25,3,

6,5,3,30,25,3,

6,5,3,29,25,3,

6,5,3,30,30,4,

6,6,3,30,71,3,

6,4,3,39,73,3,

6,5,3,39,71,3,

6,6,3,39,71,3,

6,5,3,39,71,3,

6,4,3,38,71,3,

6,5,3,38,71,3,

6,4,3,38,70,3,

6,5,3,38,69,3,

6,4,3,38,69,3,

6,5,3,38,69,3,

6,5,3,37,69,3,

6,4,3,38,69,3,

6,5,3,37,68,3,

5,5,3,36,68,3,

5,5,3,36,67,3,

6,5,3,37,67,3,

6,5,3,37,67,4,

6,5,3,37,67,3,

6,5,3,37,67,3,

6,5,3,36,67,3,

6,4,3,36,66,4,

5,5,3,35,65,3,

6,4,3,36,65,3,

6,4,3,35,66,3,

6,5,3,35,65,3,

6,4,3,35,64,3,

6,4,3,35,64,3,

6,4,3,34,63,4,

6,5,3,34,64,3,

6,4,3,35,63,3,

5,5,3,34,63,3,

5,4,3,34,63,3,

6,4,3,33,63,3,

5,5,3,34,63,3,

5,5,3,34,62,3,

6,4,3,33,62,3,

6,5,3,33,62,3,

5,5,3,33,62,3,

6,4,3,33,61,3,

5,4,3,33,61,3,

5,4,3,34,61,3,

6,5,3,51,60,4,

9,5,3,59,61,4,

17,5,3,58,60,3,

31,5,3,58,60,3,

30,6,3,57,60,4,

31,5,3,57,59,3,

30,5,3,57,59,3,

31,6,3,57,59,3,

31,5,3,56,59,3,

29,5,3,57,58,3,

30,4,3,56,58,3,

29,5,3,56,58,3,

29,5,3,56,57,3,

29,5,3,56,57,3,

29,4,3,56,57,3,

29,4,3,55,57,3,

29,5,3,54,57,3,

29,5,3,55,57,3,

29,5,3,55,56,3,

28,5,3,54,56,3,

28,4,3,54,56,3,

28,5,3,54,56,3,

28,5,3,53,56,3,

28,5,3,52,56,3,

28,5,3,53,54,3,

27,5,3,53,54,3,

27,4,3,52,54,3,

27,5,3,52,54,3,

27,6,3,51,53,3,

27,5,3,51,53,3,

27,4,3,51,54,3,

26,4,3,51,53,4,

27,5,3,51,53,3,

27,5,3,50,53,3,

26,5,3,50,53,3,

83,24,3,50,52,5,

174,87,3,50,52,3,

197,85,3,50,53,4,

196,84,3,49,52,4,

193,83,3,49,51,4,

193,83,3,49,51,4,

192,82,3,49,51,3,

191,82,3,49,50,3,

189,81,3,48,50,3,

189,81,3,48,51,3,

188,80,3,48,50,3,

187,80,3,48,50,4,

186,80,3,47,49,3,

185,79,3,48,49,3,

184,79,4,48,49,3,

184,79,3,48,49,3,

183,78,3,46,49,5,

181,78,3,46,49,4,

182,78,3,47,48,4,

179,78,4,47,49,3,

179,77,4,46,57,3,

178,77,3,46,59,3,

177,76,4,45,59,3,

177,75,4,45,58,3,

176,76,3,45,58,3,

175,75,3,45,57,3,

174,74,3,44,57,3,

173,74,4,44,57,3,

172,75,4,45,57,3,

172,73,3,44,57,3,

171,73,3,44,57,3,

170,72,3,44,56,3,

176,83,4,44,56,3,

195,93,4,44,56,4,

194,92,3,43,56,3,

193,91,3,43,56,4,

192,90,3,42,55,3,

192,90,4,42,54,3,

190,89,3,43,54,4,

189,89,3,41,54,3,

188,89,3,42,54,3,

188,89,3,41,54,3,

187,88,3,42,54,5,

186,88,4,41,54,4,

185,88,3,41,54,4,

185,88,4,42,60,4,

184,88,4,44,59,4,

182,98,3,43,59,5,

202,97,5,43,59,4,

265,102,5,42,58,4,

262,101,5,42,57,4,

261,100,5,42,58,3,

259,99,5,42,57,5,

258,99,4,41,57,4,

255,99,4,41,56,4,

254,98,4,41,56,5,

253,97,5,41,57,5,

252,97,5,41,56,5,

251,97,5,39,56,5,

249,97,5,41,56,5,

248,96,5,39,56,5,

247,95,5,39,56,4,

246,96,5,39,55,5,

244,95,5,39,55,5,

243,94,5,39,55,5,

243,94,6,39,54,5,

241,94,5,39,54,5,

240,93,5,39,53,5,

239,92,5,39,53,5,

238,92,6,39,53,6,

236,92,6,38,53,5,

235,91,6,38,53,5,

234,91,6,38,53,5,

233,90,5,38,52,5,

231,90,5,37,52,6,

231,89,6,38,51,6,

230,89,6,37,51,5,

230,106,6,37,51,6,

227,112,6,71,51,6,

226,111,6,102,51,7,

225,110,6,117,51,6,

225,109,6,115,50,5,

223,109,5,114,50,6,

222,108,6,113,49,5,

221,143,6,113,49,5,

220,192,6,112,49,6,

219,190,7,112,49,5,

217,189,7,112,49,5,

217,188,6,110,49,6,

216,187,7,110,48,6,

214,185,6,110,49,6,

213,184,6,109,48,6,

213,184,6,109,50,7,

211,183,6,108,49,6,

211,182,6,107,50,7,

210,180,7,107,49,6,

209,179,7,107,48,6,

207,178,7,106,49,6,

221,178,7,105,48,6,

313,177,6,103,48,6,

311,176,6,103,48,6,

307,175,6,103,47,6,

306,174,6,103,47,6,

304,172,6,103,48,6,

302,172,7,103,114,7,

301,285,6,102,121,6,

299,310,7,102,120,7,

295,307,6,100,118,6,

295,305,7,100,118,7,

293,304,6,99,117,6,

291,301,6,99,116,7,

290,300,6,98,115,6,

287,298,7,99,115,6,

286,295,6,98,115,6,

285,295,7,97,115,6,

284,293,6,96,113,6,

282,291,6,96,113,7,

280,289,6,96,113,6,

280,287,6,96,112,7,

278,286,6,95,111,6,

275,284,7,95,111,6,

275,283,6,94,110,6,

273,282,6,94,110,6,

271,280,6,94,109,7,

271,279,6,93,108,6,

269,277,6,92,108,7,

268,275,6,92,108,6,

266,273,6,92,107,7,

265,273,6,91,106,6,

263,271,6,91,105,6,

262,270,6,90,105,6,

261,268,6,89,105,5,

259,267,6,89,103,6,

259,265,6,89,103,6,

257,263,6,89,103,6,

255,263,6,88,103,7,

254,262,6,88,102,6,

253,259,6,87,102,6,

252,259,6,86,101,5,

251,257,6,87,100,6,

249,255,6,86,101,6,

248,255,6,90,100,6,

247,253,6,89,99,6,

246,252,6,89,99,6,

244,251,6,88,98,6,

243,251,6,88,97,6,

242,249,6,89,97,6,

241,248,6,88,97,6,

239,246,6,88,96,6,

238,245,6,88,96,5,

238,244,6,87,95,6,

236,243,5,87,96,5,

236,242,6,86,94,6,

234,241,6,85,94,6,

233,239,5,85,94,6,

231,239,5,85,94,5,

231,238,5,84,92,5,

230,236,6,84,92,6,

229,235,6,83,92,5,

228,234,6,83,92,6,

227,233,6,83,92,6,

226,233,6,83,93,6,

225,231,6,83,92,7,

224,230,6,82,92,6,

223,229,5,82,91,6,

222,227,6,81,91,6,

220,227,5,81,91,5,

220,226,5,80,91,7,

219,225,6,80,91,6,

217,224,6,79,89,6,

217,223,6,99,89,6,

216,222,6,100,89,7,

216,221,5,99,89,6,

214,219,5,99,88,6,

213,219,6,98,88,5,

212,217,6,97,88,6,

211,217,6,97,86,5,

210,216,6,96,86,6,

209,214,6,96,86,5,

207,214,6,95,86,6,

207,213,6,96,85,6,

207,211,5,94,84,6,

206,211,5,94,85,5,

204,210,6,94,84,6,

204,209,6,93,83,6,

203,208,6,93,84,6,

202,207,7,93,83,6,

201,206,6,92,82,5,

199,205,6,91,81,6,

199,205,6,91,82,5,

199,204,6,91,81,6,

198,203,6,90,81,6,

197,202,6,90,81,5,

196,199,7,89,79,6,

195,199,6,89,79,7,

194,199,6,89,79,6,

194,198,6,89,86,6,

193,197,6,88,95,6,

192,196,6,88,96,6,

192,195,6,87,96,5,

190,195,6,87,96,6,

190,194,5,86,95,6,

188,193,6,86,94,6,

188,192,6,85,94,6,

187,192,6,85,94,5,

186,191,6,85,94,6,

185,190,6,84,93,6,

184,188,6,84,100,7,

184,188,7,83,102,6,

183,188,6,139,100,6,

183,185,6,138,100,6,

181,186,6,137,99,6,

181,185,6,135,99,6,

179,184,6,135,99,6,

179,184,6,135,99,7,

178,251,6,134,98,6,

178,248,6,134,97,6,

176,246,5,132,96,6,

176,244,6,131,96,6,

175,243,6,131,96,5,

174,242,6,131,96,6,

173,241,6,130,94,6,

172,240,5,129,94,6,

172,239,6,129,94,6,

171,237,5,127,93,6,

170,235,6,127,92,6,

169,234,6,127,93,6,

169,233,5,126,92,5,

167,231,6,126,91,6,

167,231,6,126,91,6,

167,229,6,125,91,6,

166,228,6,124,90,6,

166,227,6,123,89,6,

165,225,6,123,90,6,

163,224,6,123,89,6,

163,223,6,121,88,5,

162,222,6,121,88,6,

161,221,5,120,88,5,

160,220,5,120,87,5,

159,219,6,119,86,6,

159,218,6,119,87,6,

159,217,6,119,86,5,

158,216,6,117,86,6,

157,214,6,117,85,6,

156,214,6,116,85,5,

156,212,5,115,84,6,

155,211,5,115,83,6,

155,210,5,115,83,6,

154,209,5,115,83,6,

153,207,5,113,82,5,

153,207,5,113,82,6,

152,206,5,112,81,6,

151,204,5,112,81,6,

151,204,6,111,81,5,

149,203,6,111,79,5,

149,202,6,110,79,6,

149,201,5,110,79,6,

147,200,6,109,79,5,

147,199,6,109,79,5,

146,198,5,108,79,6,

145,197,5,108,78,5,

145,196,5,107,77,6,

145,195,5,112,77,6,

143,194,5,112,77,5,

143,193,5,112,77,5,

143,192,5,110,76,6,

142,192,5,110,76,6,

141,190,5,109,75,5,

141,190,5,108,75,5,

140,189,5,108,75,5,

140,188,5,107,74,6,

139,187,5,107,74,5,

138,185,5,107,73,5,

139,185,5,106,73,5,

137,184,5,106,73,5,

137,184,5,104,72,6,

137,183,5,103,71,4,

135,181,6,103,71,5,

135,181,5,103,71,5,

135,180,4,103,71,4,

133,179,5,103,71,5,

134,178,5,102,71,5,

133,178,4,101,70,5,

132,176,5,101,70,5,

131,176,5,101,70,5,

131,175,5,101,69,4,

130,175,5,99,68,5,

129,174,5,99,69,4,

129,172,5,99,69,5,

129,172,5,98,67,5,

128,172,5,99,68,5,

127,171,5,98,67,5,

127,169,5,97,67,5,

127,169,5,96,67,4,

127,167,5,96,66,5,

126,167,5,96,67,5,

125,167,5,95,66,5,

125,166,4,95,65,5,

124,165,5,94,65,5,

124,166,5,94,65,4,

123,164,4,94,65,5,

123,163,4,94,64,5,

122,163,4,93,64,5,

121,162,4,92,63,4,

121,161,5,92,63,5,

121,161,4,92,63,5,

120,159,5,92,63,4,

120,159,5,91,63,5,

120,159,5,91,62,5,

119,158,4,90,62,5,

119,157,4,89,62,4,

118,156,4,89,62,4,

118,156,4,89,62,4,

117,155,5,88,61,4,

116,155,4,88,61,4,

116,154,5,88,60,4,

115,153,4,88,60,5,

115,153,5,87,60,4,

115,152,3,86,60,5,

114,152,4,86,59,4,

114,151,4,85,60,5,

113,150,4,86,59,5,

113,150,4,85,59,5,

112,148,4,84,59,5,

112,148,5,85,58,4,

111,148,5,83,57,5,

111,147,5,84,57,5,

111,146,4,83,57,5,

110,146,5,83,57,5,

110,145,4,83,57,4,

110,144,4,82,57,4,

108,144,5,82,57,4,

108,143,4,82,56,4,

108,143,4,82,56,4,

108,143,3,81,68,5,

108,142,4,81,67,5,

107,142,5,80,67,5,

106,141,4,79,67,4,

105,140,4,79,67,5,

105,140,4,79,66,4,

105,139,4,79,66,5,

110,138,4,78,66,4,

109,137,3,78,65,4,

109,137,4,78,65,3,

108,135,4,78,69,4,

108,135,4,77,102,5,

107,135,4,76,101,5,

107,135,4,76,100,5,

106,134,4,76,100,4,

105,134,4,76,99,4,

105,133,4,75,99,5,

103,133,5,75,98,5,

103,131,5,75,97,5,

103,131,4,74,97,4,

103,131,4,74,97,5,

103,130,4,74,97,4,

103,130,4,90,97,4,

102,129,4,127,131,4,

101,128,4,126,130,4,

101,128,5,126,129,3,

101,127,4,124,128,4,

100,127,4,124,127,5,

99,126,5,124,126,3,

99,126,3,122,126,3,

99,125,3,122,125,4,

98,125,4,121,125,4,

98,124,4,121,124,5,

97,124,4,120,123,4,

98,123,3,120,123,3,

97,122,3,119,122,4,

96,123,3,119,121,4,

96,122,4,117,121,4,

96,121,4,118,121,5,

95,121,4,117,120,4,

95,120,4,115,119,4,

95,120,4,115,119,4,

94,119,4,115,118,4,

93,119,4,114,117,4,

93,118,4,114,117,4,

93,118,4,113,116,3,

92,117,3,113,115,4,

93,117,3,112,115,5,

92,116,4,111,115,3,

91,115,4,111,114,4,

91,115,5,111,113,4,

90,114,4,110,113,3,

90,114,4,110,112,4,

89,113,4,109,112,3,

89,113,4,109,111,4,

89,113,3,108,110,3,

89,112,4,107,110,5,

89,112,4,107,109,4,

88,111,4,107,110,4,

88,111,4,106,108,3,

87,110,3,105,108,4,

87,110,4,104,108,4,

86,109,4,103,107,5,

86,109,4,103,107,3,

85,109,4,103,105,4,

86,109,3,103,106,4,

85,107,4,102,105,4,

85,107,4,102,103,4,

85,107,3,101,103,4,

84,106,4,101,103,3,

83,105,5,100,102,4,

83,105,4,100,102,3,

83,103,4,99,101,4,

82,103,4,99,101,4,

82,103,3,98,101,4,

82,103,5,99,100,4,

81,103,3,98,100,3,

81,103,4,97,99,4,

80,102,4,97,99,4,

88,109,4,96,99,4,

88,110,4,96,98,4,

87,109,4,95,98,4,

87,108,3,96,97,4,

86,108,3,95,97,3,

86,107,3,94,96,3,

86,106,4,94,96,4,

85,106,4,93,96,3,

84,105,4,93,96,4,

84,105,4,92,95,4,

83,103,4,92,94,3,

83,103,5,92,95,4,

83,103,4,92,94,5,

82,103,4,92,93,3,

82,103,4,91,93,5,

82,102,3,91,93,5,

82,101,3,91,92,3,

81,101,5,90,91,4,

81,101,3,89,91,4,

81,101,4,89,90,3,

79,99,4,88,90,3,

79,99,4,89,90,5,

79,99,3,88,90,3,

79,99,4,88,89,4,

79,98,3,87,89,3,

78,98,3,88,89,4,

78,98,4,86,89,4,

78,97,4,86,89,3,

78,97,4,86,89,4,

77,98,4,120,88,4,

77,97,3,119,88,4,

77,96,4,119,88,3,

76,96,3,118,88,4,

76,95,4,117,88,4,

76,94,4,116,87,4,

76,94,5,116,86,4,

75,94,4,115,86,3,

75,94,3,115,86,3,

75,93,3,115,85,3,

75,93,4,114,84,4,

74,93,3,123,84,4,

74,93,4,122,84,4,

73,92,4,121,83,4,

73,92,4,121,83,5,

73,91,3,120,83,3,

73,91,4,120,83,3,

76,91,4,120,82,3,

75,90,3,119,82,3,

75,90,5,118,81,3,

74,90,3,118,81,3,

73,90,3,117,81,3,

74,88,3,116,80,3,

73,89,5,116,80,4,

73,88,4,116,79,4,

73,88,3,115,79,4,

73,87,4,115,79,3,

71,87,3,114,79,4,

71,88,3,114,78,3,

71,86,3,113,78,5,

71,86,3,113,78,3,

71,86,5,112,77,4,

70,85,4,112,77,3,

71,86,4,111,77,3,

70,85,4,111,77,4,

70,85,4,110,76,4,

69,84,4,110,76,3,

69,84,4,110,76,4,

69,83,3,108,76,4,

69,83,3,109,75,4,

69,83,4,108,75,4,

69,82,4,107,75,3,

67,83,4,107,73,4,

67,81,3,107,73,3,

67,81,4,105,73,4,

67,81,4,105,73,4,

67,81,4,105,85,5,

67,80,3,138,90,3,

66,80,4,137,89,3,

66,79,4,135,89,3,

65,79,3,135,88,4,

65,79,4,135,88,4,

65,79,4,134,88,3,

65,79,4,134,88,3,

65,78,3,133,86,4,

65,78,4,132,86,4,

64,78,3,131,85,3,

64,78,5,131,86,3,

63,77,4,130,85,4,

64,77,3,130,85,4,

63,77,3,130,84,3,

63,76,4,129,83,4,

63,77,4,128,83,4,

62,76,4,127,83,4,

63,76,3,127,82,3,

62,75,4,126,82,4,

62,75,4,126,81,4,

70,75,4,125,81,3,

84,75,4,125,81,4,

83,73,4,125,80,3,

83,73,4,124,80,3,

83,73,4,124,79,4,

82,73,5,123,79,4,

81,73,4,123,79,3,

82,71,5,122,79,4,

81,73,5,121,78,5,

81,71,3,120,79,5,

80,71,4,120,77,4,

79,71,4,120,77,3,

80,71,3,119,77,3,

80,71,3,119,77,3,

80,71,3,118,76,3,

79,70,5,118,80,4,

79,70,3,117,81,4,

78,70,4,116,79,4,

78,70,3,116,80,3,

78,69,4,115,79,4,

77,70,4,115,79,3,

77,68,4,114,79,4,

77,68,3,115,78,4,

76,69,5,113,78,3,

77,67,3,113,78,4,

75,69,4,112,78,4,

76,67,5,112,78,4,

75,67,4,112,76,4,

75,67,3,111,76,3,

73,67,4,111,76,4,

73,67,4,111,76,4,

73,66,3,109,75,4,

73,66,3,109,74,4,

74,66,3,109,74,4,

75,65,3,109,75,4,

75,65,4,108,74,4,

74,65,4,134,73,3,

73,67,3,131,74,4,

73,67,4,131,73,4,

72,67,3,130,71,3,

71,66,3,130,71,3,

71,66,3,129,71,3,

71,65,3,129,71,5,

71,66,4,127,71,3,

71,65,4,127,71,4,

71,64,4,126,71,4,

70,65,4,126,71,3,

70,63,4,125,70,4,

69,64,3,125,69,3,

70,63,4,124,69,3,

70,63,4,124,70,3,

69,63,3,123,69,3,

69,63,3,123,68,4,

68,62,4,123,68,3,

68,71,4,121,68,4,

67,73,4,121,67,4,

67,75,3,121,67,3,

67,74,5,121,67,4,

66,74,4,120,67,3,

66,74,4,119,67,3,

66,73,3,119,67,3,

65,73,3,119,65,3,

66,73,3,118,66,3,

65,71,3,117,65,4,

65,71,3,116,65,4,

65,71,4,117,65,4,

64,71,3,115,72,4,

64,71,3,115,71,4,

64,70,3,115,71,3,

63,71,3,115,71,3,

63,70,3,114,71,3,

63,70,3,114,70,3,

63,69,4,113,70,4,

62,69,4,112,70,4,

62,69,4,112,70,4,

62,68,3,112,69,3,

61,68,3,111,69,4,

62,67,3,111,68,4,

62,67,4,110,68,5,

61,67,3,109,68,4,

60,67,4,109,67,4,

60,66,4,109,67,3,

60,67,4,109,66,4,

60,65,3,108,67,4,

60,65,5,108,66,4,

60,65,4,107,66,4,

60,64,4,107,65,3,

59,65,3,106,66,3,

58,65,3,106,65,4,

58,67,4,105,65,4,

58,71,3,105,64,3,

58,75,4,109,107,3,

58,76,4,135,127,4,

57,75,4,133,127,4,

57,75,3,133,126,3,

57,75,4,132,125,3,

57,74,3,131,125,3,

58,74,4,131,124,3,

59,74,4,130,123,3,

57,73,3,129,123,4,

58,72,4,129,121,3,

58,71,3,128,121,4,

63,71,4,127,121,3,

63,71,3,127,120,4,

63,71,4,126,120,3,

63,71,3,126,120,5,

63,70,4,125,118,3,

62,70,3,125,118,4,

62,69,3,125,117,4,

62,69,4,123,116,3,

62,69,3,123,117,3,

62,69,4,123,115,4,

61,69,4,121,115,3,

60,69,4,121,114,3,

61,68,3,121,113,3,

60,67,3,120,113,3,

60,67,4,119,113,3,

60,67,3,119,112,4,

59,67,3,119,111,3,

59,66,3,118,111,4,

60,66,4,117,111,3,

73,65,3,118,110,4,

73,65,3,116,110,4,

72,65,3,116,109,3,

71,63,4,115,109,4,

71,64,4,115,142,4,

71,63,3,115,154,3,

71,66,4,113,153,4,

71,65,4,113,152,3,

71,65,3,113,152,3,

70,65,4,112,150,4,

70,64,4,112,149,3,

69,63,3,111,149,4,

70,63,3,111,148,4,

69,63,4,110,147,4,

69,62,4,110,147,3,

68,62,3,109,146,4,

68,62,5,109,144,3,

67,62,4,108,145,4,

67,62,5,108,143,3,

66,62,4,108,143,3,

67,61,3,107,142,4,

66,61,4,107,141,3,

65,60,3,106,141,4,

65,60,3,105,140,3,

65,60,4,105,140,3,

65,60,3,103,139,4,

98,59,3,103,137,4,

97,59,3,103,137,3,

97,59,4,131,185,4,

96,59,4,134,184,4,

95,59,3,133,181,3,

95,58,4,131,181,3,

94,59,3,131,179,4,

94,58,3,131,178,4,

93,57,3,130,177,3,

93,57,5,129,177,3,

93,57,4,129,176,4,

93,57,3,127,175,4,

92,57,5,127,174,3,

92,56,4,126,173,4,

92,56,4,126,173,4,

91,61,3,126,171,3,

90,60,3,125,170,4,

90,61,3,125,169,3,

89,60,4,124,169,3,

89,60,4,124,167,4,

89,59,4,123,167,3,

88,58,3,123,166,3,

88,59,3,122,166,4,

88,59,4,121,164,3,

87,58,3,121,164,3,

86,58,3,120,163,4,

86,57,5,120,162,3,

85,57,4,119,161,3,

85,57,4,118,161,3,

84,61,4,118,159,3,

85,63,4,118,159,4,

84,63,4,117,158,3,

83,63,4,116,158,3,

83,62,3,115,158,4,

83,62,4,115,156,3,

82,62,3,114,156,3,

83,61,3,114,155,4,

82,62,4,114,155,4,

81,61,3,113,153,3,

81,60,4,113,153,4,

81,60,3,112,152,4,

79,60,3,112,151,4,

79,59,4,111,151,3,

79,60,3,110,150,4,

78,59,3,110,149,3,

78,59,3,110,149,4,

78,59,3,110,148,4,

78,58,4,108,147,3,

78,57,4,108,147,3,

76,57,4,107,146,4,

77,57,3,108,145,3,

76,57,4,107,144,3,

76,57,3,106,144,4,

76,56,3,105,143,4,

76,57,3,105,143,4,

75,56,3,105,142,3,

75,56,3,103,142,3,

74,56,4,103,141,3,

74,55,3,103,140,4,

73,55,3,103,140,5,

73,55,3,103,139,4,

73,54,3,102,139,4,

73,54,3,102,138,4,

71,54,3,101,137,4,

71,54,3,101,137,4,

71,53,3,100,135,4,

71,53,4,99,135,4,

71,53,4,99,135,3,

70,52,3,99,134,4,

70,52,3,99,134,3,

70,52,3,98,134,3,

70,51,4,98,132,4,

69,51,3,98,132,3,

69,51,3,97,131,4,

69,51,4,97,130,3,

68,51,4,96,130,4,

68,51,4,96,129,3,

67,50,3,96,129,3,

67,51,3,95,128,4,

67,50,3,94,127,3,

66,50,5,94,127,4,

67,49,4,94,126,3,

66,49,3,93,127,4,

66,49,4,93,126,3,

66,49,3,92,125,4,

66,49,3,93,125,4,

65,50,3,91,124,3,

65,49,4,92,124,4,

64,49,3,92,124,4,

63,49,3,91,123,3,

64,48,3,90,122,4,

63,48,5,90,122,4,

63,48,3,89,121,3,

62,48,3,90,121,4,

63,47,4,89,121,3,

62,48,3,88,120,4,

62,47,4,88,120,3,

62,46,3,88,119,4,

62,47,3,88,119,3,

61,46,3,87,118,3,

61,46,3,87,117,4,

61,46,4,86,116,3,

60,46,3,86,116,4,

60,45,3,86,116,3,

60,46,4,86,115,3,

59,46,3,85,115,4,

60,45,3,84,115,4,

60,45,4,86,114,3,

59,44,4,86,114,4,

59,44,3,86,113,3,

58,44,4,86,113,3,

59,44,3,85,113,3,

57,61,4,85,112,3,

58,60,3,85,111,4,

57,60,3,83,111,3,

57,59,3,83,110,3,

57,59,4,83,110,3,

57,59,3,83,109,3,

56,58,4,83,109,3,

56,58,4,82,108,3,

56,57,3,82,108,4,

56,57,3,86,108,3,

56,57,4,86,108,4,

56,57,4,85,107,3,

55,56,3,84,107,4,

55,56,3,84,106,3,

54,56,3,83,106,4,

55,56,4,83,105,4,

54,56,3,83,105,4,

54,55,5,83,103,4,

54,55,3,82,103,4,

53,55,3,82,103,4,

54,54,3,82,103,4,

53,54,4,81,103,4,

53,54,3,81,102,4,

53,54,4,81,102,4,

52,53,3,80,101,4,

52,53,3,80,101,3,

52,52,3,79,101,3,

51,52,3,79,100,3,

52,51,3,79,100,4,

51,52,3,79,99,3,

51,51,3,79,99,4,

51,51,4,78,98,4,

51,51,4,78,98,3,

50,51,4,77,97,4,

50,51,3,77,97,4,

50,50,3,77,98,3,

50,50,4,76,97,5,

50,50,4,77,97,3,

50,50,4,76,97,3,

49,50,3,77,96,3,

49,49,4,75,96,4,

49,49,4,76,95,3,

48,49,3,75,95,3,

48,49,4,75,95,3,

76,49,3,75,94,3,

107,48,3,74,94,4,

106,48,3,74,94,4,

105,48,4,74,94,3,

103,48,3,73,93,3,

103,48,3,73,92,3,

103,47,4,73,92,3,

103,47,4,71,91,4,

102,47,4,71,91,4,

103,73,4,71,91,3,

102,108,3,71,91,4,

101,107,3,71,90,4,

100,106,3,71,89,3,

99,106,4,71,89,5,

99,105,3,71,89,3,

99,105,4,71,89,4,

99,103,4,70,88,3,

98,103,3,70,88,4,

97,103,4,69,88,3,

97,102,4,69,87,4,

97,102,4,69,86,4,

96,101,3,68,87,4,

96,100,4,68,86,3,

95,100,3,68,85,3,

94,100,4,68,86,4,

94,100,4,67,85,4,

94,99,3,67,85,3,

93,99,3,67,84,5,

93,98,3,66,84,3,

93,98,4,67,83,3,

92,97,3,66,84,3,

92,96,4,65,83,4,

92,96,3,65,83,4,

91,96,4,65,82,3,

91,95,4,65,82,4,

91,96,5,65,82,3,

90,95,4,64,82,3,

90,94,4,65,81,3,

89,94,4,64,82,3,

89,93,3,63,81,4,

89,93,4,63,81,4,

88,93,3,63,79,3,

88,93,4,63,79,3,

87,92,4,62,79,5,

86,92,4,63,79,3,

86,91,4,62,79,3,

86,91,4,62,78,3,

86,91,3,62,78,3,

86,90,3,62,78,3,

85,90,3,61,78,3,

85,89,3,61,78,3,

84,88,4,61,77,4,

84,88,4,60,77,3,

83,88,4,60,77,3,

83,88,3,60,76,3,

83,87,4,60,76,4,

82,87,3,60,75,3,

82,86,4,60,76,4,

81,87,3,60,75,3,

82,85,3,59,75,3,

81,85,4,59,75,4,

81,86,3,59,75,4,

80,84,4,58,74,4,

80,83,3,58,74,3,

79,83,4,58,73,3,

79,83,4,58,73,3,

79,83,3,58,73,3,

79,83,3,57,73,4,

79,82,4,57,73,4,

78,82,4,57,71,4,

78,81,3,59,71,3,

78,82,4,59,71,4,

77,81,4,58,71,3,

77,81,3,58,71,4,

77,80,3,58,71,4,

77,80,3,57,70,4,

76,79,3,57,71,4,

76,79,3,57,70,3,

76,79,4,57,70,4,

75,78,4,56,69,4,

75,78,4,56,69,3,

74,78,4,56,69,3,

73,77,4,56,68,4,

74,77,3,56,68,3,

74,76,4,56,67,3,

73,76,3,56,68,3,

73,77,3,55,67,4,

71,76,3,55,67,4,

71,76,3,55,67,4,

71,75,3,55,66,4,

71,76,3,54,67,4,

71,75,4,54,66,3,

71,74,4,54,66,4,

70,74,3,53,66,4,

70,74,4,54,65,3,

71,74,4,54,65,4,

70,73,4,53,65,4,

70,73,4,53,65,4,

70,71,3,52,65,4,

69,71,3,53,63,4,

69,71,4,52,64,3,

68,71,4,51,63,3,

69,71,4,52,63,3,

68,71,4,51,63,4,

67,70,3,51,63,3,

67,70,3,51,63,3,

67,70,4,51,62,3,

66,70,4,51,63,5,

66,70,4,96,62,4,

67,69,3,94,62,3,

66,69,3,93,62,4,

65,68,3,93,61,3,

65,68,3,92,61,3,

65,68,4,92,61,3,

65,67,3,92,61,3,

65,67,3,91,60,3,

64,67,3,90,61,4,

63,67,3,91,60,4,

63,67,4,90,60,4,

63,66,4,89,60,4,

63,66,4,89,60,3,

63,67,4,89,59,3,

63,76,4,89,59,4,

62,107,4,88,59,3,

62,107,3,88,59,4,

62,106,3,87,58,4,

62,105,4,87,59,3,

62,105,3,87,58,3,

65,104,3,85,57,3,

102,103,3,85,57,4,

101,103,4,85,58,3,

100,103,4,84,57,3,

101,103,4,84,56,3,

100,103,3,83,56,4,

99,101,3,84,59,5,

99,101,3,83,59,4,

97,100,3,83,59,3,

98,99,4,82,59,3,

98,99,3,81,57,4,

97,99,3,81,59,4,

96,99,4,81,57,4,

95,99,3,81,57,3,

95,98,4,80,57,4,

95,97,3,80,57,3,

95,97,3,80,56,4,

95,97,3,80,56,3,

94,96,3,79,57,4,

93,96,4,79,56,3,

93,95,3,78,56,4,

92,94,4,78,56,4,

92,95,3,77,56,3,

92,94,3,78,55,4,

91,94,3,77,55,3,

91,94,3,77,55,4,

90,92,4,77,55,3,

90,92,3,76,55,3,

91,92,4,76,54,4,

89,92,3,76,55,3,

89,91,4,76,54,3,

89,91,4,75,53,3,

89,90,3,74,53,4,

88,91,4,74,53,3,

87,89,3,75,52,4,

88,89,3,73,52,3,

87,88,4,73,52,3,

86,88,3,73,52,4,

85,88,3,73,51,3,

85,88,4,71,52,4,

85,88,3,71,52,4,

85,87,3,71,51,4,

84,87,4,71,51,3,

84,86,4,71,51,4,

84,86,3,71,51,3,

83,85,4,71,51,3,

83,85,4,71,50,3,

83,85,4,71,50,3,

83,84,4,70,49,4,

82,83,4,70,50,3,

82,83,3,69,49,4,

81,83,4,69,50,4,

81,83,4,69,49,3,

80,82,3,68,49,4,

82,82,3,69,49,3,

83,82,3,67,49,3,

83,81,3,67,48,4,

83,81,4,68,48,3,

82,80,4,67,48,4,

81,81,4,67,48,3,

81,79,3,67,48,4,

80,80,3,67,48,4,

79,79,4,66,48,4,

79,79,3,66,47,3,

79,79,3,66,48,4,

79,78,4,65,47,4,

79,78,3,65,47,3,

78,77,3,65,46,3,

78,77,3,64,46,3,

78,77,3,63,46,4,

77,77,4,63,46,4,

77,76,3,63,46,4,

77,76,3,63,46,4,

77,76,4,102,53,3,

76,76,4,101,52,3,

76,75,4,100,52,4,

75,75,3,99,52,4,

75,74,4,100,52,4,

75,74,3,99,51,3,

75,73,3,99,51,3,

74,74,3,99,51,3,

74,73,4,98,51,4,

73,72,3,97,50,3,

73,73,4,96,51,4,

73,71,4,96,50,3,

71,73,5,96,50,3,

71,71,3,96,50,3,

71,71,4,95,49,4,

71,71,3,95,49,4,

71,71,4,94,48,3,

71,71,3,94,48,3,

71,71,3,93,49,4,

71,71,3,94,48,3,

70,69,3,92,48,3,

70,70,3,92,48,4,

70,69,3,92,48,4,

69,69,4,91,47,3,

69,69,4,92,48,3,

69,68,3,91,47,4,

69,68,3,90,47,4,

68,68,4,89,47,3,

67,67,5,90,47,4,

98,67,4,89,46,4,

97,67,3,89,46,3,

96,66,3,88,46,4,

96,66,4,88,46,3,

95,65,3,88,45,3,

95,66,4,87,45,4,

95,65,3,87,45,4,

94,65,4,86,45,3,

93,65,4,87,51,4,

93,64,4,109,50,3,

93,64,3,109,50,4,

92,64,3,108,50,3,

92,63,4,107,49,3,

92,64,4,107,49,3,

91,63,4,106,49,4,

91,63,3,105,48,4,

90,62,4,105,49,4,

89,62,3,103,48,3,

89,63,4,103,48,3,

89,62,4,103,48,3,

89,62,3,103,48,3,

88,61,3,103,48,3,

88,62,4,103,48,3,

87,60,3,101,47,3,

87,60,4,101,47,4,

87,61,4,101,47,4,

86,60,4,101,46,4,

86,60,4,100,47,3,

85,60,4,99,46,3,

85,59,3,100,46,3,

84,59,4,110,46,3,

84,59,4,110,45,3,

83,58,3,109,45,3,

83,58,3,109,45,3,

83,58,3,108,45,3,

82,57,4,108,45,3,

82,57,3,106,44,3,

82,57,3,107,44,4,

82,57,4,105,44,3,

82,57,4,105,44,3,

81,56,4,105,44,3,

80,56,4,103,43,3,

79,56,3,103,43,4,

80,56,3,103,44,4,

79,55,4,103,43,4,

79,56,4,102,43,3,

78,55,4,102,45,4,

78,54,4,102,44,4,

77,55,4,101,44,4,

78,56,3,100,44,4,

77,55,3,100,44,4,

76,55,4,99,43,3,

77,54,3,99,43,3,

76,55,4,99,43,5,

76,54,4,98,43,4,

75,53,3,99,43,3,

75,54,5,97,42,3,

74,53,3,97,43,4,

75,53,3,97,65,4,

74,53,4,96,65,3,

73,53,3,96,65,4,

73,52,3,96,65,4,

73,52,3,96,64,3,

73,51,3,94,63,4,

72,51,4,94,63,4,

71,51,3,94,63,3,

71,51,4,94,63,3,

71,51,3,93,62,3,

71,51,4,92,62,3,

71,51,3,92,62,3,

71,50,4,92,61,3,

71,50,4,92,61,3,

70,50,3,92,61,4,

70,50,4,91,61,3,

70,50,4,90,60,3,

69,49,3,91,60,3,

69,49,4,89,60,4,

68,49,4,89,59,3,

68,48,4,89,60,4,

68,48,4,89,59,5,

68,48,3,89,59,3,

67,48,4,88,59,4,

67,48,4,88,59,4,

67,48,3,88,58,4,

67,48,3,87,57,4,

67,47,4,87,57,3,

67,47,3,88,57,3,

66,79,4,86,57,3,

66,79,4,86,56,4,

66,78,4,85,56,3,

65,77,3,85,56,3,

64,77,4,85,56,4,

65,77,4,84,56,3,

64,77,4,84,55,3,

64,76,3,83,56,4,

63,76,3,83,55,4,

63,75,3,82,55,4,

63,76,4,83,55,3,

63,75,4,82,54,3,

62,74,4,81,54,3,

62,74,3,82,53,3,

62,73,3,81,53,4,

62,73,3,81,54,4,

61,73,4,81,53,4,

62,73,4,80,52,3,

61,71,3,79,52,3,

60,72,3,79,52,3,

61,71,4,79,52,5,

60,71,4,79,52,3,

60,71,3,78,51,4,

60,71,5,79,92,4,

60,76,3,79,100,3,

59,75,3,78,100,4,

59,73,3,78,98,4,

59,73,3,78,98,3,

59,73,4,77,98,4,

58,73,3,77,97,4,

58,73,4,77,98,3,

57,72,4,76,96,5,

57,71,4,76,96,4,

58,71,4,76,96,3,

58,71,4,76,96,4,

57,71,4,76,96,3,

57,71,4,75,95,4,

57,71,4,75,95,5,

57,70,3,75,93,3,

56,71,3,74,93,4,

56,70,3,74,93,3,

55,70,3,73,92,3,

55,69,4,73,92,3,

56,68,3,73,91,3,

55,68,4,73,91,3,

54,68,4,73,91,4,

56,67,3,71,89,4,

56,68,3,71,90,4,

56,67,3,71,90,4,

56,67,3,71,89,3,

56,66,4,71,88,3,

55,66,3,70,88,4,

54,65,3,70,88,3,

55,66,3,70,88,4,

55,65,5,70,87,4,

54,65,4,69,86,3,

54,65,3,70,86,3,

53,65,3,69,86,4,

53,65,3,69,86,4,

53,63,4,68,86,4,

52,63,3,68,85,3,

53,63,3,67,85,3,

52,63,3,68,83,3,

52,63,3,67,84,4,

52,62,4,67,83,4,

51,62,3,67,83,4,

51,63,4,67,83,3,

51,61,4,67,82,3,

51,62,3,66,82,3,

51,62,3,66,82,4,

51,60,3,65,82,4,

50,61,3,65,81,3,

51,60,3,65,81,3,

49,60,4,65,80,3,

50,60,4,64,80,3,

50,59,5,64,80,3,

49,59,4,63,79,4,

49,59,4,63,79,3,

49,59,3,63,79,4,

49,59,4,63,78,3,

48,59,3,63,78,3,

49,58,3,62,77,4,

48,58,3,62,77,3,

48,57,4,62,77,4,

48,58,3,62,76,3,

47,57,3,61,76,3,

48,57,3,61,77,3,

48,56,4,61,76,4,

48,57,3,62,76,3,

48,56,4,62,76,3,

47,56,3,60,75,5,

47,56,4,60,74,3,

46,56,4,60,74,4,

46,55,4,60,75,4,

46,55,3,60,74,3,

46,54,3,59,73,3,

45,54,3,59,73,3,

46,55,4,58,73,3,

45,54,4,59,71,3,

45,54,3,59,71,3,

46,53,4,58,71,3,

45,53,3,58,71,3,

45,53,3,58,71,3,

45,53,4,58,71,3,

44,52,3,57,70,4,

44,52,4,57,70,4,

44,52,3,57,69,3,

44,51,4,57,70,3,

44,51,4,56,69,4,

51,51,4,56,69,4,

51,51,4,56,69,4,

53,50,3,56,69,3,

66,50,3,56,68,3,

65,50,3,56,68,3,

65,51,3,55,67,3,

64,50,4,56,67,3,

63,50,3,55,67,4,

63,49,4,55,67,4,

63,49,3,54,66,4,

63,49,4,55,66,3,

62,49,3,53,66,4,

63,48,4,54,65,3,

62,48,4,53,65,3,

62,49,3,53,65,3,

62,48,4,53,64,3,

61,48,4,53,65,3,

61,47,3,52,64,3,

60,47,3,52,63,3,

61,51,3,53,78,3,

61,51,4,52,77,4,

60,51,3,51,77,3,

60,51,4,51,76,4,

60,50,3,51,76,4,

59,50,4,51,76,3,

58,50,4,51,75,3,

58,50,3,50,75,3,

59,50,3,50,74,3,

59,49,4,51,74,4,

57,48,3,50,74,3,

57,48,3,49,73,4,

57,49,4,49,73,4,

57,48,3,49,73,3,

57,48,3,50,73,4,

57,48,3,48,72,3,

56,47,4,49,71,4,

56,47,3,48,71,3,

55,47,3,49,71,4,

56,48,3,48,71,3,

56,47,4,48,71,4,

55,46,4,48,70,4,

55,46,3,48,70,3,

57,46,4,48,70,3,

56,46,4,48,69,3,

57,46,3,53,69,3,

56,45,4,52,70,3,

56,45,4,52,68,4,

56,46,4,51,69,3,

56,45,3,51,67,3,

55,45,4,52,67,4,

55,45,4,51,67,4,

55,45,4,50,67,4,

54,45,4,51,66,3,

54,44,3,50,66,3,

53,44,4,50,66,4,

54,44,3,49,65,3,

53,44,3,50,65,4,

53,44,4,50,65,4,

54,43,4,50,65,4,

53,50,5,51,71,3,

52,49,4,54,70,3,

52,49,4,54,71,3,

52,49,4,53,70,3,

51,48,3,53,69,3,

52,49,3,53,70,3,

51,48,3,53,69,4,

56,48,3,52,68,3,

58,48,3,52,68,4,

58,48,3,51,68,3,

58,48,3,52,67,3,

58,47,4,51,67,3,

57,47,3,51,67,3,

57,47,3,51,66,4,

57,46,4,51,66,4,

56,46,4,51,66,3,

56,46,4,51,66,3,

56,46,3,50,65,3,

56,45,4,50,65,4,

55,46,4,50,65,4,

55,46,4,50,65,4,

55,45,4,49,65,5,

55,45,3,49,64,3,

55,45,3,48,63,4,

54,45,3,48,63,4,

54,44,3,48,63,4,

54,44,3,48,63,3,

53,44,3,48,63,3,

53,44,3,48,62,3,

53,43,4,48,63,4,

52,43,3,48,62,3,

52,43,3,48,62,5,

52,43,3,47,61,3,

51,43,3,46,61,3,

51,42,4,46,61,3,

51,42,3,46,60,3,

51,42,4,46,61,3,

51,42,4,46,60,3,

51,41,4,46,60,3,

51,41,3,45,60,3,

50,41,4,45,59,4,

50,41,4,45,59,4,

50,41,5,45,59,3,

49,41,3,45,59,3,

50,40,4,45,59,4,

49,39,3,45,58,3,

48,39,4,44,58,4,

49,41,3,45,57,4,

49,39,3,44,58,3,

48,39,3,44,57,3,

48,39,3,43,57,3,

48,39,3,43,57,4,

48,39,3,44,58,3,

48,39,4,43,58,3,

47,44,4,43,57,4,

47,44,4,43,57,3,

47,44,3,43,57,3,

46,43,4,42,57,3,

47,43,3,42,56,5,

46,43,4,42,56,3,

47,42,4,41,56,3,

46,43,4,42,56,4,

45,43,3,42,56,4,

46,43,3,41,55,3,

46,43,4,42,55,4,

45,41,3,41,56,4,

45,42,4,41,55,4,

45,41,4,41,54,4,

45,41,3,39,54,4,

45,41,3,41,53,4,

44,41,3,39,54,3,

44,41,4,39,53,3,

43,40,3,39,53,3,

44,39,3,39,52,3,

44,39,4,39,52,4,

43,41,5,39,52,3,

43,39,3,39,52,4,

44,39,4,39,52,3,

43,39,3,39,56,4,

43,39,3,39,56,4,

43,39,3,39,55,3,

42,39,4,39,54,4,

43,39,4,38,55,4,

42,39,4,39,54,3,

42,39,5,38,54,4,

41,38,4,38,54,3,

41,38,3,38,53,3,

42,39,4,37,53,3,

41,38,3,38,52,4,

41,38,3,37,53,4,

41,39,3,37,53,4,

41,38,3,37,51,3,

39,39,4,38,52,3,

39,38,4,38,51,4,

41,38,3,37,51,4,

39,38,3,37,51,3,

40,37,4,37,51,3,

41,38,4,37,51,3,

57,37,4,36,51,4,

57,38,3,35,50,4,

56,37,3,36,51,3,

56,36,4,36,49,4,

56,37,3,35,50,3,

56,37,4,36,50,4,

56,36,4,36,59,3,

55,36,3,35,57,4,

55,35,3,35,57,4,

55,35,4,35,57,4,

55,35,3,35,57,4,

54,35,3,34,56,3,

54,36,4,34,56,4,

53,35,3,35,56,3,

53,35,3,35,56,4,

54,35,3,34,56,4,

53,34,3,34,55,4,

53,35,4,34,55,3,

52,35,3,33,54,4,

52,35,4,34,56,3,

52,34,4,33,56,4,

51,34,3,33,56,3,

51,35,4,34,55,3,

51,34,4,32,55,4,

51,33,4,33,55,4,

51,33,3,33,54,4,

50,33,3,32,54,3,

50,33,3,32,54,3,

50,34,3,33,53,4,

50,33,4,36,53,4,

50,32,3,35,53,4,

49,33,4,36,53,3,

49,32,3,36,53,4,

48,33,3,35,52,4,

48,33,3,35,53,3,

48,32,4,34,52,4,

48,32,4,35,51,3,

48,31,3,35,51,3,

48,31,4,35,51,4,

47,32,3,34,51,3,

47,31,4,35,51,4,

47,31,4,34,50,3,

47,31,4,34,50,4,

47,31,3,34,50,4,

46,32,3,37,50,4,

46,33,4,37,49,3,

46,33,4,37,50,4,

45,33,3,37,49,3,

45,32,3,37,49,4,

45,32,3,37,49,4,

45,32,3,37,48,3,

45,31,4,36,48,4,

45,32,4,36,48,3,

44,31,3,36,48,3,

44,31,4,35,48,4,

44,32,4,35,48,3,

44,31,4,35,48,3,

44,31,3,35,47,3,

44,31,4,35,48,3,

43,31,3,35,48,3,

43,30,3,35,46,4,

44,30,3,34,46,3,

43,30,4,35,46,4,

42,30,3,34,46,3,

42,30,3,34,46,4,

42,30,4,34,46,4,

42,30,3,34,45,5,

41,30,3,33,45,3,

41,30,3,33,45,4,

41,30,3,33,45,3,

41,30,4,33,45,4,

41,29,4,33,45,4,

41,30,3,33,44,4,

41,29,3,33,44,4,

41,30,3,33,44,3,

39,29,3,31,44,3,

39,29,3,31,44,3,

39,29,4,31,44,3,

39,28,3,31,44,4,

39,29,3,56,44,3,

39,28,4,55,43,3,

39,28,3,55,43,4,

39,28,4,54,43,3,

39,28,3,54,43,4,

39,28,3,55,43,3,

39,51,3,53,43,3,

39,50,4,54,42,3,

39,50,4,53,42,4,

39,50,4,53,41,3,

38,50,3,52,42,3,

38,50,4,52,41,4,

38,49,3,52,42,3,

38,48,3,51,41,4,

37,48,3,51,41,4,

38,48,3,51,41,3,

37,48,3,51,39,3,

38,48,4,51,39,3,

37,48,3,51,41,3,

37,47,3,50,40,3,

37,47,3,50,41,3,

37,47,4,50,39,3,

36,47,4,50,39,3,

36,46,3,49,39,3,

36,46,3,49,39,3,

36,46,4,49,39,4,

36,46,3,49,39,4,

36,45,3,48,39,3,

35,45,4,48,39,4,

55,45,4,49,39,3,

57,46,4,48,39,3,

57,46,3,48,38,3,

56,45,3,47,38,3,

56,45,3,47,38,4,

56,44,3,47,38,3,

55,44,4,47,37,3,

56,44,4,46,38,4,

56,44,4,46,37,4,

56,43,3,47,38,3,

55,44,5,47,37,3,

55,43,3,46,37,3,

54,44,3,46,37,4,

55,43,3,45,37,4,

55,43,4,45,37,4,

55,43,4,46,36,3,

54,42,3,45,38,5,

53,42,3,45,37,3,

53,42,4,45,37,3,

52,42,4,44,36,3,

53,42,3,44,36,4,

52,41,4,44,37,4,

51,41,3,44,36,3,

51,41,3,44,36,4,

51,41,4,43,37,4,

51,41,3,43,35,3,

51,41,4,43,35,4,

50,39,4,42,35,3,

50,39,3,43,35,3,

51,39,4,43,35,3,

50,39,3,41,35,3,

50,39,3,43,35,4,

49,39,5,43,35,3,

50,39,4,43,35,3,

49,39,3,43,34,4,

49,39,4,42,34,3,

48,39,3,41,34,3,

49,38,3,41,34,3,

48,38,4,41,34,4,

49,38,4,42,34,3,

48,38,3,41,34,4,

47,37,3,41,33,4,

47,37,3,41,34,4,

47,38,3,41,39,4,

47,37,3,41,39,3,

47,36,3,41,39,4,

46,37,3,41,39,3,

47,37,3,39,38,3,

46,37,4,39,38,3,

46,36,4,39,37,3,

50,37,5,39,38,4,

51,86,4,39,38,4,

50,85,3,39,37,4,

50,83,3,39,37,3,

50,83,3,39,44,3,

50,83,4,39,44,4,

50,82,4,39,44,4,

49,83,4,38,44,3,

49,82,3,38,43,4,

49,81,3,38,43,3,

48,80,3,38,43,4,

49,80,3,38,43,3,

48,80,3,38,42,4,

48,79,3,38,42,3,

48,79,3,38,43,4,

47,79,3,37,42,3,

48,78,3,37,41,3,

47,78,3,37,41,3,

47,78,4,37,41,3,

46,78,3,36,41,3,

46,78,3,36,40,4,

46,77,3,36,41,3,

46,77,4,36,39,3,

46,77,3,35,39,3,

46,76,4,35,39,3,

45,76,3,35,39,4,

45,75,3,35,39,4,

45,75,3,35,39,3,

45,75,3,35,39,3,

45,75,4,35,39,3,

45,75,3,35,39,3,

45,74,3,34,38,3,

44,74,4,34,39,3,

44,73,4,34,39,3,

44,71,4,34,38,3,

44,71,4,33,38,3,

43,71,3,33,38,3,

43,71,3,33,38,3,

44,71,3,33,37,4,

42,71,3,33,37,3,

43,71,3,33,37,4,

43,71,3,33,37,4,

43,70,4,33,37,3,

42,70,3,32,36,4,

42,70,3,33,36,3,

41,69,4,31,36,3,

41,69,3,33,36,3,

41,68,4,31,36,4,

40,68,3,33,35,4,

39,67,4,31,35,4,

41,68,4,31,35,4,

39,67,3,31,35,3,

40,67,4,31,35,3,

39,67,3,31,35,3,

40,66,3,31,35,4,

39,66,4,31,35,4,

39,65,4,31,35,3,

39,65,3,31,35,3,

39,65,3,30,34,3,

39,65,4,30,35,3,

39,65,4,30,34,3,

39,65,4,30,34,3,

39,64,4,30,34,3,

39,64,4,30,34,4,

39,63,4,30,33,3,

38,63,3,30,33,4,

39,63,3,30,33,4,

38,62,3,39,33,3,

38,63,3,39,33,4,

38,62,3,39,33,4,

38,63,4,39,33,3,

37,92,3,39,32,3,

37,92,4,39,31,3,

37,92,4,39,32,4,

37,91,3,39,32,3,

36,90,4,39,33,3,

36,90,4,39,31,3,

36,89,4,39,31,3,

36,88,4,39,31,4,

36,88,3,38,31,3,

36,88,3,38,31,3,

35,88,4,38,30,4,

35,88,3,38,30,4,

35,87,4,37,31,3,

35,86,3,37,31,4,

35,86,4,37,31,3,

35,86,3,37,31,3,

35,86,3,37,31,3,

34,84,4,36,31,4,

34,84,4,37,31,4,

35,84,3,36,31,3,

35,83,4,35,31,3,

34,83,4,35,31,4,

35,83,3,35,31,3,

34,83,3,35,30,3,

33,82,3,35,30,4,

34,82,3,51,39,3,

33,82,3,50,39,4,

33,81,3,50,39,4,

33,81,4,50,38,3,

33,80,3,50,38,3,

33,79,3,49,38,4,

36,80,4,49,38,4,

57,79,4,49,39,3,

57,79,3,49,38,3,

57,79,4,49,37,3,

56,78,4,48,38,3,

56,78,3,48,37,3,

56,78,4,48,37,3,

56,77,4,48,36,3,

55,77,3,47,37,3,

55,77,3,48,37,4,

54,76,5,47,37,3,

55,76,3,47,35,3,

55,76,4,47,35,3,

54,76,4,46,35,5,

53,75,3,46,35,3,

53,74,3,45,35,4,

54,75,3,46,35,4,

53,74,3,45,35,3,

53,74,4,46,35,4,

53,74,3,45,35,4,

52,73,4,45,41,3,

52,71,3,44,44,4,

51,72,4,44,43,3,

51,71,4,44,43,3,

51,71,4,44,43,3,

51,71,3,44,42,4,

51,71,4,43,43,3,

51,70,3,43,42,3,

51,70,3,43,42,3,

50,70,4,43,42,4,

