
31,25,14,44,20,14,

30,25,14,43,21,14,

31,25,14,43,20,14,

30,25,14,43,20,14,

30,25,14,43,19,14,

30,25,14,42,20,14,

31,25,14,42,21,14,

31,25,14,43,20,14,

31,25,14,42,20,14,

32,25,14,42,19,14,

31,25,14,43,19,14,

31,25,14,42,20,14,

31,24,14,42,20,14,

31,25,14,41,19,14,

31,25,14,41,19,14,

31,25,14,41,19,14,

30,25,14,41,19,14,

31,25,14,41,20,14,

41,25,14,41,19,14,

50,25,14,39,20,14,

50,25,14,40,20,14,

50,24,14,40,19,14,

50,25,14,39,19,14,

50,25,14,39,19,14,

49,24,14,40,19,14,

49,24,14,39,19,14,

49,24,14,39,19,14,

49,24,13,39,19,14,

48,24,14,39,19,14,

48,24,14,39,19,14,

48,24,14,39,19,14,

47,24,14,39,19,14,

48,24,14,39,19,14,

47,24,14,39,19,14,

47,24,14,39,19,14,

46,24,14,38,19,14,

46,23,14,38,19,14,

46,23,14,38,18,14,

46,23,14,38,19,14,

46,23,14,38,19,14,

46,23,14,38,19,14,

46,23,14,38,19,14,

46,24,14,39,19,14,

45,24,14,39,18,14,

45,23,14,39,19,14,

45,24,13,39,18,13,

45,23,14,39,19,14,

44,23,14,38,19,14,

44,23,14,39,19,14,

44,23,14,38,22,14,

44,22,14,38,20,14,

44,23,14,39,20,14,

44,22,14,38,20,14,

43,23,14,38,21,13,

43,23,13,38,20,14,

43,23,14,37,20,14,

43,22,14,37,20,14,

43,22,14,37,20,13,

42,22,14,37,20,14,

42,23,14,37,21,14,

42,37,14,37,20,15,

42,38,14,37,21,14,

42,38,14,37,20,14,

41,37,14,36,20,15,

41,37,14,36,20,14,

42,37,14,36,20,13,

41,37,14,36,20,14,

41,37,14,35,20,14,

39,36,14,35,20,14,

39,36,14,35,21,14,

41,36,14,35,20,14,

40,36,14,36,20,14,

39,35,14,35,20,14,

40,35,14,34,21,14,

39,35,14,35,19,14,

39,35,14,34,19,14,

39,35,14,35,20,14,

39,35,14,34,20,14,

39,34,14,35,20,15,

39,35,13,35,19,14,

39,35,14,34,19,14,

39,34,14,35,19,14,

39,35,13,34,19,14,

39,34,14,34,19,14,

38,34,14,34,19,14,

38,34,13,34,19,14,

38,34,14,34,19,14,

38,34,14,33,19,14,

38,33,14,34,19,14,

38,33,14,33,19,14,

37,33,14,32,19,13,

37,33,14,33,19,14,

37,33,14,33,19,14,

36,33,14,32,19,14,

37,32,14,33,19,14,

36,33,14,33,19,14,

37,33,14,32,18,14,

36,33,14,32,19,14,

36,33,14,31,19,14,

35,31,14,31,19,14,

35,31,14,32,18,14,

37,31,14,31,19,14,

37,32,14,32,18,14,

37,31,14,31,19,14,

36,31,14,31,18,14,

37,31,14,31,19,14,

35,31,14,31,19,14,

36,31,14,32,18,14,

36,31,14,31,18,14,

35,31,14,31,18,13,

35,31,14,31,18,14,

38,30,14,31,19,14,

39,31,14,31,18,13,

38,30,14,31,18,14,

38,30,14,31,18,14,

38,31,14,31,18,14,

38,30,14,31,18,14,

37,30,14,31,18,14,

37,30,14,31,18,14,

37,30,13,31,17,14,

37,29,14,30,17,14,

36,30,14,30,18,14,

37,30,14,30,18,15,

37,29,14,30,17,14,

37,30,14,30,18,14,

36,29,14,29,17,14,

36,29,14,30,17,14,

35,29,14,30,17,14,

36,29,14,29,18,14,

35,28,14,30,17,14,

35,28,14,30,18,14,

35,28,14,30,19,14,

35,29,14,29,19,14,

35,29,14,29,19,14,

35,28,14,29,19,14,

44,29,14,29,19,14,

42,29,14,28,19,14,

43,29,14,28,19,14,

42,28,14,29,19,14,

42,28,14,29,19,13,

42,28,14,28,19,14,

41,27,14,28,18,14,

41,27,14,28,19,13,

41,28,14,28,18,14,

41,27,14,28,19,14,

41,27,14,28,18,14,

41,27,14,28,18,14,

41,28,14,28,18,14,

43,27,14,28,18,14,

42,27,13,28,18,14,

42,27,14,28,18,14,

42,27,14,27,18,14,

41,27,14,28,19,14,

41,26,14,27,18,14,

41,26,14,27,18,14,

41,27,14,28,18,14,

41,27,14,27,18,14,

41,27,14,28,17,14,

39,26,14,27,18,14,

40,27,14,27,18,14,

41,26,14,30,18,14,

39,26,14,30,18,14,

39,26,14,29,18,14,

39,26,14,30,18,14,

39,25,14,30,17,14,

39,25,13,30,18,14,

39,26,14,29,18,13,

39,25,14,30,17,14,

39,25,14,28,18,14,

39,25,14,29,18,14,

39,25,14,29,18,14,

53,25,14,29,18,14,

77,25,14,29,18,14,

79,25,14,29,18,14,

79,25,14,29,17,14,

78,25,14,28,17,15,

77,25,14,28,18,14,

77,25,14,29,17,14,

77,35,14,28,17,14,

76,40,14,28,18,14,

76,40,15,28,18,14,

76,39,14,28,18,14,

76,39,14,28,18,14,

75,39,14,28,17,14,

74,39,14,28,18,14,

74,39,14,27,17,14,

73,39,14,27,17,14,

73,38,14,27,17,14,

73,39,14,28,17,15,

72,38,14,27,17,14,

71,39,14,28,17,14,

72,38,14,27,17,14,

71,38,15,27,17,13,

71,38,14,27,18,14,

71,38,14,27,17,14,

71,38,14,27,18,14,

71,38,13,26,17,14,

71,37,14,27,17,14,

70,37,14,27,18,14,

70,38,14,26,17,14,

70,37,14,26,17,14,

69,37,14,26,17,14,

68,36,14,26,17,14,

68,36,14,26,17,14,

68,37,14,25,19,14,

68,36,14,26,19,15,

67,35,14,25,19,14,

67,36,14,25,19,14,

67,35,14,25,19,14,

67,35,14,25,18,14,

67,36,14,25,19,14,

66,35,14,25,18,14,

65,35,13,25,19,14,

66,35,14,24,19,14,

65,34,14,25,18,13,

65,35,14,25,18,14,

65,35,14,24,18,14,

64,34,14,24,18,14,

63,34,14,25,19,14,

64,34,14,24,18,14,

63,34,14,25,18,14,

63,34,14,25,18,14,

63,34,14,24,18,14,

63,33,14,25,18,14,

63,33,14,24,17,14,

62,33,14,24,18,14,

62,34,13,24,18,14,

62,33,14,24,18,15,

62,33,14,24,19,14,

61,33,13,24,18,14,

61,33,14,24,18,14,

60,33,14,24,18,13,

61,32,14,24,18,14,

60,32,13,24,17,14,

60,32,14,24,18,14,

60,31,14,24,17,14,

60,32,14,24,18,14,

60,32,14,24,17,14,

59,31,14,24,18,14,

58,31,14,24,17,14,

59,31,14,24,17,14,

59,31,13,24,17,14,

58,31,13,24,17,14,

58,31,14,23,17,14,

57,31,14,24,17,14,

57,31,14,23,18,14,

57,31,14,23,17,14,

57,31,14,23,17,14,

57,30,14,23,18,14,

56,30,14,24,16,14,

56,31,14,22,17,14,

56,31,14,22,17,14,

56,31,14,24,17,14,

56,31,14,24,17,14,

56,30,14,24,17,13,

56,30,14,24,17,14,

55,30,14,24,16,14,

55,30,14,24,17,14,

55,30,14,23,17,14,

54,30,14,24,17,14,

54,30,14,23,17,14,

54,30,14,23,17,13,

54,30,14,24,17,14,

53,29,14,23,17,14,

54,29,14,23,17,14,

54,29,14,23,16,14,

53,29,13,23,17,14,

52,29,13,22,17,14,

53,29,14,23,17,14,

51,29,13,23,16,14,

52,28,14,23,17,14,

51,28,13,22,16,14,

51,28,14,22,17,14,

51,29,14,22,16,14,

51,28,14,22,16,14,

51,28,14,22,16,14,

50,28,14,22,16,14,

50,28,14,22,16,14,

50,28,14,22,17,14,

50,28,14,22,16,14,

50,28,14,22,16,14,

50,28,14,22,16,14,

49,28,14,22,16,14,

49,28,14,22,17,13,

49,27,14,21,16,14,

48,27,14,21,17,14,

48,27,14,21,16,14,

49,27,14,21,17,13,

49,27,14,21,16,14,

48,27,14,21,15,14,

48,27,14,21,17,14,

48,26,14,21,16,14,

48,27,14,21,17,14,

47,26,14,21,16,14,

47,27,14,21,16,14,

47,27,13,21,16,13,

47,26,14,21,16,13,

47,26,14,21,17,14,

47,25,14,21,19,14,

46,26,14,21,19,14,

46,25,14,20,18,14,

46,25,14,21,19,14,

45,26,14,21,19,14,

46,25,13,21,18,14,

45,26,14,19,19,14,

45,26,14,21,18,14,

45,26,14,20,18,14,

45,25,14,21,19,13,

45,25,14,21,18,14,

45,25,13,20,19,14,

45,25,14,20,18,13,

44,25,14,20,18,14,

43,25,14,20,17,14,

44,25,14,21,18,14,

44,24,13,20,18,14,

44,24,14,21,18,14,

43,24,14,21,18,14,

43,25,14,20,18,14,

43,25,14,21,18,14,

43,24,13,19,17,14,

42,25,14,20,19,14,

43,24,14,24,19,15,

43,24,13,25,19,13,

42,24,14,24,19,13,

42,25,14,25,19,14,

42,24,14,25,19,14,

42,24,14,25,19,14,

41,24,14,25,19,14,

41,24,14,25,19,14,

41,24,14,25,19,14,

41,24,14,25,18,14,

41,25,14,25,19,14,

40,26,14,24,19,14,

41,25,14,24,19,14,

41,25,14,24,18,14,

40,25,14,24,19,14,

39,25,14,24,19,14,

39,25,14,24,18,14,

39,25,14,24,19,14,

39,25,14,23,19,14,

39,25,14,24,18,14,

39,24,14,24,19,14,

39,25,13,24,19,14,

39,25,14,24,21,14,

39,24,14,23,20,14,

39,25,14,24,20,14,

39,24,14,24,20,14,

38,25,14,26,20,14,

39,25,14,29,20,14,

38,24,13,28,20,13,

38,25,13,29,20,13,

38,24,14,28,20,14,

38,24,15,29,19,14,

38,24,14,28,19,13,

38,23,14,29,20,14,

37,23,14,29,20,14,

37,24,14,28,19,14,

37,24,14,28,19,14,

36,24,14,28,19,13,

37,23,14,28,19,13,

37,24,14,27,19,14,

37,23,13,27,19,14,

37,23,14,27,20,14,

38,24,14,28,19,14,

36,23,14,28,19,14,

36,24,14,28,20,14,

37,23,14,28,19,14,

36,23,14,27,19,14,

37,22,14,27,19,14,

36,23,14,27,19,14,

36,23,14,27,19,14,

36,22,14,27,19,14,

36,22,14,26,19,14,

35,22,14,26,19,14,

35,22,14,26,19,14,

36,22,14,26,19,14,

35,22,14,26,18,13,

35,22,14,26,19,14,

35,22,14,26,19,14,

34,22,14,26,19,14,

35,22,14,25,19,14,

35,22,14,26,18,14,

35,22,14,25,19,14,

34,22,14,26,18,14,

34,22,14,25,18,14,

33,21,14,25,18,13,

33,21,14,25,19,14,

33,21,14,25,18,14,

34,21,14,25,18,13,

33,21,13,25,18,14,

33,21,13,24,18,14,

33,21,14,25,18,14,

32,21,14,24,18,13,

33,21,13,25,18,14,

33,20,14,24,18,14,

33,21,14,24,18,14,

33,21,14,24,18,14,

33,21,13,25,18,14,

32,21,14,24,18,14,

32,20,14,24,18,14,

31,20,14,24,18,14,

31,21,14,24,18,14,

31,21,13,24,18,13,

31,21,14,24,18,14,

31,20,13,24,18,14,

31,20,14,24,18,14,

31,20,14,24,17,14,

31,19,14,24,17,14,

31,20,14,24,17,14,

31,20,14,24,17,13,

31,19,14,24,18,14,

31,19,14,24,17,14,

31,20,14,24,17,14,

31,20,13,24,17,14,

31,19,14,23,18,14,

30,20,14,24,18,14,

31,19,14,23,17,14,

30,19,14,24,18,14,

30,20,14,23,17,13,

30,19,14,23,17,13,

30,20,14,24,17,14,

30,19,14,23,17,13,

30,19,14,24,17,14,

29,19,14,23,17,14,

30,18,14,23,17,14,

29,19,14,24,17,13,

29,19,14,23,17,14,

29,19,14,24,18,14,

29,19,14,23,17,14,

28,19,14,23,17,13,

29,18,14,23,17,14,

28,19,13,23,16,14,

29,18,14,23,17,14,

28,19,14,23,16,14,

29,19,13,23,17,14,

28,19,14,23,16,14,

29,19,14,23,17,14,

28,19,14,23,18,14,

29,19,14,23,17,14,

28,18,14,22,17,14,

28,18,14,23,17,14,

28,18,13,23,17,14,

28,19,14,22,17,14,

28,18,14,22,16,14,

28,17,13,23,17,14,

28,19,14,22,16,14,

27,18,14,22,16,14,

27,18,14,22,18,14,

27,18,14,22,17,14,

27,18,14,22,16,14,

27,18,14,22,16,14,

27,18,14,22,17,14,

27,18,14,21,17,14,

27,18,14,23,17,14,

27,18,14,24,17,14,

27,18,14,25,16,14,

27,18,13,25,16,14,

27,18,14,25,17,14,

27,18,14,25,17,14,

26,18,14,25,17,14,

26,18,14,25,15,14,

26,18,14,24,16,14,

26,18,14,25,17,14,

27,18,13,25,17,14,

26,17,14,24,15,14,

27,18,14,25,16,14,

27,17,14,24,16,14,

27,17,14,25,17,14,

26,17,14,24,16,14,

27,17,14,24,17,14,

27,18,14,25,16,14,

27,17,13,24,15,13,

26,17,14,24,16,14,

26,17,14,24,16,14,

26,17,14,24,15,14,

27,17,14,24,15,14,

26,17,13,24,15,14,

29,17,14,24,16,14,

29,17,14,24,16,14,

29,17,14,24,16,14,

29,17,14,24,15,14,

29,17,14,24,16,13,

28,17,14,24,16,14,

29,17,14,24,15,14,

29,17,14,24,16,14,

28,17,14,24,16,13,

28,16,14,24,16,13,

28,16,14,24,15,14,

27,17,14,23,15,14,

28,17,14,24,16,14,

28,17,14,29,15,14,

28,17,14,29,15,14,

27,16,14,29,15,14,

27,16,14,28,16,13,

28,17,14,29,16,14,

27,16,13,28,15,14,

27,16,14,28,15,14,

27,16,14,29,15,14,

28,17,14,31,16,14,

27,17,14,31,15,14,

26,16,14,31,15,14,

27,16,14,31,15,14,

26,16,14,30,15,14,

26,16,14,30,15,14,

26,17,14,30,15,14,

26,17,14,29,15,13,

26,15,14,30,15,13,

26,16,14,30,16,14,

26,16,14,30,15,14,

26,16,14,29,15,14,

26,16,14,29,16,13,

25,16,14,29,15,14,

25,17,14,29,15,14,

25,17,14,29,15,13,

25,15,14,29,15,14,

25,15,14,29,15,14,

25,16,14,29,15,14,

25,15,14,29,14,14,

25,16,14,29,15,14,

25,15,14,28,15,14,

25,16,14,29,15,14,

24,17,14,28,16,14,

25,16,14,28,15,13,

25,15,14,28,15,14,

25,16,13,28,16,14,

25,15,13,28,15,14,

25,16,14,28,16,14,

24,15,14,28,15,14,

24,15,14,27,15,14,

24,15,14,28,15,14,

24,15,14,27,15,14,

24,16,14,27,15,14,

24,15,14,27,16,14,

24,16,14,27,16,14,

24,15,14,27,16,14,

24,16,13,27,16,14,

24,15,14,26,16,14,

24,16,14,27,15,14,

24,15,14,27,16,14,

24,16,14,26,15,14,

23,15,14,27,15,14,

24,15,13,27,15,14,

23,15,14,27,15,14,

24,15,14,26,16,14,

23,15,14,26,16,14,

23,15,14,26,15,14,

23,15,14,26,16,14,

24,15,14,25,16,13,

24,15,14,25,15,13,

23,15,14,25,15,13,

24,15,14,26,15,15,

24,16,14,29,15,13,

24,15,14,29,15,13,

23,16,14,29,15,14,

23,15,14,28,15,14,

24,16,14,28,15,14,

24,16,14,28,15,14,

23,15,13,29,16,14,

23,15,14,28,15,14,

23,15,14,28,15,14,

24,16,15,63,16,14,

24,15,14,63,15,14,

23,16,14,62,15,13,

23,15,14,63,15,14,

23,15,14,62,16,13,

24,15,14,62,15,14,

23,15,14,62,15,14,

22,15,14,61,15,14,

23,15,14,61,15,14,

22,15,14,60,15,13,

23,16,14,60,15,14,

22,15,14,60,15,14,

22,15,14,60,16,14,

23,16,14,60,15,14,

22,15,14,59,15,14,

22,15,14,59,15,13,

22,16,14,59,15,15,

22,15,14,58,15,14,

22,15,14,58,15,14,

22,15,14,58,15,13,

22,15,14,57,16,13,

24,15,14,57,15,14,

35,15,14,57,16,13,

36,15,14,57,15,14,

37,15,14,57,15,14,

37,14,14,57,15,14,

37,15,14,56,15,14,

37,16,14,56,15,14,

36,15,14,56,15,14,

35,16,14,56,15,14,

36,16,14,56,15,14,

35,15,14,56,15,14,

35,15,14,55,16,14,

36,15,14,56,15,14,

44,15,14,54,15,14,

44,15,13,54,16,14,

44,16,14,55,16,14,

44,15,14,55,15,14,

44,15,14,55,15,14,

42,15,14,54,16,14,

42,16,14,54,16,14,

42,15,14,54,15,14,

43,15,14,53,16,14,

43,15,14,54,16,14,

42,15,14,54,17,14,

42,15,14,53,16,14,

41,15,14,53,16,14,

41,15,14,53,15,14,

41,16,14,52,15,15,

41,15,14,52,15,14,

39,17,14,51,16,14,

41,17,14,51,16,14,

41,17,14,51,17,14,

39,17,14,52,16,14,

39,18,14,51,16,14,

39,17,14,51,16,14,

39,18,14,51,17,14,

39,17,14,50,17,14,

39,17,14,51,16,14,

39,17,14,51,16,14,

39,17,14,50,16,14,

39,17,14,50,15,14,

39,17,14,50,16,14,

39,17,14,49,17,14,

39,18,14,50,16,14,

39,17,14,49,16,14,

38,18,14,49,17,14,

38,17,14,49,16,14,

39,18,14,65,16,14,

38,18,14,65,15,14,

38,17,14,64,17,13,

37,17,14,64,16,14,

37,17,14,63,15,14,

38,18,14,63,15,14,

37,17,14,63,15,14,

37,18,14,63,15,14,

37,18,14,63,17,14,

37,17,14,62,15,14,

37,18,14,63,17,14,

36,18,13,62,16,14,

36,17,14,62,17,14,

37,17,14,61,17,14,

36,17,14,61,16,14,

35,17,14,61,16,14,

35,17,14,61,16,14,

36,17,14,61,16,14,

35,17,14,60,17,14,

35,17,14,60,17,13,

35,17,14,59,17,14,

35,17,14,60,17,14,

35,17,13,60,17,13,

35,17,14,59,17,14,

34,17,14,59,17,14,

35,17,13,58,17,14,

35,17,14,57,17,14,

34,16,14,58,17,14,

34,18,14,57,17,14,

34,17,14,57,17,14,

34,17,14,57,17,14,

34,18,14,57,17,14,

33,17,14,57,17,14,

33,17,14,56,17,14,

34,17,14,56,17,14,

33,17,14,56,17,14,

33,17,13,55,17,14,

34,17,13,56,17,14,

33,17,14,56,18,14,

33,16,14,55,17,14,

33,17,14,55,17,14,

33,17,14,55,17,14,

32,17,13,54,18,14,

32,17,14,54,17,14,

32,17,14,54,18,14,

32,17,14,54,18,14,

31,17,14,53,18,14,

32,17,14,53,17,14,

32,17,13,53,17,14,

31,16,13,53,17,14,

31,17,14,52,18,14,

31,17,14,52,17,14,

31,17,14,53,17,14,

31,17,14,52,17,14,

31,17,14,51,18,13,

31,17,14,51,17,14,

31,17,14,51,17,14,

31,16,14,51,18,14,

31,16,13,50,18,14,

31,17,14,51,18,14,

30,17,14,50,18,14,

30,17,14,50,18,14,

31,16,14,50,19,14,

30,17,14,50,18,14,

30,17,14,50,18,15,

30,17,14,50,18,14,

30,17,14,49,18,14,

30,16,14,49,18,14,

30,17,14,49,18,14,

30,17,14,48,18,14,

29,17,14,49,18,14,

29,16,14,48,18,13,

29,16,14,48,18,14,

29,16,13,48,18,14,

29,16,14,48,18,14,

29,16,13,47,18,14,

29,17,14,48,18,14,

28,17,14,48,18,14,

29,16,14,47,18,13,

28,17,14,47,18,14,

29,17,15,46,17,14,

29,16,14,46,18,14,

28,16,13,46,18,14,

31,17,15,47,19,14,

79,17,14,46,18,14,

78,17,14,46,18,14,

78,17,14,46,17,14,

78,17,14,46,18,13,

77,17,14,45,18,14,

77,17,14,45,18,14,

76,17,14,45,17,14,

76,16,14,45,17,15,

76,17,14,45,17,14,

76,17,14,44,18,14,

75,17,14,45,18,14,

75,17,13,44,17,14,

75,16,14,44,17,14,

74,17,14,44,18,14,

73,17,15,44,17,14,

73,16,14,43,17,14,

73,17,14,44,17,14,

71,17,14,43,17,14,

72,17,14,43,17,14,

71,16,15,43,17,14,

71,17,14,42,18,14,

71,17,14,42,17,14,

71,17,14,42,17,14,

70,16,14,43,17,14,

70,16,14,42,17,14,

71,17,14,41,17,14,

70,17,13,42,17,13,

69,17,14,41,17,14,

70,17,14,41,27,14,

68,17,14,41,28,14,

68,18,14,40,28,14,

68,18,14,41,28,14,

68,17,14,41,28,14,

69,17,14,40,28,14,

67,18,14,40,28,14,

67,17,14,39,28,14,

67,17,14,39,28,14,

67,17,14,39,27,14,

66,17,14,39,28,14,

67,17,14,39,27,14,

66,17,14,39,27,14,

65,17,14,39,27,14,

65,17,14,39,27,15,

65,17,14,39,27,14,

65,17,14,39,27,14,

64,17,15,39,27,14,

63,17,15,39,27,14,

64,17,14,39,27,14,

64,17,15,67,26,15,

63,17,14,71,27,14,

63,17,14,73,26,14,

62,16,14,71,26,14,

63,17,14,71,26,14,

62,17,14,71,25,15,

63,19,14,71,25,14,

62,19,14,70,25,14,

62,19,14,70,26,14,

61,19,14,70,26,14,

61,19,14,70,25,14,

61,18,14,69,25,14,

61,19,15,69,25,14,

61,19,14,68,25,14,

60,19,14,68,25,14,

60,20,14,68,25,14,

60,21,14,68,25,14,

60,41,15,67,25,14,

59,39,15,67,27,15,

60,41,14,67,29,14,

59,39,14,66,29,15,

58,40,15,66,29,14,

58,39,14,66,29,15,

58,39,14,66,29,14,

58,39,14,65,29,14,

57,39,14,66,29,15,

58,71,14,64,29,14,

57,71,15,64,29,14,

56,71,14,64,29,14,

57,71,14,64,29,15,

56,70,14,64,29,14,

56,71,15,63,28,14,

57,70,14,63,28,14,

56,70,14,63,28,14,

56,69,14,63,28,14,

56,68,14,63,28,14,

55,68,14,62,28,14,

55,68,14,62,28,14,

56,68,14,62,28,14,

55,67,15,61,27,15,

55,67,14,61,28,14,

54,67,14,61,27,15,

54,66,14,61,27,14,

54,66,15,60,27,14,

53,65,15,60,27,15,

53,65,14,60,27,14,

53,65,14,60,26,14,

53,65,15,59,27,14,

53,64,15,59,27,14,

52,65,14,59,26,14,

53,64,14,59,27,15,

52,63,14,58,27,14,

51,63,14,58,26,14,

51,63,15,59,26,14,

51,63,15,58,26,14,

51,63,14,58,27,14,

50,62,15,57,26,15,

51,63,14,57,26,15,

50,62,14,57,26,14,

50,62,15,57,25,15,

50,61,15,56,26,15,

50,61,14,57,25,15,

50,60,15,56,26,15,

50,61,15,56,25,14,

49,60,15,56,25,14,

49,60,14,56,26,14,

49,60,14,56,25,15,

48,60,15,56,25,14,

48,60,15,55,25,15,

49,59,14,55,25,14,

48,59,14,55,25,14,

47,58,14,54,25,15,

48,58,14,54,24,14,

48,58,14,53,25,14,

48,58,14,54,24,14,

47,58,15,53,25,15,

47,57,14,53,25,15,

47,57,14,53,24,15,

47,57,14,53,24,14,

47,56,15,53,24,15,

46,56,15,52,24,14,

46,56,14,51,24,14,

46,56,14,51,24,14,

46,56,14,51,24,14,

46,55,14,51,24,15,

46,55,14,51,24,15,

45,56,14,50,26,14,

45,55,14,51,25,15,

44,55,14,51,25,14,

45,54,14,51,25,15,

45,54,14,50,25,15,

45,54,14,50,25,14,

45,54,15,50,25,15,

44,54,14,50,25,14,

46,53,14,50,25,15,

45,54,14,49,26,14,

45,52,14,49,24,15,

45,53,14,49,24,14,

44,52,15,49,25,15,

44,53,15,49,25,14,

45,52,14,47,24,14,

44,51,14,48,24,14,

43,51,14,48,24,15,

44,51,14,47,24,15,

43,51,14,47,24,14,

43,51,14,48,24,14,

43,51,14,47,24,14,

43,51,15,47,25,15,

43,51,14,46,24,14,

43,52,14,46,24,14,

42,51,15,46,23,13,

42,51,14,46,24,14,

43,50,15,46,24,14,

42,51,14,46,23,14,

41,50,14,45,23,15,

41,50,14,46,24,14,

41,50,14,46,24,14,

41,50,14,45,23,15,

42,50,14,45,24,15,

41,50,14,44,23,14,

42,50,14,45,23,14,

42,49,14,44,23,14,

41,48,15,44,23,14,

41,48,14,44,23,14,

41,48,14,44,24,14,

41,51,15,44,23,15,

45,143,15,45,24,15,

75,165,15,44,22,14,

75,163,15,43,22,14,

74,162,14,43,23,14,

73,161,14,43,22,14,

73,160,14,43,22,14,

71,159,14,42,22,14,

72,158,15,43,22,14,

72,158,15,42,22,14,

71,157,14,43,22,14,

71,156,14,42,22,14,

71,155,14,42,22,14,

71,155,14,42,22,14,

71,153,15,42,22,14,

70,153,15,41,22,14,

70,152,15,42,22,14,

70,152,14,42,21,14,

69,151,14,42,22,15,

69,150,15,42,21,14,

68,149,14,41,21,14,

67,148,15,41,21,14,

68,147,14,41,20,14,

67,147,14,41,21,14,

67,146,15,41,22,15,

67,145,14,41,22,15,

94,145,15,39,21,15,

93,144,14,39,21,15,

92,143,14,39,21,15,

92,143,14,40,20,14,

92,142,14,40,21,14,

91,141,14,39,20,14,

91,140,15,39,21,15,

90,140,15,39,21,15,

90,140,14,39,20,14,

89,139,14,39,21,14,

89,138,14,39,20,15,

88,138,14,39,20,14,

88,137,14,39,20,14,

88,135,14,39,20,15,

88,135,14,39,20,14,

88,135,14,38,19,14,

86,135,14,38,20,14,

86,134,14,38,20,15,

85,133,14,38,20,14,

85,132,14,37,20,14,

85,132,15,38,21,15,

157,133,15,38,21,15,

188,131,15,37,19,14,

185,130,15,37,19,14,

184,130,14,37,20,14,

184,129,15,36,20,15,

182,128,14,36,19,14,

181,127,14,36,19,15,

180,127,14,36,20,14,

179,127,14,36,19,14,

178,126,14,36,19,14,

177,125,15,35,19,14,

176,124,14,35,19,15,

175,125,14,36,19,15,

174,124,15,35,19,15,

173,123,14,35,19,14,

173,123,14,35,19,14,

172,122,14,35,19,14,

171,121,15,35,19,14,

170,121,14,35,20,15,

167,120,14,35,19,14,

167,120,14,35,20,15,

167,119,14,34,19,15,

166,119,15,34,20,14,

166,118,15,34,20,15,

165,117,15,34,19,15,

165,118,14,34,19,14,

163,117,14,34,19,14,

162,116,15,34,19,14,

162,115,15,33,19,14,

161,115,14,33,19,14,

159,114,14,33,19,15,

159,115,15,35,21,15,

192,157,15,34,19,15,

192,156,15,34,20,15,

191,155,15,34,19,15,

190,153,15,33,19,15,

189,153,15,33,19,15,

187,153,15,33,21,15,

188,152,15,33,21,15,

185,152,15,33,24,15,

185,150,15,33,25,15,

184,150,16,33,25,15,

184,149,15,32,25,15,

182,147,15,31,24,16,

181,147,15,32,24,15,

180,147,16,31,24,15,

179,145,15,32,24,15,

178,145,16,31,25,16,

177,143,15,61,24,16,

177,143,15,61,24,15,

176,143,16,61,25,17,

174,142,17,60,27,17,

174,142,17,60,26,17,

173,140,17,60,25,16,

173,141,17,60,25,17,

172,140,17,59,26,17,

171,139,18,59,26,17,

170,137,18,58,25,17,

168,137,17,58,25,17,

167,135,17,58,25,17,

167,136,18,58,25,17,

166,135,18,57,25,17,

166,135,18,57,25,18,

165,134,18,57,28,17,

164,133,18,56,39,18,

163,132,18,57,38,17,

162,132,18,56,38,18,

162,131,18,56,39,18,

161,131,19,56,39,18,

159,130,18,56,38,19,

159,130,19,55,68,19,

159,129,18,55,66,18,

158,128,19,54,66,18,

157,127,18,54,65,18,

156,127,18,54,65,19,

156,127,19,55,65,19,

155,126,19,54,65,18,

155,125,18,55,64,18,

154,125,19,54,63,19,

153,125,18,54,63,19,

153,124,19,53,63,19,

152,123,19,54,63,19,

151,123,19,53,63,18,

150,122,18,52,62,19,

150,122,19,53,62,19,

149,121,19,52,62,19,

148,121,19,52,61,19,

147,120,18,52,61,18,

147,119,19,51,61,19,

146,119,19,52,60,19,

145,118,19,51,60,19,

144,118,19,51,60,18,

143,116,18,50,60,18,

143,115,18,50,59,18,

142,115,18,50,59,18,

141,115,18,50,59,18,

141,115,18,49,58,18,

187,114,19,49,58,18,

185,114,19,49,58,18,

184,114,18,49,57,18,

183,114,18,49,57,18,

182,113,18,48,57,18,

180,113,17,48,57,17,

179,112,18,48,56,17,

179,112,18,47,56,17,

178,112,18,47,56,17,

177,111,17,47,56,17,

176,110,18,47,56,17,

175,110,18,48,56,18,

174,110,17,46,56,17,

174,109,17,47,54,17,

173,109,18,47,56,18,

172,125,17,47,55,17,

171,125,17,46,54,17,

170,124,17,46,53,17,

169,124,18,46,94,17,

167,123,17,45,93,17,

167,123,17,45,93,17,

167,122,17,45,92,17,

166,121,17,45,92,17,

165,120,17,44,91,17,

164,120,17,44,90,17,

163,120,17,44,93,17,

163,120,17,44,92,16,

162,118,17,44,91,17,

161,118,17,44,91,17,

160,118,17,44,90,17,

159,117,16,43,89,17,

159,115,17,43,89,16,

158,115,18,56,89,17,

157,115,17,70,88,16,

156,114,17,69,88,16,

155,114,16,69,87,16,

155,113,16,68,88,16,

154,113,16,68,87,16,

154,112,17,69,88,17,

153,112,17,67,86,16,

152,112,16,67,86,17,

152,111,16,67,85,17,

152,110,17,67,94,16,

150,109,16,66,93,17,

149,109,16,67,92,16,

148,108,17,66,93,16,

147,108,16,67,92,17,

147,108,17,66,92,16,

147,107,16,65,91,16,

146,107,16,65,91,17,

145,106,16,65,91,16,

144,105,15,65,90,16,

144,105,17,64,90,16,

143,105,15,64,89,15,

142,103,17,63,89,15,

142,103,15,63,88,16,

142,103,16,63,88,17,

140,103,15,63,88,16,

140,103,16,63,87,16,

140,102,16,62,87,16,

139,102,16,62,87,16,

138,101,15,63,91,16,

137,101,16,61,131,16,

145,101,16,62,131,16,

195,100,15,60,129,15,

192,99,15,61,128,16,

192,99,16,60,127,16,

191,99,16,60,127,15,

189,98,16,60,126,16,

188,97,16,60,125,16,

188,96,17,59,125,15,

187,97,16,59,124,16,

185,96,16,59,123,16,

184,96,15,58,123,16,

184,96,15,58,121,15,

183,95,16,57,121,16,

182,94,15,57,121,15,

181,95,15,57,120,16,

180,93,15,57,120,15,

179,94,15,57,120,16,

178,93,15,56,119,15,

177,93,16,57,119,16,

177,92,15,56,118,15,

175,92,15,56,117,16,

174,92,16,56,117,15,

174,91,15,56,116,15,

173,92,15,55,115,15,

172,91,15,56,115,16,

172,90,15,55,114,15,

171,89,15,54,113,15,

169,89,15,55,113,15,

169,89,15,54,113,15,

167,89,15,54,112,15,

167,88,15,53,112,15,

166,88,15,53,112,15,

166,87,16,54,110,15,

165,87,16,52,110,16,

165,86,15,53,110,15,

163,87,16,52,110,15,

162,86,15,51,109,15,

162,85,15,52,108,15,

161,85,15,52,107,15,

160,85,16,51,113,15,

159,84,15,51,112,16,

158,84,15,51,111,15,

158,84,15,51,112,15,

157,83,15,51,111,15,

157,83,15,51,110,15,

156,83,15,51,109,15,

155,82,15,50,109,15,

154,82,16,50,109,15,

153,82,15,50,108,15,

152,81,15,50,108,15,

152,80,15,50,107,16,

152,81,15,49,107,15,

151,80,15,49,105,15,

151,80,15,50,107,17,

188,164,15,49,103,15,

186,162,15,48,103,15,

185,160,15,48,103,15,

184,159,15,48,103,15,

184,159,15,48,103,15,

182,157,15,47,102,15,

181,156,15,47,102,15,

180,156,15,47,164,15,

179,155,15,48,162,15,

178,154,14,47,161,15,

177,153,15,47,160,15,

176,152,15,46,159,15,

175,152,15,46,159,15,

174,151,15,46,158,15,

173,150,15,46,157,15,

172,149,15,46,156,15,

172,149,15,46,155,15,

171,147,15,45,154,14,

169,147,15,44,153,15,

167,146,15,45,153,14,

167,145,14,45,152,15,

167,144,15,45,152,15,

166,143,15,44,151,14,

165,143,15,44,149,15,

164,142,15,44,148,15,

163,142,15,44,147,15,

163,141,15,44,147,15,

162,140,15,44,146,15,

161,139,15,44,145,14,

161,139,14,43,145,15,

159,139,15,44,145,15,

159,137,15,43,144,15,

158,135,14,43,143,14,

157,135,15,43,142,15,

156,135,14,43,141,15,

156,135,15,42,140,15,

155,134,15,42,140,15,

154,133,15,41,139,14,

153,132,15,42,139,15,

152,131,15,41,137,15,

152,131,15,41,137,15,

152,131,14,41,135,15,

151,130,15,41,135,15,

150,129,15,41,135,15,

148,129,14,39,135,14,

147,128,14,39,134,15,

147,127,14,40,133,15,

146,127,14,39,132,15,

146,126,15,41,132,15,

145,125,15,39,131,15,

159,125,15,40,131,15,

160,125,15,39,130,15,

159,124,15,39,129,14,

159,123,14,39,129,14,

158,123,14,39,129,15,

157,122,15,39,127,14,

156,121,15,39,127,14,

156,121,15,38,126,14,

154,121,15,39,126,14,

154,120,15,39,125,15,

152,127,15,38,125,14,

152,126,15,38,124,14,

151,126,14,38,124,14,

150,125,15,38,123,14,

150,124,14,37,122,14,

149,123,15,37,121,14,

148,122,14,37,121,15,

147,123,14,38,120,14,

147,121,15,36,120,14,

146,121,15,36,119,15,

145,121,14,37,118,15,

145,120,15,37,118,14,

143,119,15,36,118,14,

143,119,15,36,117,14,

142,119,15,36,116,15,

142,117,15,36,116,15,

141,117,15,36,115,14,

140,116,14,35,115,15,

140,158,14,35,115,14,

139,156,14,35,114,14,

139,155,14,35,113,14,

138,154,15,35,113,14,

137,153,15,35,113,15,

137,199,14,35,112,14,

135,197,14,35,111,14,

135,195,15,34,111,14,

135,194,14,34,110,15,

134,192,14,34,110,14,

133,192,15,34,109,15,

133,190,14,34,109,14,

131,190,14,34,108,15,

131,189,14,34,108,15,

131,188,14,36,108,15,

130,186,15,36,107,14,

129,185,14,37,107,14,

129,184,15,39,105,14,

127,184,14,40,105,15,

127,184,14,39,104,15,

127,182,14,39,104,15,

127,180,14,39,104,14,

126,179,14,39,103,15,

126,179,15,42,103,14,

125,178,14,51,103,14,

124,177,14,51,103,14,

123,176,14,51,102,14,

124,174,14,50,101,14,

122,174,15,50,101,15,

122,173,15,50,100,14,

121,172,14,50,99,14,

121,171,15,50,99,15,

120,171,15,49,99,15,

120,169,14,49,99,14,

120,169,14,49,98,15,

119,168,14,49,98,14,

119,167,15,48,97,14,

118,166,14,48,97,14,

118,166,15,48,96,15,

118,166,14,49,96,15,

117,164,15,48,97,15,

116,164,16,48,96,15,

117,163,15,48,96,15,

116,190,14,47,96,15,

115,189,15,47,95,15,

115,188,15,48,96,15,

136,186,14,46,94,15,

135,185,15,47,94,15,

135,184,14,47,94,15,

134,183,15,46,93,15,

134,183,15,46,93,15,

133,181,15,56,92,15,

132,181,15,57,92,15,

131,179,15,56,92,15,

131,179,15,56,95,15,

131,178,15,56,94,15,

166,178,16,56,94,15,

242,177,16,56,93,16,

239,176,15,55,92,15,

238,175,15,55,92,15,

236,174,16,55,92,15,

235,173,16,55,92,16,

233,172,15,59,91,15,

231,171,16,59,91,15,

231,170,15,59,90,16,

229,169,15,58,90,16,

229,169,16,75,90,15,

227,167,15,75,89,15,

226,167,16,74,89,15,

224,166,16,73,88,15,

222,165,15,71,88,15,

221,172,16,71,87,15,

220,172,16,71,88,16,

219,170,15,71,86,15,

218,169,15,71,86,15,

217,168,15,70,86,15,

216,167,15,70,85,15,

216,167,17,71,123,15,

214,166,16,69,124,15,

213,165,15,68,123,15,

216,163,16,69,122,15,

214,163,15,68,122,15,

214,163,15,67,121,15,

213,162,15,67,121,15,

211,161,15,67,120,15,

210,184,15,67,120,15,

209,183,15,67,119,15,

208,181,14,66,118,16,

207,179,15,66,117,15,

206,179,15,66,117,16,

211,179,15,65,115,14,

210,177,15,65,115,15,

209,176,15,65,115,15,

207,175,16,64,115,15,

206,174,15,64,114,15,

205,174,15,63,113,15,

205,173,15,63,112,15,

203,172,15,64,112,16,

202,171,15,73,112,16,

203,171,16,71,112,15,

201,169,15,71,112,15,

199,167,16,71,110,15,

199,167,16,71,110,16,

198,167,16,71,109,15,

197,167,16,71,109,15,

195,165,15,70,109,16,

195,174,16,70,108,16,

194,177,16,69,107,15,

193,176,16,69,107,16,

192,175,16,69,106,16,

191,174,15,68,106,15,

190,174,16,69,105,16,

189,172,16,67,105,15,

188,172,15,67,105,16,

187,171,16,68,105,16,

187,169,16,67,103,15,

185,169,15,67,103,15,

185,167,15,67,103,15,

184,167,16,66,102,15,

183,166,16,66,103,15,

182,165,15,65,102,16,

181,164,16,65,101,15,

181,163,16,65,101,15,

179,162,16,64,100,16,

178,161,15,64,99,15,

177,161,15,63,99,15,

177,160,16,64,103,16,

176,159,16,63,103,15,

175,159,17,63,102,16,

174,158,16,63,102,15,

174,157,15,62,101,15,

173,156,16,62,101,15,

173,166,17,62,103,16,

171,175,16,61,103,16,

171,174,15,61,102,16,

169,173,15,61,102,16,

169,178,16,61,102,16,

167,177,16,61,101,16,

167,176,16,60,100,15,

166,175,16,60,100,16,

167,174,16,60,99,16,

167,173,15,60,99,15,

167,172,16,60,99,15,

166,171,15,59,98,15,

165,170,15,59,98,16,

166,171,17,60,169,16,

164,169,16,58,167,15,

163,167,15,59,166,16,

163,167,16,57,164,16,

161,166,16,57,164,15,

161,165,16,57,162,16,

159,165,15,57,162,15,

159,163,16,56,161,15,

159,163,16,57,161,16,

158,162,15,56,159,16,

157,161,16,56,158,16,

156,161,17,56,158,16,

156,159,16,55,156,16,

154,158,15,55,155,16,

153,157,15,55,155,15,

152,156,15,54,154,15,

152,156,16,54,153,15,

152,155,15,71,153,15,

151,154,16,70,151,15,

150,153,15,70,151,15,

149,152,15,69,150,15,

149,152,14,69,149,15,

148,152,15,68,148,15,

147,150,15,69,147,15,

147,150,15,67,146,15,

145,149,15,67,146,15,

145,148,15,67,145,15,

145,148,15,67,145,15,

144,146,16,67,143,15,

143,146,16,67,143,14,

143,146,15,66,143,15,

142,144,15,66,142,16,

142,144,15,65,141,15,

141,143,15,65,141,16,

140,142,15,65,140,14,

140,142,15,64,139,15,

138,141,15,64,138,15,

138,141,15,63,137,15,

137,140,15,63,137,15,

135,139,15,63,136,15,

135,138,15,62,135,15,

135,138,15,63,135,15,

135,138,15,62,134,15,

135,136,16,62,165,15,

134,135,15,63,178,16,

142,189,15,61,176,15,

141,187,16,62,176,15,

140,185,15,70,174,15,

140,184,15,70,173,16,

139,184,15,70,172,15,

139,183,15,70,172,15,

137,181,15,69,170,15,

137,180,14,69,169,15,

135,179,14,67,167,15,

135,178,15,68,167,15,

135,177,15,67,167,15,

134,177,15,67,165,15,

134,176,15,67,165,15,

133,175,15,67,164,14,

132,174,14,66,163,15,

131,173,15,66,162,15,

131,172,14,65,162,15,

131,172,15,65,160,15,

130,170,15,64,160,15,

129,169,15,65,159,15,

128,168,15,64,158,15,

128,167,15,63,157,14,

127,167,15,63,156,15,

127,166,15,64,156,15,

127,165,15,63,155,15,

126,164,15,63,154,15,

125,163,15,63,153,15,

125,163,15,63,153,15,

124,161,15,63,152,15,

124,161,15,63,152,15,

124,159,15,62,150,14,

123,159,14,62,150,15,

131,158,15,62,150,14,

134,158,15,61,147,15,

134,157,15,61,147,15,

133,156,15,61,147,15,

133,155,14,60,146,15,

132,155,15,60,146,15,

131,154,14,60,150,15,

131,153,15,60,150,14,

130,156,14,59,149,15,

130,155,15,59,148,15,

128,155,14,58,147,15,

128,153,14,58,147,15,

127,152,14,58,145,15,

127,152,14,57,145,15,

125,152,14,58,143,14,

126,150,14,57,143,14,

124,150,15,57,143,15,

124,149,14,57,142,15,

123,148,15,57,142,15,

123,147,15,57,141,14,

122,147,15,57,140,15,

122,146,15,56,139,15,

121,147,14,57,139,15,

121,145,15,56,138,14,

120,144,14,56,138,14,

119,143,15,56,135,15,

119,143,14,56,159,15,

118,142,14,55,159,14,

118,142,14,56,158,14,

118,141,14,56,157,14,

117,141,14,55,156,14,

117,141,15,83,155,14,

116,139,15,83,155,15,

115,139,15,82,154,14,

115,137,15,81,153,14,

114,137,14,81,153,15,

114,135,15,80,152,14,

113,136,14,79,151,15,

113,135,15,80,151,16,

203,135,15,79,149,15,

201,134,14,79,148,14,

199,134,15,79,147,14,

199,132,14,79,147,15,

198,132,15,78,146,15,

197,131,14,77,145,14,

195,131,14,77,145,14,

194,138,14,76,143,14,

193,137,14,76,143,15,

192,136,15,76,143,15,

192,135,14,76,142,14,

190,135,15,75,141,14,

188,135,15,75,141,15,

188,134,15,74,140,15,

187,133,15,75,139,14,

185,133,15,73,139,15,

185,131,14,73,139,15,

185,169,15,73,138,14,

184,199,14,73,136,15,

182,197,15,72,135,15,

181,195,15,71,135,15,

179,194,15,71,135,15,

179,192,15,71,134,15,

178,192,14,71,133,14,

177,191,15,70,133,14,

177,190,15,70,132,14,

176,189,14,70,131,14,

175,188,14,70,131,15,

174,187,15,69,130,14,

173,186,15,69,130,14,

172,185,14,69,129,14,

172,184,15,68,128,15,

170,183,14,68,127,14,

169,182,14,67,127,14,

169,181,14,67,126,14,

167,180,15,67,126,15,

167,179,14,67,126,15,

166,178,14,67,125,14,

165,177,15,66,124,14,

165,176,14,66,124,15,

163,175,14,66,123,15,

163,175,14,66,122,15,

163,173,14,65,122,15,

161,173,15,65,121,15,

161,172,14,65,121,14,

159,171,15,64,121,15,

159,171,15,65,121,15,

159,169,15,64,120,16,

158,168,16,64,120,15,

158,167,15,65,120,16,

201,167,15,63,121,16,

200,167,15,63,184,15,

199,166,15,63,182,15,

197,165,15,63,180,15,

195,164,15,62,179,15,

195,163,15,62,178,15,

193,162,15,61,177,14,

193,161,14,61,176,15,

192,161,15,62,175,15,

191,159,15,61,174,15,

190,159,15,61,174,15,

189,159,15,61,173,15,

188,158,15,61,172,15,

187,157,15,61,171,15,

186,156,15,60,169,15,

185,155,15,60,169,15,

184,154,15,59,167,15,

183,153,15,60,167,15,

182,153,15,59,166,15,

181,152,15,59,165,16,

180,152,15,60,165,15,

179,150,15,58,163,15,

178,150,15,58,163,15,

177,149,15,58,162,16,

177,149,16,58,162,16,

176,147,15,57,160,15,

175,147,14,56,159,14,

173,145,14,57,159,14,

173,145,15,56,157,14,

171,143,15,56,157,14,

171,144,14,55,156,15,

170,143,14,56,155,14,

169,142,15,56,154,14,

167,142,14,55,153,15,

167,141,15,55,153,14,

167,140,14,54,153,14,

166,140,14,54,151,14,

165,139,15,53,150,14,

164,139,14,54,150,15,

163,138,14,53,149,14,

163,137,15,53,148,14,

161,135,15,87,149,15,

160,135,15,99,147,14,

159,135,14,100,146,15,

159,135,15,99,145,15,

159,133,15,98,145,15,

158,159,15,98,144,14,

157,158,15,96,143,14,

156,156,14,97,143,15,

155,156,14,96,142,14,

155,155,14,96,141,15,

154,154,14,95,141,14,

153,153,14,95,140,14,

152,152,14,94,140,14,

152,152,14,94,139,15,

151,151,14,93,137,15,

151,150,14,93,137,14,

149,149,14,92,135,14,

149,149,14,92,135,14,

149,147,14,91,135,15,

147,147,14,91,135,14,

147,147,14,91,134,15,

146,145,14,89,134,15,

145,144,15,89,132,14,

152,149,16,91,133,15,

211,198,14,89,132,14,

209,197,14,88,131,14,

207,195,15,88,131,14,

207,195,15,88,130,15,

206,205,16,88,129,15,

204,242,15,87,128,14,

203,240,14,86,127,15,

202,239,15,86,127,14,

201,237,14,85,127,14,

199,235,14,85,126,15,

199,234,14,84,125,14,

198,231,14,83,125,14,

197,231,14,83,125,14,

195,231,15,83,124,14,

195,229,15,83,124,15,

193,228,14,82,123,14,

193,227,14,82,122,14,

192,225,14,82,122,14,

191,224,15,81,121,15,

190,223,14,81,121,14,

188,222,14,81,120,14,

187,220,15,80,120,14,

187,219,15,79,119,14,

185,218,14,80,119,15,

185,216,15,79,118,14,

184,216,14,79,117,14,

184,215,15,79,117,14,

182,214,15,78,117,14,

181,212,14,77,115,15,

180,211,15,77,115,15,

179,210,14,77,115,15,

178,209,14,77,114,14,

177,207,15,77,113,14,

176,206,14,76,114,14,

176,206,14,75,113,14,

174,205,15,76,112,15,

174,204,15,75,112,15,

173,203,15,75,112,15,

172,201,15,75,111,14,

171,200,15,74,110,14,

170,199,14,74,110,15,

169,199,15,73,110,15,

167,198,14,73,109,14,

167,197,14,73,109,14,

167,196,14,71,108,15,

166,194,15,71,107,15,

165,194,14,71,107,15,

164,210,15,71,107,14,

164,209,14,71,106,15,

163,207,14,71,105,14,

162,207,15,71,107,15,

163,207,15,71,106,15,

162,205,15,71,105,16,

161,204,16,71,105,16,

161,203,15,71,106,16,

159,203,15,71,103,15,

159,201,15,70,103,15,

158,201,16,70,103,16,

157,199,16,69,103,15,

157,199,15,69,102,15,

156,197,16,68,102,15,

155,196,16,69,102,16,

155,195,16,68,101,15,

154,195,17,67,101,16,