
57,90,18,46,25,18,

57,89,18,45,25,18,

57,90,19,46,25,19,

57,89,18,46,25,18,

57,89,18,45,24,18,

56,89,18,45,25,18,

57,88,18,45,24,19,

56,88,18,45,25,19,

56,88,18,45,25,18,

56,87,18,45,24,18,

56,87,18,44,24,18,

55,87,18,45,24,19,

55,86,19,45,24,19,

56,86,18,44,24,19,

55,86,19,65,24,18,

56,85,19,63,24,18,

55,85,18,63,24,18,

54,84,18,63,24,19,

54,85,18,62,24,19,

54,85,18,63,24,18,

54,84,18,62,24,18,

54,83,18,61,24,18,

54,83,18,61,24,18,

53,83,18,61,24,18,

53,82,18,61,24,18,

53,83,18,61,24,18,

53,82,19,61,24,18,

53,82,18,60,24,18,

52,82,19,60,27,19,

52,81,19,59,27,18,

52,81,18,60,27,18,

51,81,18,59,27,18,

51,81,18,59,27,18,

51,80,18,59,27,18,

52,80,18,58,26,18,

51,79,18,58,27,18,

51,79,18,58,27,18,

51,79,19,58,26,19,

51,79,19,58,27,19,

50,78,18,57,26,18,

50,78,18,57,27,18,

50,78,19,57,26,18,

51,87,19,57,27,18,

49,86,18,56,26,19,

49,86,19,56,25,18,

50,85,18,56,26,18,

50,85,18,56,26,18,

49,85,18,56,26,18,

48,84,19,56,25,19,

49,84,19,56,26,18,

51,83,19,56,25,18,

51,83,19,55,26,18,

50,83,18,55,25,18,

51,82,19,56,25,18,

50,82,19,54,32,18,

50,82,18,55,31,18,

50,81,18,54,31,18,

49,81,19,54,31,18,

49,81,18,54,31,18,

49,81,18,53,31,18,

49,80,18,53,31,18,

56,79,19,53,31,18,

60,80,18,53,31,19,

59,79,18,53,31,18,

59,78,18,52,30,18,

59,78,18,53,31,18,

59,78,18,52,31,18,

58,78,18,52,30,18,

58,78,18,52,30,18,

58,78,18,51,30,17,

57,77,19,51,30,18,

57,77,19,51,30,18,

57,77,18,50,30,18,

57,77,18,50,30,18,

57,76,19,51,30,18,

57,76,19,50,30,19,

56,76,18,50,30,18,

56,76,18,50,30,18,

56,78,18,50,29,19,

56,78,19,49,29,19,

56,77,18,50,29,18,

55,77,18,49,29,18,

55,77,18,49,29,18,

54,77,18,50,29,18,

56,76,18,50,29,18,

55,76,19,49,29,18,

55,76,19,49,30,18,

54,75,19,48,29,18,

54,74,18,48,28,18,

54,75,18,49,29,19,

54,77,19,48,28,19,

53,76,19,48,28,18,

53,76,18,47,29,18,

52,76,19,47,28,18,

52,76,18,47,29,19,

52,75,19,47,28,18,

52,75,18,48,29,19,

75,75,18,46,28,19,

75,75,18,46,28,18,

73,75,18,46,28,19,

73,74,18,46,28,19,

72,75,18,46,28,19,

71,74,18,46,29,18,

71,73,18,46,28,18,

71,73,18,45,28,18,

71,73,18,45,28,18,

71,72,18,45,28,19,

71,71,18,45,28,19,

71,71,18,46,31,18,

71,71,18,47,34,18,

70,71,18,47,33,18,

70,71,18,47,33,18,

70,71,18,46,33,18,

69,72,18,46,33,19,

69,71,18,46,33,18,

69,71,19,46,32,18,

68,71,18,46,33,18,

69,71,18,45,32,19,

68,71,18,46,32,19,

67,71,18,46,33,18,

67,71,18,46,32,19,

67,70,18,45,33,18,

66,69,18,45,32,18,

66,69,18,45,32,18,

67,73,19,45,32,19,

66,71,18,44,31,18,

65,71,18,45,31,18,

65,71,19,44,31,18,

65,71,18,44,31,18,

66,71,18,44,31,18,

65,71,18,44,31,18,

65,70,18,45,31,18,

64,70,18,44,31,18,

63,71,19,44,30,18,

63,70,19,43,31,18,

63,70,19,43,31,18,

63,71,18,44,31,18,

63,71,18,43,30,18,

63,71,18,43,30,18,

63,70,19,43,30,19,

63,71,18,43,31,18,

62,70,18,43,30,18,

62,70,18,43,30,19,

62,70,19,43,30,19,

62,69,18,43,31,18,

61,69,18,43,30,19,

60,68,18,42,30,18,

61,69,18,42,30,18,

60,71,19,42,29,18,

60,71,18,42,30,19,

60,71,18,42,29,19,

60,71,18,41,29,19,

59,71,19,42,29,18,

59,71,18,41,29,18,

59,71,18,41,29,19,

59,70,19,41,29,18,

59,71,18,41,29,19,

58,70,18,40,29,18,

58,70,19,41,29,18,

58,70,18,40,29,18,

58,71,18,41,29,18,

58,71,19,40,29,18,

57,71,18,39,28,18,

57,70,18,39,28,19,

57,70,18,39,28,18,

57,70,19,39,28,18,

57,69,18,39,28,18,

56,69,18,39,29,18,

56,69,17,39,28,18,

56,67,18,39,28,18,

56,67,19,39,28,18,

56,67,18,39,28,18,

56,67,18,39,28,18,

55,67,18,38,27,18,

55,66,17,38,27,18,

56,67,18,38,27,17,

55,66,18,39,27,18,

54,66,18,38,27,18,

54,66,18,38,28,18,

54,65,18,38,27,19,

54,65,19,38,27,18,

53,65,18,38,27,18,

54,64,18,38,31,19,

54,76,18,38,44,19,

53,81,18,38,44,19,

53,81,18,38,44,18,

53,79,18,37,44,18,

53,79,18,37,43,19,

53,79,18,37,44,18,

52,79,19,37,43,18,

52,79,18,37,43,18,

52,79,18,37,42,18,

52,78,19,38,42,19,

51,78,18,39,42,18,

52,78,18,39,43,18,

51,85,18,39,42,19,

51,85,18,39,41,18,

51,85,18,39,42,18,

51,84,18,38,42,18,

51,84,18,39,41,18,

50,83,18,38,41,18,

50,83,18,38,41,18,

51,83,18,38,41,18,

62,83,18,39,41,18,

62,83,18,38,41,18,

62,82,18,38,41,18,

62,81,18,38,40,18,

61,81,18,38,39,17,

61,80,18,37,39,18,

61,80,18,37,39,19,

61,79,18,38,39,18,

61,79,19,37,39,18,

60,79,18,37,39,18,

60,79,18,37,39,18,

60,78,18,37,39,19,

60,78,19,36,39,18,

59,77,18,37,39,18,

59,77,19,37,39,19,

59,77,18,36,38,18,

59,77,19,36,38,18,

58,76,18,36,39,19,

58,77,19,35,38,18,

58,76,18,36,38,19,

58,76,18,35,38,18,

57,75,18,35,38,18,

57,76,18,35,37,18,

57,75,19,36,38,18,

59,75,19,36,37,19,

59,75,18,35,37,18,

58,76,19,35,39,19,

58,142,19,35,37,18,

58,140,18,35,37,18,

57,139,18,34,37,18,

57,139,18,35,37,19,

57,138,18,34,37,18,

57,137,18,35,37,18,

57,137,18,34,36,17,

57,135,18,35,35,18,

61,135,18,34,37,18,

61,134,18,34,36,18,

61,134,19,34,36,18,

61,133,18,34,36,18,

61,132,19,34,35,19,

60,131,18,34,35,18,

59,131,18,34,35,18,

59,131,18,33,35,18,

60,130,19,34,35,19,

59,129,19,33,35,19,

59,129,18,34,35,18,

83,128,19,33,35,18,

83,127,18,32,35,18,

83,127,18,33,35,18,

83,127,18,34,34,18,

82,126,18,33,34,18,

82,125,19,33,34,18,

81,124,18,32,34,18,

80,125,18,32,34,18,

81,123,18,32,34,18,

80,123,18,32,34,18,

80,123,19,39,34,18,

79,122,19,39,34,19,

79,121,18,39,33,18,

79,121,18,39,33,18,

78,120,18,39,33,18,

79,120,18,39,33,18,

78,120,19,38,33,19,

77,119,18,39,33,17,

77,119,18,38,32,18,

77,117,18,38,33,18,

76,117,18,38,33,18,

76,117,18,38,32,18,

76,116,18,38,33,19,

77,115,18,38,32,18,

78,115,18,37,32,18,

78,115,18,38,32,18,

77,114,18,37,31,18,

77,114,18,37,33,18,

76,113,18,37,31,19,

75,113,18,37,31,19,

75,112,18,37,31,18,

76,112,18,36,31,18,

75,111,18,35,31,18,

75,111,18,36,31,19,

75,110,19,37,31,18,

74,110,18,37,30,18,

74,110,18,35,31,18,

73,110,18,36,31,18,

73,109,18,35,31,18,

71,108,18,36,31,18,

71,107,19,35,30,18,

72,107,18,35,30,18,

71,107,18,35,30,18,

71,106,18,35,30,18,

71,106,18,34,31,18,

71,105,18,35,31,18,

71,105,18,35,31,18,

72,105,19,35,54,19,

73,105,19,79,60,18,

71,103,18,81,59,19,

71,103,18,80,59,18,

71,103,19,79,59,18,

71,103,18,79,58,18,

70,102,19,79,58,18,

69,102,19,78,57,19,

70,102,19,78,58,18,

69,101,18,78,57,18,

69,101,18,77,57,19,

69,99,18,77,57,18,

68,99,19,77,57,19,

69,99,19,76,56,19,

69,99,18,76,56,18,

67,99,19,76,56,18,

67,98,19,76,56,18,

67,98,19,75,55,19,

66,98,19,75,55,19,

67,97,18,74,54,18,

66,97,19,74,55,18,

66,97,18,74,54,18,

66,96,19,73,54,18,

65,95,18,73,54,18,

65,95,18,73,54,18,

65,95,18,73,54,18,

65,95,19,71,53,18,

65,94,18,71,53,17,

64,93,18,71,53,18,

64,94,19,71,53,18,

63,93,18,71,53,19,

63,92,18,71,52,18,

66,93,18,71,52,18,

71,92,18,71,51,18,

71,92,18,70,52,18,

70,91,18,70,51,18,

70,92,18,70,51,19,

70,91,18,70,51,19,

69,91,19,69,52,19,

69,91,18,69,51,18,

68,89,18,69,51,18,

69,89,19,69,50,18,

68,89,18,68,50,18,

67,88,18,67,50,18,

67,89,18,67,50,18,

67,88,18,67,50,18,

67,88,18,67,49,18,

67,88,19,66,49,19,

66,88,18,67,49,18,

66,88,18,67,49,18,

66,88,18,66,49,18,

66,88,18,65,49,18,

65,87,18,66,48,18,

65,86,19,65,48,18,

64,86,18,65,48,18,

64,85,18,65,48,19,

130,86,19,65,48,18,

138,85,18,64,48,19,

137,85,18,63,48,18,

137,94,19,63,47,18,

135,96,18,63,47,18,

135,96,18,63,46,18,

134,95,19,63,46,18,

134,94,18,63,46,18,

133,94,18,63,46,19,

132,93,18,62,46,18,

131,92,18,62,46,19,

131,92,18,62,46,19,

130,92,18,62,45,18,

130,92,18,62,46,18,

130,91,19,62,46,18,

129,91,19,61,45,19,

129,91,18,61,44,18,

127,89,18,60,44,18,

127,89,19,60,45,19,

126,89,18,60,44,19,

126,89,19,60,45,18,

126,89,19,62,44,18,

125,88,19,62,44,19,

124,88,19,62,44,18,

124,88,19,61,44,20,

123,121,19,62,44,19,

123,134,19,62,61,20,

122,134,18,61,88,18,

122,132,18,61,87,18,

121,132,19,61,87,18,

121,131,18,60,86,18,

120,130,19,60,86,18,

119,130,19,59,85,19,

145,130,18,59,86,19,

149,128,18,59,84,19,

147,127,19,59,84,19,

146,127,18,59,83,19,

146,126,18,58,83,18,

145,126,18,58,82,18,

144,125,18,59,83,18,

143,124,19,58,91,19,

143,124,18,57,138,19,

142,123,18,57,135,18,

142,123,18,58,135,19,

141,123,19,57,135,19,

163,121,19,56,134,18,

162,121,18,56,132,18,

161,120,18,56,132,19,

159,120,18,56,131,18,

159,120,18,56,131,18,

158,118,19,56,130,18,

157,118,19,56,129,18,

157,118,19,55,129,18,

156,117,19,55,128,19,

155,116,19,55,127,18,

155,115,18,55,127,19,

153,115,19,54,127,19,

152,115,19,53,126,18,

152,114,18,54,125,18,

152,114,19,53,124,18,

150,112,19,54,124,18,

150,113,19,53,123,19,

149,112,18,53,123,19,

148,111,19,53,122,18,

147,112,18,53,122,18,

147,110,19,52,121,19,

146,110,18,53,122,19,

145,109,18,51,121,19,

145,109,18,52,121,19,

143,108,19,51,120,18,

142,108,18,51,119,19,

142,107,18,51,118,18,

142,107,19,51,118,19,

141,107,19,51,117,19,

140,106,18,51,117,19,

140,105,19,51,116,19,

139,105,18,50,115,18,

138,103,19,50,115,18,

138,103,19,50,152,18,

135,103,18,50,149,19,

135,103,18,49,149,19,

135,102,19,50,147,19,

135,102,18,49,147,19,

134,101,18,49,146,19,

135,102,18,49,145,18,

135,100,18,48,144,18,

134,101,18,48,143,19,

134,100,19,48,143,18,

133,99,19,48,142,19,

132,98,19,48,142,19,

131,98,19,48,141,18,

131,98,19,48,140,18,

130,98,18,48,140,19,

130,97,19,47,139,18,

129,97,18,47,139,18,

129,96,19,47,138,19,

128,96,19,46,137,19,

127,96,18,47,135,19,

127,96,19,46,135,18,

127,103,19,46,135,18,

126,103,18,46,134,18,

126,103,18,45,134,18,

124,103,18,45,133,18,

124,102,19,45,132,19,

123,102,18,46,131,19,

124,101,18,45,131,19,

123,100,19,45,130,18,

122,99,19,44,130,19,

122,100,18,44,130,19,

121,103,19,44,128,19,

120,102,19,44,128,18,

120,101,18,44,127,19,

120,101,18,44,127,19,

118,100,19,43,126,18,

119,100,18,44,126,19,

118,99,19,43,125,19,

117,99,18,43,125,18,

116,99,19,43,125,18,

116,98,19,43,123,19,

115,97,18,43,122,18,

115,97,19,43,122,19,

115,97,18,43,121,18,

114,96,18,42,121,18,

114,96,18,42,121,18,

113,95,18,43,120,19,

113,95,19,42,120,18,

152,96,19,43,120,19,

224,94,19,42,120,18,

221,94,19,42,119,18,

220,94,18,42,119,19,

218,95,18,41,118,18,

217,95,19,41,118,18,

216,94,18,41,117,18,

216,94,18,41,117,18,

214,94,18,41,116,19,

213,93,18,41,115,18,

211,93,18,39,115,18,

211,92,19,39,115,18,

210,92,19,41,114,18,

209,91,18,41,114,19,

208,113,19,41,114,18,

206,140,18,39,112,18,

205,138,19,39,112,19,

204,138,18,39,111,18,

204,137,18,62,111,19,

202,137,19,62,111,19,

199,135,18,62,110,18,

199,135,19,61,110,18,

199,135,20,126,182,19,

198,135,19,142,180,18,

196,133,18,141,179,19,

195,132,18,141,178,19,

195,131,19,140,176,18,

194,131,18,139,176,19,

192,130,19,137,175,19,

192,129,18,137,174,19,

190,129,19,137,173,19,

190,127,18,135,172,18,

188,127,19,135,171,19,

188,126,18,135,171,18,

187,127,19,134,169,19,

185,125,18,133,167,19,

185,125,19,132,167,18,

184,124,19,131,167,19,

184,124,18,131,165,18,

182,123,18,130,164,18,

181,123,19,130,165,19,

182,123,19,129,163,19,

180,122,20,129,162,19,

179,121,19,128,162,20,

179,120,20,128,161,19,

177,120,19,127,160,19,

177,119,20,126,159,19,

176,119,20,126,158,19,

175,119,19,125,158,19,

174,118,20,124,156,19,

173,117,19,124,156,19,

172,116,19,123,156,19,

172,116,20,123,155,20,

172,115,21,123,154,20,

169,115,20,122,153,21,

169,115,21,121,152,20,

167,115,21,121,152,21,

167,115,21,120,151,21,

167,114,21,119,150,21,

166,114,22,119,150,21,

165,113,21,118,149,21,

164,112,21,118,148,21,

163,112,22,117,147,22,

163,111,21,117,147,22,

162,111,22,116,146,21,

161,111,22,116,145,21,

159,110,22,115,145,22,

159,110,22,115,144,22,

158,109,22,114,143,22,

158,108,22,113,142,22,

157,108,22,113,141,22,

159,108,22,112,140,22,

176,107,21,111,140,21,

176,112,22,112,140,22,

174,155,22,111,139,21,

172,153,22,110,137,22,

172,152,22,109,137,22,

171,151,22,109,135,21,

170,150,21,108,135,22,

169,149,22,107,135,22,

167,147,21,107,134,21,

167,147,21,106,134,22,

167,147,22,107,134,22,

187,199,23,107,217,22,

184,216,21,105,211,21,

183,213,22,103,211,21,

181,211,21,103,209,21,

180,210,21,103,207,21,

179,209,21,103,207,21,

178,207,21,103,206,21,

179,207,21,102,204,21,

181,205,22,102,203,21,

179,204,21,102,205,21,

179,204,21,101,212,21,

178,202,20,101,211,21,

177,200,21,100,210,21,

176,199,21,99,209,21,

175,199,21,99,207,21,

174,198,21,99,206,20,

174,197,20,98,205,21,

173,196,21,99,205,21,

172,195,21,99,204,21,

171,193,21,99,203,20,

169,192,20,98,201,21,

169,192,20,97,199,20,

167,191,19,96,199,20,

167,190,21,96,198,20,

167,189,20,96,197,21,

166,188,21,96,196,20,

180,187,21,95,195,20,

180,185,20,95,195,20,

179,184,20,94,193,21,

178,184,20,94,192,20,

177,184,21,93,191,20,

176,182,20,93,190,19,

175,182,20,93,189,19,

174,180,20,92,188,20,

173,179,21,91,188,20,

173,179,20,92,187,19,

172,178,20,91,185,20,

171,177,20,91,185,20,

170,176,20,90,184,20,

170,192,22,92,184,21,

211,254,21,90,182,20,

209,252,20,89,181,20,

207,250,21,89,180,19,

207,249,19,88,179,20,

206,247,20,88,179,21,

205,247,19,88,177,19,

204,244,21,88,177,21,

267,243,20,88,176,20,

263,242,21,88,176,21,

263,242,21,88,176,21,

262,240,21,87,175,21,

261,239,21,87,174,21,

259,238,21,87,173,21,

257,236,21,86,172,21,

255,235,21,86,172,21,

254,233,21,86,171,21,

254,232,22,85,170,21,

251,231,22,85,169,21,

251,231,22,85,167,22,

249,230,22,84,167,22,

248,229,22,83,167,22,

247,227,22,84,167,22,

245,226,22,83,167,22,

244,225,22,83,166,23,

242,223,23,83,165,23,

241,223,23,82,165,24,

240,221,24,82,163,24,

249,220,24,82,163,24,

261,220,25,85,163,24,

269,218,24,84,161,24,

267,217,25,83,161,24,

265,216,25,83,159,24,

263,235,25,83,159,25,

262,246,25,83,159,25,

261,243,25,82,157,25,

259,242,26,82,157,25,

258,241,26,81,157,25,

255,239,25,81,156,26,

257,240,27,135,156,26,

253,237,27,135,154,26,

252,236,27,135,153,26,

251,234,27,134,153,26,

249,233,27,133,152,27,

248,231,27,131,152,27,

246,230,27,131,150,26,

245,229,27,130,151,27,

243,227,27,130,149,27,

243,226,26,128,148,28,

282,226,28,130,156,28,

338,224,27,127,171,27,

335,223,27,127,170,27,

332,222,27,127,170,27,

331,220,28,126,167,27,

327,219,27,125,167,27,

326,217,28,124,167,27,

323,217,27,124,166,28,

322,216,27,123,165,27,

319,215,28,124,164,27,

359,213,27,123,164,28,

356,213,27,122,162,28,

354,211,27,121,161,27,

352,210,27,120,161,28,

350,209,27,120,159,28,

348,207,27,120,159,27,

345,207,27,119,158,26,

343,206,26,118,158,27,

341,205,26,117,156,27,

339,204,27,117,156,27,

336,203,28,117,155,28,

335,201,26,116,154,28,

333,201,27,115,153,27,

330,199,27,115,153,27,

327,199,26,114,152,27,

326,199,27,114,152,26,

324,197,27,113,151,27,

322,196,27,113,150,27,

321,195,26,112,149,27,

319,194,26,112,148,26,

317,193,26,111,147,26,

315,192,27,110,147,26,

313,192,26,110,146,26,

312,190,27,110,145,26,

310,190,26,109,144,26,

307,188,26,109,143,26,

306,188,25,108,143,25,

304,186,25,107,143,26,

303,185,26,107,142,27,

302,185,26,108,142,25,

299,184,25,107,140,25,

297,184,25,107,140,25,

295,182,24,106,140,25,

294,182,25,106,139,25,

293,180,25,105,138,25,

291,179,25,105,137,25,

289,179,25,103,137,25,

287,178,25,103,136,25,

287,177,25,103,135,25,

285,176,25,103,135,25,

287,176,25,103,135,25,

288,175,25,102,134,24,

286,174,25,102,133,25,

285,173,24,101,133,25,

284,172,25,101,167,25,

282,171,24,100,173,24,

280,170,24,99,173,25,

279,169,24,99,171,24,

277,167,25,99,170,25,

275,167,25,98,169,25,

275,167,25,98,167,24,

273,167,24,98,167,24,

272,166,25,97,167,25,

270,165,24,97,166,25,

269,165,25,97,165,24,

268,163,24,96,163,24,

267,163,24,95,163,24,

265,162,24,95,162,24,

263,161,24,95,161,24,

263,161,24,94,160,24,

261,160,24,94,159,24,

259,159,24,94,159,24,

258,159,24,93,159,24,

257,158,25,93,158,24,

255,157,24,93,157,24,

254,157,24,93,156,24,

253,156,24,92,156,24,

253,155,24,92,155,24,

251,155,24,91,155,24,

250,153,24,91,153,24,

249,153,24,90,152,24,

248,152,24,90,152,24,

246,151,23,88,150,22,

244,150,22,88,150,23,

243,149,23,88,149,23,

241,149,22,88,148,24,

241,147,22,87,147,22,

240,147,23,86,146,23,

238,147,24,88,146,22,

237,146,23,86,145,24,

236,146,22,86,144,23,

237,145,22,85,143,22,

236,143,22,85,143,23,

234,143,23,84,143,22,

233,143,22,85,141,22,

231,143,22,84,141,22,

231,142,21,83,140,22,

230,142,22,83,140,22,

229,141,22,83,139,23,

227,140,22,82,139,22,

226,140,22,83,138,22,

268,140,23,83,137,22,

291,138,22,82,135,22,

289,137,22,81,135,22,

287,137,21,81,135,22,

285,135,22,81,135,22,

284,135,22,80,134,22,

282,135,21,80,134,22,

281,135,22,80,133,21,

279,134,22,79,132,22,

278,133,21,79,132,22,

276,133,22,79,131,22,

274,132,22,79,131,21,

273,131,21,78,130,21,

271,131,21,78,129,22,

270,130,21,78,129,21,

268,131,21,77,128,21,

268,129,21,77,127,22,

266,130,21,77,127,21,

263,128,21,77,127,21,

263,128,22,77,126,21,

261,127,22,77,125,21,

259,127,22,76,126,22,

259,208,21,76,124,22,

257,221,21,76,124,21,

255,220,21,75,124,21,

254,218,22,75,123,21,

253,217,21,74,122,20,

252,216,21,75,122,21,

250,214,21,74,121,21,

249,213,21,74,121,21,

248,212,21,74,121,21,

248,211,21,73,120,21,

245,209,21,73,120,21,

244,209,21,71,120,21,

243,207,21,71,119,20,

241,206,21,71,118,20,

240,205,21,71,117,21,

240,204,21,71,117,21,

238,203,21,71,116,20,

237,202,21,70,115,20,

236,201,21,71,115,20,

234,199,21,70,115,21,

233,199,21,70,115,21,

231,197,21,70,114,21,

231,197,20,69,113,20,

229,196,21,69,113,21,

229,195,20,70,112,21,

227,194,21,69,112,21,

226,193,21,69,112,21,

225,192,20,68,111,20,

225,191,20,68,111,21,

224,190,21,68,111,21,

223,190,21,68,139,20,

221,188,20,67,137,20,

220,190,20,67,135,20,

219,189,20,67,135,21,

218,188,20,66,135,20,

217,187,20,66,135,20,

216,185,19,66,134,21,

215,185,20,66,133,21,

238,184,20,66,133,20,

236,184,20,66,131,20,

236,182,19,65,131,19,

234,181,21,65,131,19,

231,180,19,65,129,20,

231,179,20,65,129,19,

230,179,20,64,129,20,

229,179,20,64,134,21,

227,176,20,63,134,20,

227,177,21,63,133,21,

225,175,20,66,131,20,

224,175,21,67,133,21,

224,175,21,66,131,21,

222,174,21,66,131,21,

221,173,21,66,130,21,

221,172,21,66,130,20,

219,171,21,65,128,20,

217,170,21,66,128,22,

250,169,21,65,127,21,

248,167,21,65,127,21,

246,167,21,65,127,20,

244,167,21,65,126,21,

243,167,21,63,125,20,

243,166,21,63,125,21,

241,184,22,64,159,21,

240,183,20,63,158,21,

238,181,21,63,157,21,

237,180,21,63,156,21,

235,180,20,62,156,21,

235,178,21,63,155,20,

233,177,20,62,154,21,

231,177,21,62,152,20,

231,176,21,62,152,21,

229,175,21,61,152,21,

228,174,21,61,157,20,

227,173,21,61,156,20,

226,172,21,61,155,20,

224,172,20,60,153,21,

224,172,22,79,153,21,

223,169,20,82,152,20,

221,167,20,82,151,21,

220,167,20,81,150,20,

218,166,19,80,149,19,

217,165,19,80,149,20,

216,165,19,80,148,19,

216,164,19,79,147,19,

214,163,19,79,147,19,

213,162,19,79,145,19,

211,161,19,78,145,19,

211,161,19,78,143,19,

210,159,19,77,143,19,

209,159,20,78,143,20,

207,158,19,77,142,19,

207,158,19,77,141,20,

207,157,20,76,140,19,

205,157,19,76,140,19,

204,156,20,75,140,19,

203,155,19,75,138,20,

203,154,19,75,138,19,

201,153,20,75,137,21,

205,153,20,110,135,19,

203,152,19,108,135,19,

201,152,20,108,135,19,

199,151,19,107,135,20,

199,150,20,107,134,20,

199,149,19,106,133,19,

198,149,19,105,132,19,

197,147,19,105,131,20,

195,147,19,104,131,19,

195,146,19,103,131,19,

194,146,19,103,130,20,

193,145,20,103,129,19,

192,145,19,102,129,19,

191,143,20,102,129,20,

191,144,20,102,127,20,

190,143,19,101,127,20,

188,143,19,100,126,19,

188,143,19,99,126,19,

187,142,19,99,125,19,

186,142,19,98,125,19,

186,142,19,98,124,19,

184,141,19,97,123,19,

184,140,19,98,123,19,

183,140,19,97,123,20,

182,199,19,97,122,19,

181,197,19,96,121,20,

180,196,19,95,121,19,

179,195,19,95,120,19,

179,193,19,96,119,19,

178,193,19,94,119,19,

177,192,19,94,119,19,

176,190,19,94,119,19,

177,189,19,93,118,20,

176,188,19,92,116,19,

175,187,19,93,117,19,

174,187,19,92,116,19,

173,186,19,92,115,20,

173,184,19,91,115,19,

172,184,19,91,114,20,

171,183,19,90,113,19,

171,183,19,90,113,19,

170,180,19,89,113,19,

169,180,19,89,112,19,

167,179,19,89,112,19,

167,178,19,89,111,19,

167,176,19,88,111,19,

167,197,20,88,111,19,

166,195,19,87,110,19,

165,194,19,87,109,19,

163,193,19,86,109,19,

164,193,20,87,159,19,

163,192,19,86,158,19,

162,191,19,85,157,19,

161,190,19,85,156,19,

161,188,19,85,156,19,

159,188,19,85,155,19,

159,187,19,84,154,19,

158,185,19,83,153,19,

158,184,19,83,152,19,

158,184,19,82,151,19,

157,183,19,83,150,19,

156,181,19,82,150,19,

156,181,19,82,149,19,

155,179,19,81,147,19,

155,179,19,81,147,19,

154,178,19,81,146,19,

153,177,19,80,146,19,

153,176,19,79,145,19,

152,176,19,79,145,19,

152,175,19,79,143,19,

152,174,19,79,143,19,

151,173,19,79,143,19,

149,172,19,78,142,19,

152,171,19,78,141,19,

151,171,19,78,140,19,

150,169,20,77,140,19,

149,167,19,77,139,19,

148,167,19,77,139,19,

148,167,19,76,138,19,

147,167,19,76,137,19,

147,166,19,76,136,19,

146,164,19,76,135,19,

145,163,20,75,135,19,

145,163,19,75,135,19,

144,162,19,74,134,19,

143,161,20,76,134,19,

143,245,19,74,132,19,

142,243,19,75,133,20,

176,241,19,73,131,20,

175,240,19,73,131,19,

174,238,19,73,130,19,

172,237,19,73,130,19,

171,235,19,71,129,19,

194,235,19,73,129,20,

275,233,19,71,127,19,

273,231,19,71,127,19,

271,231,19,71,127,19,

270,229,20,71,126,19,

268,228,19,70,125,19,

267,227,19,71,125,19,

265,225,19,70,123,19,

263,224,19,69,123,19,

261,222,18,68,123,19,

259,221,19,68,122,19,

259,220,19,68,128,19,

257,219,18,67,127,19,

255,217,19,67,127,19,

254,217,19,67,127,19,

252,216,19,67,126,19,

251,215,18,67,125,18,

249,213,19,66,124,18,

249,212,19,66,124,18,

247,211,19,66,123,19,

246,210,19,66,123,19,

244,209,19,65,122,18,

243,207,19,65,121,19,

242,207,19,65,121,18,

241,206,18,65,121,19,

240,205,18,64,120,18,

238,204,18,63,119,18,

237,202,18,63,118,18,

236,201,18,63,118,18,

235,201,19,63,118,18,

233,199,19,63,118,19,

289,199,18,63,117,19,

312,198,18,63,115,19,

309,197,18,62,115,18,

307,196,18,62,115,19,

305,195,18,62,115,18,

304,194,18,62,114,19,

301,194,20,63,115,19,

301,194,19,63,115,19,

300,192,19,62,113,20,

298,192,19,62,113,20,

295,191,20,61,113,20,

294,190,20,61,112,20,

293,189,20,62,112,19,

291,189,20,61,137,21,

290,188,19,61,173,19,

287,186,19,61,172,20,

286,185,19,60,171,20,

285,184,19,60,169,20,

283,184,19,59,168,20,

281,184,20,60,167,20,

281,182,20,60,167,19,

278,181,19,59,165,19,

277,180,20,59,165,20,

275,179,19,59,165,21,

275,196,20,59,163,20,

273,195,20,59,162,20,

271,194,20,58,161,19,

269,193,19,58,160,20,

269,192,19,58,159,20,

268,191,20,58,159,19,

265,190,19,57,159,20,

263,189,19,57,157,19,

263,188,19,57,156,19,

262,187,19,57,157,20,

260,195,21,57,156,19,

259,249,20,56,155,19,

257,248,19,56,154,19,

255,246,20,56,153,19,

254,244,19,56,153,20,

254,243,20,55,152,19,

253,242,19,55,151,20,

251,241,20,55,150,20,

269,239,20,55,150,20,

268,238,20,55,149,20,

266,237,20,55,148,19,

264,236,19,56,147,20,

263,233,19,55,146,20,

261,231,19,55,146,19,

260,231,19,54,145,20,

259,230,20,54,145,19,

257,229,19,54,143,20,

255,227,19,54,143,19,

255,227,21,55,143,20,

254,226,20,82,142,20,

252,224,19,120,141,20,

250,223,20,118,140,19,

249,222,19,117,140,19,

248,221,20,116,139,20,

247,219,19,115,138,19,

245,218,19,115,138,20,

244,217,20,115,137,21,

243,217,20,114,136,20,

242,215,19,113,135,20,

240,214,20,113,135,20,

239,212,21,112,134,20,

238,211,20,112,134,21,

236,210,19,112,133,20,

235,209,20,110,133,19,

234,207,20,109,132,19,

231,207,20,109,131,20,

231,206,20,108,130,20,

230,205,20,108,130,20,

229,204,20,108,129,20,

229,204,22,108,129,20,

227,238,20,106,127,20,

226,236,20,107,127,20,

225,235,20,105,127,19,

224,233,20,105,126,20,

222,231,20,103,126,20,

221,231,20,105,125,20,

220,230,20,103,125,21,

219,229,20,103,125,21,

219,228,19,103,174,19,

217,226,20,102,173,21,

216,225,20,102,173,21,

215,223,20,101,171,20,

214,222,20,100,170,19,

213,221,21,100,169,20,

211,220,20,100,167,20,

211,218,21,99,167,19,

210,217,20,99,166,20,

209,216,20,99,166,20,

207,216,20,98,166,21,

207,214,20,98,164,20,

206,213,20,97,163,20,

205,211,20,97,163,20,

204,210,20,97,161,20,

203,210,19,96,161,21,

202,208,20,96,160,20,

201,207,20,96,159,20,

199,206,20,94,158,21,

199,205,21,95,157,21,

199,204,20,94,157,20,

198,203,20,93,156,20,

197,202,20,93,155,20,

195,201,20,94,155,20,

195,246,19,92,154,20,

194,243,21,92,153,20,

193,243,20,92,152,20,

192,241,20,92,152,20,

192,240,19,91,151,20,

191,239,20,90,151,21,

225,238,21,91,149,20,

223,236,19,89,148,20,

222,235,20,89,147,20,

221,233,20,89,147,20,

219,231,21,88,147,20,

218,231,20,88,146,20,

217,229,20,88,145,21,

231,229,20,88,144,20,

229,227,19,86,143,20,

228,226,21,87,143,21,

226,225,21,88,205,21,

225,223,20,87,205,20,

224,222,21,86,204,21,

222,221,20,86,202,20,

221,220,20,85,201,19,

220,219,19,85,199,19,

219,218,20,84,199,20,

218,216,20,84,198,20,

217,216,19,84,197,20,

216,215,19,83,195,20,

215,213,21,83,195,20,

214,212,20,83,193,20,

212,211,20,83,193,20,

211,209,21,82,192,20,

210,209,21,81,190,20,

209,207,20,82,189,20,

208,207,20,81,188,20,

207,206,20,81,188,20,

206,205,20,80,187,20,

205,204,20,79,186,20,

204,203,20,79,185,21,

203,202,20,79,184,20,

201,201,20,79,183,19,

199,199,19,78,182,20,

199,199,20,78,181,20,

199,198,21,78,180,21,

198,197,20,78,179,20,

197,196,20,77,179,19,

195,195,19,77,177,19,

195,194,21,77,177,20,

194,194,21,76,176,20,

194,192,20,76,175,20,

193,192,20,76,174,20,

192,190,20,76,173,20,

190,189,21,76,173,21,

190,189,22,75,172,21,

190,189,21,76,172,21,

188,188,21,75,171,21,

188,187,21,74,170,21,

187,185,21,74,169,21,

186,185,20,74,168,21,

185,184,21,75,167,21,

184,183,21,73,167,20,

184,183,22,75,166,21,

184,226,21,73,165,21,

183,224,21,73,164,21,

181,223,22,71,164,21,

180,221,21,71,163,21,

180,220,21,71,163,22,

180,219,22,71,161,22,

178,217,21,71,161,22,

178,217,22,71,160,21,

177,216,22,71,159,23,

176,215,22,71,159,21,

175,213,22,70,158,22,

174,212,22,70,157,22,

174,211,22,70,156,22,

173,209,24,70,155,24,

172,209,24,70,155,23,

171,207,24,69,154,23,

170,206,23,68,153,24,

170,206,24,69,155,24,

169,231,23,70,153,23,

167,231,22,69,152,22,

167,230,22,68,150,22,

167,227,23,67,149,22,

166,226,23,67,149,22,

165,224,22,67,147,22,

167,224,23,67,147,22,

166,222,22,66,146,22,

166,221,23,66,146,22,

165,219,22,66,145,22,

164,219,22,66,145,22,

163,217,23,65,144,23,

163,216,22,65,143,22,

161,216,22,64,142,22,

161,214,22,64,142,22,

160,213,23,64,141,22,

159,212,22,64,141,23,

158,211,22,64,141,23,

219,211,23,63,140,22,

246,208,22,63,139,22,

245,207,22,63,138,22,

243,207,22,63,137,22,

242,206,23,63,145,22,

240,204,22,62,144,22,

239,203,22,62,143,22,

238,202,22,62,143,22,

236,201,21,61,142,21,

235,199,22,62,141,21,

233,199,22,62,140,22,

231,198,21,61,140,22,

231,197,21,61,139,21,

230,196,22,61,138,21,

229,195,21,60,137,21,

227,194,21,60,135,21,

225,206,21,59,135,21,

224,204,21,59,135,21,

223,204,21,59,134,20,

222,202,20,59,134,20,

221,201,21,59,134,21,

220,199,21,58,133,20,

219,199,21,58,133,20,

218,199,20,57,131,21,

216,197,21,57,131,20,

216,196,21,57,131,21,

214,195,21,56,130,20,

213,194,20,57,129,21,

212,193,21,57,129,20,

211,192,20,56,127,20,

210,191,21,56,127,21,

209,190,20,77,127,19,

207,189,21,76,126,20,

207,188,20,76,126,20,

206,188,21,76,126,22,

205,241,21,76,124,20,

204,240,21,75,124,20,

203,238,20,74,124,20,

201,236,20,74,123,19,

201,236,20,74,123,20,

199,234,20,73,122,20,

199,233,20,72,121,20,

198,231,20,72,121,20,

197,229,21,73,121,21,

197,230,21,73,121,21,

195,228,21,71,121,21,

195,227,21,73,133,21,

194,226,21,78,133,21,

193,224,21,78,132,21,

192,223,21,78,131,21,

191,222,21,77,130,21,

190,221,21,77,130,21,

189,220,22,102,177,23,

189,218,21,139,192,21,

188,218,22,137,192,23,

259,315,21,135,189,21,

268,312,21,135,188,21,

267,309,20,134,187,21,

265,307,21,133,185,21,

263,305,21,133,184,21,

262,303,20,132,184,21,

261,301,21,131,182,20,

259,299,21,130,181,21,

257,297,21,130,180,21,

255,295,21,130,179,21,

254,293,20,129,178,21,

253,292,21,127,177,20,

251,291,21,127,176,20,

249,289,21,126,176,21,

249,287,20,202,174,21,

247,285,21,200,174,21,

246,284,21,199,173,21,

244,282,21,197,172,21,

243,280,20,197,171,21,

241,278,21,195,170,20,

240,277,20,194,169,20,

238,275,20,193,169,20,

238,274,21,192,167,20,

237,273,20,191,167,21,

235,271,21,190,166,21,

233,270,20,188,166,21,

231,268,21,188,164,20,

231,267,21,187,163,21,

230,263,21,187,162,20,

228,263,21,185,161,19,

227,262,20,184,160,20,

226,261,20,183,160,20,

225,259,21,182,159,21,

224,258,20,181,159,22,

262,257,21,181,158,21,

259,255,21,179,157,20,

258,254,21,179,156,20,

257,253,20,177,156,19,

255,251,20,177,155,21,

253,250,20,176,154,20,

252,248,20,174,153,20,

251,247,20,174,153,20,

249,246,20,173,152,19,

248,245,21,172,151,20,

246,243,21,172,150,21,

245,242,20,171,149,21,

244,241,21,170,149,21,

242,240,20,169,147,20,

241,238,21,169,147,21,

239,237,20,167,147,21,

238,237,21,167,146,21,

238,235,20,167,146,21,

237,234,21,166,145,21,

235,233,21,164,144,21,

234,231,21,163,143,21,

274,231,22,163,143,20,

291,230,21,162,142,21,

287,228,21,162,142,21,

287,227,21,161,142,21,

285,226,21,159,141,21,

283,225,21,159,140,21,

281,224,20,159,140,21,

280,222,21,158,139,21,

278,222,20,157,138,21,

276,220,21,157,137,21,

275,219,22,156,135,21,

273,219,21,155,135,21,

271,217,21,154,135,21,

270,216,21,153,135,21,

269,216,21,153,135,21,

267,214,22,152,134,21,

266,213,21,152,134,21,

263,212,21,152,132,22,

262,211,22,150,131,22,

261,210,21,150,131,22,

260,209,22,149,130,22,

258,207,22,148,130,22,

256,207,21,148,129,22,

255,206,22,147,129,22,

254,206,22,146,128,22,

252,205,22,145,127,21,

251,203,21,144,126,21,

249,203,21,143,125,21,

248,201,21,143,125,21,

292,201,21,142,125,21,

290,199,22,142,124,21,

287,199,21,141,123,21,

286,198,22,141,124,21,

284,196,22,140,123,21,

283,196,21,139,123,21,

281,194,21,139,122,21,

279,193,21,137,121,20,

278,193,20,137,121,21,

276,192,21,135,120,21,

274,192,21,135,120,21,

273,190,21,135,119,21,

271,190,21,135,118,21,

270,189,21,134,118,20,

268,188,21,134,118,21,

267,187,20,133,116,21,

265,185,21,132,116,21,

263,184,21,131,115,20,

263,184,21,131,115,21,

261,184,21,130,115,21,

259,182,21,130,114,21,

258,182,21,129,114,21,

255,181,20,129,113,21,

255,179,21,129,113,21,

253,179,20,128,112,21,

252,179,21,127,112,21,

251,177,21,126,111,21,

249,176,21,126,110,21,

248,176,20,125,110,21,

247,175,21,125,110,20,

245,174,20,124,109,21,

243,173,20,124,109,21,

243,173,20,124,108,21,

241,172,21,123,108,21,

240,172,20,122,107,21,

239,170,21,122,107,21,

237,169,21,121,107,20,

236,167,21,120,106,20,

235,167,20,120,106,21,

234,167,20,120,105,20,

231,166,20,119,103,21,

231,166,21,119,103,20,

231,165,21,118,103,21,

229,164,21,118,103,20,

227,163,20,117,103,20,

227,163,21,117,103,21,

225,162,21,116,102,20,

224,161,21,115,102,20,

224,159,21,115,102,20,

223,159,21,115,101,21,

222,159,21,115,102,20,

273,159,21,113,100,20,

272,158,21,113,161,21,

269,163,20,113,159,21,

268,162,21,112,158,20,

266,160,21,111,157,20,

264,159,21,111,158,20,

263,159,20,111,156,20,

262,157,19,110,155,20,

259,157,20,110,153,20,

258,156,19,109,153,19,

257,155,19,108,152,20,

255,155,19,108,151,19,

254,154,19,108,150,19,

252,153,20,107,150,19,

250,165,19,106,149,19,

249,164,19,106,147,20,

248,163,19,105,147,19,

246,163,19,107,147,20,

245,161,20,110,146,19,

243,161,19,109,145,20,

242,159,19,109,143,19,

241,159,20,109,143,19,

239,158,19,108,142,19,

239,158,19,108,142,19,

237,156,19,106,141,19,

236,156,19,106,141,19,

235,155,19,105,140,19,

233,154,19,105,140,19,

231,153,19,103,138,19,

231,153,19,103,137,19,

230,152,19,103,136,19,

228,152,19,103,135,19,

227,152,19,103,135,19,

226,150,19,103,135,19,

225,149,19,102,134,19,

224,148,19,102,134,19,

222,147,19,101,133,19,

222,147,19,101,132,19,

220,147,19,100,132,20,

218,146,19,100,131,19,

218,151,19,99,131,19,

217,150,19,99,129,19,

216,149,19,98,129,20,

215,148,19,98,128,19,

214,147,19,98,127,19,

213,147,19,98,127,19,

211,146,19,97,126,19,

210,145,19,96,126,19,

209,145,19,96,126,19,

209,143,19,96,126,20,

207,192,20,96,124,19,

207,192,20,96,125,19,

206,265,20,96,123,19,

205,262,19,95,123,19,

204,260,19,94,122,19,

203,259,19,94,122,19,

202,257,19,93,121,19,

201,255,19,93,121,19,

201,254,19,92,120,19,

199,252,19,92,120,19,

198,251,19,92,119,19,

197,249,19,92,119,19,

197,248,19,91,119,19,

195,247,19,91,118,19,

195,245,19,91,118,19,

194,243,19,90,117,19,

193,243,19,90,117,19,

192,241,19,90,116,19,

191,240,19,89,115,19,

190,239,19,89,115,20,

204,238,19,89,115,19,

201,236,19,88,114,19,

199,235,19,88,113,19,

199,233,20,88,113,19,

199,233,19,88,112,19,

198,231,19,88,112,19,

197,230,19,87,112,19,

196,229,19,87,111,19,

257,228,20,87,110,19,

294,226,19,85,109,19,

291,225,19,86,109,19,

289,225,20,84,108,19,

287,223,19,85,108,20,

286,225,19,84,108,18,

285,224,19,83,107,19,

283,223,19,83,107,19,

281,221,19,83,107,19,

280,220,19,83,106,19,

278,219,19,83,106,19,

315,217,19,82,105,19,

312,217,19,82,103,19,

310,216,19,81,103,19,

308,216,19,83,105,19,

307,214,20,81,103,20,

305,213,19,81,103,19,

304,213,20,81,103,19,

302,211,19,81,103,19,

300,210,20,81,102,20,

299,209,20,80,102,20,

297,207,20,79,102,20,

295,207,21,80,101,20,

294,206,20,79,99,20,

291,205,20,78,99,19,

290,204,20,79,99,20,

288,203,20,78,99,19,

287,202,19,78,99,19,

286,201,19,78,98,19,

284,200,19,77,98,19,

283,199,20,77,98,19,

281,199,20,77,98,19,

280,198,20,77,97,19,

279,196,20,76,96,19,

277,195,20,76,96,20,

275,195,19,76,96,20,

274,194,19,76,96,20,

273,193,19,76,96,19,

271,192,19,75,96,19,

270,192,19,75,94,20,

268,191,20,75,94,19,

268,190,20,74,94,20,

265,189,19,73,93,20,

265,188,19,73,93,19,

263,187,20,73,93,19,

263,186,19,73,92,19,

261,186,21,73,131,19,

259,185,19,72,130,19,

258,184,20,72,129,20,

257,183,20,71,128,20,

255,182,20,71,127,20,

254,181,19,71,127,20,

253,180,19,71,126,20,

252,179,20,71,126,19,

250,179,19,71,125,19,

249,177,20,71,125,21,

248,177,20,70,158,20,

247,184,21,71,159,21,

315,294,19,70,156,19,

312,291,20,70,155,20,

309,289,19,69,154,20,

307,287,19,69,153,19,

305,286,19,69,152,19,

303,284,20,69,152,19,

302,282,20,68,152,19,

300,281,19,68,150,20,

298,279,20,67,149,19,

297,277,19,67,148,20,

295,275,19,67,148,19,

294,275,19,67,147,19,

291,272,19,67,146,20,

290,271,19,66,146,19,

287,270,19,67,145,19,

287,268,19,66,143,20,

285,267,19,66,143,19,

284,265,19,65,143,19,

282,263,20,65,142,20,

280,263,19,65,142,19,

279,261,19,65,141,19,

277,259,19,65,140,20,

275,258,19,65,140,20,

275,257,19,64,139,20,

273,255,19,64,138,19,

271,254,19,63,137,19,

271,253,20,63,137,19,

269,251,19,63,135,19,

267,250,20,63,135,20,

266,249,19,63,135,19,

264,248,19,63,134,19,

263,247,20,62,133,19,

262,245,19,62,133,19,

259,243,20,62,132,19,

259,243,19,62,132,19,

257,241,20,61,131,20,

255,240,20,61,130,20,

255,239,19,61,130,20,

253,238,19,61,129,20,

252,236,20,61,129,21,

251,235,20,61,128,19,

250,234,20,61,127,19,

249,231,19,60,127,19,

248,231,19,60,126,20,

