
39,54,1,52,15,0,
39,53,1,52,15,1,
39,53,1,52,15,0,
39,53,0,51,14,1,
39,53,1,51,15,1,
39,53,1,51,15,1,
39,51,1,51,15,1,
39,51,1,51,14,1,
38,51,1,50,14,1,
38,51,0,50,14,1,
38,51,1,50,14,0,
38,51,1,50,14,1,
38,50,1,49,14,1,
38,51,1,49,14,0,
37,50,1,49,14,1,
37,50,1,49,18,1,
37,50,1,48,18,0,
37,50,0,48,17,0,
36,49,1,48,18,0,
36,49,0,48,17,1,
36,49,1,48,17,1,
35,48,1,48,17,1,
35,48,1,47,17,1,
35,48,0,47,17,1,
35,48,0,47,17,1,
35,48,1,47,17,1,
34,48,1,46,16,1,
35,48,1,46,16,1,
35,47,1,46,17,1,
35,46,1,46,16,0,
34,46,0,45,16,0,
35,46,1,46,16,1,
34,46,0,46,16,1,
34,46,0,45,16,1,
34,46,1,45,16,1,
33,46,1,45,15,0,
33,46,1,44,16,1,
33,45,1,44,15,1,
33,45,0,44,15,1,
33,45,1,44,15,0,
33,44,1,44,15,1,
33,44,1,44,15,1,
32,44,1,43,15,1,
31,44,1,43,15,1,
31,43,1,43,15,1,
31,44,1,43,15,0,
32,43,0,43,14,0,
31,43,1,42,15,0,
31,43,1,42,15,1,
31,43,1,41,14,1,
31,43,0,42,14,0,
31,42,1,41,15,1,
31,42,0,41,14,1,
30,42,1,41,14,0,
30,41,1,41,14,1,
30,41,1,41,14,1,
30,41,0,39,14,1,
30,41,1,41,14,1,
30,40,0,40,14,1,
30,41,1,39,14,1,
29,39,0,39,14,1,
29,39,1,39,14,1,
29,39,0,39,14,1,
29,39,0,39,13,0,
29,39,1,39,13,1,
29,39,1,39,13,0,
28,39,0,39,13,0,
29,39,1,39,13,1,
29,39,1,38,13,1,
28,38,1,38,13,0,
28,38,1,38,13,1,
28,38,1,38,13,1,
28,38,1,37,12,1,
28,38,0,37,12,1,
28,38,0,38,13,1,
27,38,1,37,12,1,
27,37,1,37,12,0,
27,38,0,36,12,1,
27,37,0,36,12,1,
27,37,1,36,12,0,
27,37,1,109,54,1,
26,37,1,130,54,1,
27,36,1,129,53,0,
26,36,1,128,53,1,
26,35,1,127,52,1,
25,36,1,127,51,1,
26,35,1,127,51,1,
25,35,1,126,51,1,
25,35,0,125,51,0,
26,35,1,125,51,1,
26,35,1,124,50,1,
41,35,1,123,50,1,
55,35,1,123,50,0,
55,34,1,122,49,1,
55,34,1,121,49,0,
54,34,0,120,49,1,
54,34,1,121,49,1,
54,33,0,120,49,1,
53,34,0,119,48,1,
53,33,1,118,48,1,
52,33,1,118,48,1,
52,33,1,118,47,0,
52,33,1,117,48,1,
51,32,1,116,47,1,
51,33,1,116,47,1,
51,32,1,115,47,1,
51,31,1,114,46,1,
50,32,1,114,46,0,
50,31,1,114,46,1,
50,31,0,113,46,1,
50,31,1,113,45,1,
50,31,0,112,45,1,
49,31,1,112,45,0,
49,31,0,111,45,1,
49,30,1,111,44,1,
48,31,0,111,44,0,
49,30,1,110,44,1,
48,30,1,109,44,1,
48,30,1,108,44,1,
48,30,1,108,44,1,
47,30,1,108,43,1,
47,30,0,108,43,1,
47,29,0,107,43,1,
47,30,1,106,43,1,
46,30,1,106,42,1,
46,29,0,105,42,1,
45,29,1,105,41,1,
46,29,0,105,42,1,
45,29,1,103,41,0,
45,29,0,103,41,1,
45,28,1,103,41,1,
45,28,0,103,41,1,
44,28,1,102,41,1,
44,28,1,102,39,0,
44,28,1,101,39,0,
43,28,1,101,39,0,
44,27,1,100,39,1,
43,27,1,99,39,1,
44,27,0,99,39,1,
42,28,1,99,39,1,
43,27,1,99,39,0,
57,27,1,99,39,1,
63,27,1,98,39,1,
63,26,0,98,38,1,
63,26,0,98,38,0,
62,26,1,97,38,1,
62,26,1,97,38,0,
62,26,1,97,38,1,
62,26,0,96,37,1,
61,26,1,96,37,1,
60,25,1,95,37,1,
60,25,1,95,37,1,
60,25,1,94,37,0,
60,25,0,94,36,1,
60,25,1,93,36,1,
59,25,1,94,36,1,
59,25,1,93,36,1,
59,25,0,92,35,1,
59,25,1,92,35,1,
58,24,1,92,35,1,
58,24,1,91,35,1,
57,24,1,91,35,0,
57,24,1,91,35,1,
57,24,1,90,34,1,
56,24,0,90,35,1,
56,24,1,90,34,0,
56,24,1,89,34,1,
56,23,0,89,34,1,
56,24,1,89,34,1,
56,24,1,88,50,1,
55,23,1,88,50,0,
55,24,1,88,50,1,
55,23,1,87,50,1,
54,23,1,87,49,1,
54,22,0,87,50,1,
54,22,1,87,49,1,
53,22,0,86,49,1,
53,22,1,85,48,1,
53,22,1,85,48,1,
52,22,1,85,48,0,
52,22,1,84,47,0,
52,22,1,84,48,1,
51,21,1,83,47,1,
52,21,1,83,47,1,
51,22,1,83,46,1,
51,21,0,82,46,1,
51,22,0,82,46,1,
50,21,1,82,46,0,
51,21,1,81,46,1,
50,21,1,81,45,1,
50,21,0,81,45,1,
50,21,1,81,45,1,
49,20,1,80,45,1,
50,20,0,79,44,0,
50,21,0,79,44,1,
49,20,0,79,44,1,
49,20,1,79,44,1,
49,20,1,79,44,1,
48,19,1,78,44,1,
49,19,1,78,43,1,
48,19,1,78,43,1,
48,19,1,78,44,1,
48,19,0,77,43,1,
48,19,1,77,42,1,
48,19,1,76,43,1,
47,19,1,76,42,0,
46,19,1,76,41,0,
47,19,1,76,41,0,
46,19,0,76,41,1,
47,19,1,75,41,0,
46,19,1,75,41,1,
46,19,1,75,41,1,
45,18,1,74,41,1,
46,18,1,73,40,0,
45,18,0,73,39,1,
45,18,1,73,39,1,
45,18,1,73,39,1,
44,18,1,73,39,0,
45,18,1,71,39,1,
44,17,1,71,39,1,
44,17,0,71,39,0,
44,18,1,71,39,1,
44,18,0,71,39,1,
44,17,1,71,39,1,
43,17,1,70,38,1,
43,18,1,70,38,1,
43,18,1,70,38,1,
43,17,1,70,38,1,
43,17,1,70,38,1,
42,17,1,69,37,0,
42,17,1,69,37,0,
41,17,1,69,37,1,
42,17,1,68,37,1,
41,17,1,68,37,1,
41,17,0,67,37,0,
41,22,1,67,36,1,
41,30,1,67,36,1,
40,29,1,67,36,1,
39,29,1,67,36,1,
39,29,1,66,35,1,
39,29,1,66,35,1,
39,28,1,66,35,1,
39,29,1,66,35,0,
39,29,1,65,35,1,
39,28,1,65,35,1,
39,28,1,65,35,1,
39,28,1,65,34,1,
38,28,1,63,35,0,
39,28,0,64,34,1,
39,28,1,63,34,1,
39,28,1,63,34,1,
38,28,0,63,33,0,
38,28,1,63,33,0,
38,27,1,63,33,1,
38,27,0,62,33,1,
38,27,1,62,33,1,
37,27,1,62,33,1,
37,27,0,62,32,1,
37,27,1,61,33,1,
36,26,1,61,32,1,
37,26,1,61,31,0,
37,31,0,61,31,1,
37,33,1,60,31,1,
36,35,1,60,31,1,
36,35,0,60,31,0,
36,35,1,60,31,1,
36,35,1,60,31,1,
35,35,1,59,31,1,
35,35,1,59,31,0,
35,34,1,59,31,0,
35,34,1,58,30,1,
35,33,0,58,30,1,
35,33,1,58,30,0,
34,33,0,58,30,0,
34,33,1,57,30,1,
34,33,1,58,30,1,
34,32,1,57,30,0,
34,33,1,57,29,1,
34,33,1,57,29,0,
33,32,1,56,29,1,
33,31,1,56,29,1,
33,31,0,56,29,1,
33,31,1,56,29,0,
33,31,0,56,29,1,
32,31,1,56,28,1,
32,31,1,56,28,1,
32,31,1,56,28,1,
32,32,1,55,28,0,
32,39,1,55,28,0,
31,38,0,56,28,1,
31,37,1,55,27,0,
31,37,0,54,28,1,
31,37,1,54,27,1,
31,37,1,54,27,1,
31,36,0,54,27,0,
31,36,1,54,27,1,
31,36,1,53,27,1,
31,37,1,53,27,0,
31,36,0,53,27,1,
30,35,0,52,26,0,
30,35,1,52,26,0,
30,35,0,52,26,0,
30,35,0,51,26,0,
30,35,1,51,25,1,
30,35,1,51,25,0,
29,34,1,51,26,1,
30,34,1,51,25,1,
30,34,0,51,25,1,
29,34,1,51,25,0,
29,34,1,51,25,1,
28,34,1,50,25,0,
29,33,1,50,25,1,
28,33,1,50,25,1,
28,33,1,50,24,1,
28,33,1,49,24,0,
28,33,1,49,24,1,
28,33,1,49,24,1,
28,32,1,48,24,0,
27,32,0,48,24,1,
27,32,0,48,24,1,
27,32,1,48,24,0,
27,31,0,48,24,1,
27,31,1,48,24,1,
27,31,1,48,23,1,
27,31,0,47,23,1,
27,31,1,47,23,1,
26,31,1,47,23,1,
27,31,1,47,23,1,
26,31,1,47,23,0,
26,31,0,46,23,1,
25,31,1,46,23,0,
25,30,1,46,23,1,
26,30,1,46,22,1,
25,30,1,46,22,1,
26,30,1,45,21,0,
25,30,1,46,22,0,
25,30,1,45,22,0,
25,29,1,45,22,1,
25,29,0,45,22,1,
25,29,1,44,21,1,
25,29,1,44,21,0,
25,29,0,44,21,1,
25,28,1,44,22,1,
24,28,1,44,21,1,
24,28,1,44,21,0,
24,28,1,44,21,1,
24,28,1,43,20,0,
24,28,0,43,20,0,
24,28,1,43,20,1,
24,28,0,43,20,1,
24,28,1,118,19,0,
24,27,1,118,20,1,
24,27,1,117,20,0,
24,27,1,117,20,1,
24,26,0,116,19,1,
24,27,1,115,19,1,
23,27,1,115,19,1,
23,26,1,114,19,1,
22,26,1,114,19,1,
22,26,1,113,19,0,
22,26,0,112,19,1,
22,26,1,112,19,1,
22,25,1,111,18,0,
23,25,1,111,19,1,
24,25,0,110,18,1,
24,25,1,110,18,0,
23,25,1,109,18,0,
23,25,0,109,18,1,
23,25,1,109,18,1,
23,25,1,108,18,0,
22,24,0,107,18,1,
22,25,1,107,17,1,
22,25,1,107,18,1,
22,24,1,106,18,1,
22,24,1,105,17,1,
22,24,1,105,18,1,
22,24,1,104,18,1,
22,24,1,103,17,0,
23,24,0,103,17,1,
22,24,1,103,18,1,
22,24,0,103,18,1,
22,24,1,102,17,1,
23,24,0,101,17,0,
22,23,1,101,17,1,
22,23,1,101,17,0,
22,23,1,100,16,0,
22,22,0,100,17,0,
21,23,1,99,16,1,
21,23,1,99,17,1,
22,22,0,98,16,1,
21,23,1,98,16,0,
21,22,1,98,16,0,
21,22,0,97,16,1,
21,22,1,97,16,1,
21,22,1,97,15,1,
20,22,1,96,16,0,
20,22,1,96,15,1,
21,22,0,95,15,1,
20,21,0,95,15,0,
20,21,0,95,15,1,
20,22,1,94,15,0,
20,22,1,94,15,0,
20,21,1,93,15,1,
19,21,1,93,15,1,
19,21,1,93,15,1,
19,20,1,93,15,1,
19,21,0,92,15,1,
19,20,1,92,15,0,
19,20,1,91,15,1,
19,20,1,90,15,1,
19,20,1,90,14,1,
19,19,1,89,14,1,
18,19,0,89,15,1,
19,20,1,89,14,1,
19,20,0,89,14,0,
18,19,1,88,19,1,
19,19,0,88,18,1,
18,19,1,88,18,1,
18,19,1,88,19,1,
18,19,0,87,18,1,
19,19,1,86,18,1,
18,19,1,86,18,1,
18,19,0,86,18,0,
18,19,1,85,18,1,
18,19,1,85,18,1,
18,19,0,85,18,1,
17,19,1,85,17,1,
17,19,1,84,17,0,
17,18,0,83,18,1,
18,18,0,83,17,1,
18,19,1,83,17,1,
17,19,0,82,17,0,
17,19,1,82,17,1,
17,19,1,82,17,1,
17,19,1,82,16,0,
17,19,1,81,17,1,
18,19,1,81,16,1,
18,19,1,81,16,1,
18,18,1,80,16,1,
18,19,0,80,16,1,
18,19,1,79,16,1,
18,19,0,79,16,1,
21,39,1,79,17,1,
24,47,1,79,16,1,
24,47,1,79,15,1,
24,46,0,78,15,1,
25,46,0,78,15,1,
24,46,1,78,15,0,
24,45,1,77,16,0,
24,45,1,77,15,1,
24,45,1,76,15,0,
24,45,0,77,15,1,
28,45,1,76,15,1,
28,45,1,76,15,0,
28,44,1,75,15,1,
28,44,0,75,15,1,
28,44,1,75,14,0,
27,43,1,75,15,0,
27,43,1,74,14,1,
27,43,1,74,14,1,
27,43,1,73,15,1,
27,43,0,73,14,0,
26,43,1,73,14,1,
26,43,1,73,14,0,
26,42,0,72,14,1,
26,41,1,71,14,1,
25,42,1,71,14,1,
25,42,1,71,13,0,
26,41,1,71,13,1,
25,41,1,71,14,1,
25,41,1,71,13,1,
25,41,1,70,14,1,
25,41,1,70,14,1,
25,41,0,70,14,1,
25,39,0,70,13,1,
24,39,1,69,13,1,
24,39,1,69,13,0,
24,39,1,69,13,1,
25,39,0,68,13,1,
24,39,1,68,13,1,
24,39,1,68,13,1,
24,38,0,67,16,1,
24,39,1,67,19,1,
24,38,1,67,18,1,
24,38,0,67,18,1,
24,38,0,66,19,1,
24,38,1,66,18,0,
23,37,0,66,18,0,
23,37,1,66,18,1,
23,37,1,65,18,0,
23,37,1,65,17,0,
23,36,0,65,18,1,
23,37,1,65,18,1,
24,37,0,65,21,1,
24,36,1,78,29,1,
24,36,0,78,30,1,
24,36,1,78,30,1,
24,35,0,77,30,1,
24,35,1,77,29,1,
24,35,1,77,29,1,
24,35,1,76,29,0,
24,34,0,76,29,1,
24,35,1,76,29,1,
24,35,1,76,28,1,
23,34,1,75,29,1,
23,34,0,74,28,1,
23,34,1,74,28,0,
23,34,0,73,28,0,
23,33,1,73,27,0,
22,34,1,73,28,0,
22,33,1,73,28,1,
22,33,1,73,27,1,
22,33,1,71,27,1,
22,33,1,71,27,1,
22,32,0,71,26,1,
22,33,1,71,27,0,
22,32,1,71,26,0,
22,32,0,71,26,1,
22,31,0,71,26,0,
22,32,1,71,25,0,
21,31,1,70,26,1,
21,31,1,69,25,1,
21,31,1,69,25,1,
21,31,1,69,25,0,
20,31,1,68,25,1,
20,31,1,68,25,1,
21,31,1,68,25,1,
20,30,1,67,25,1,
20,30,0,67,25,1,
20,31,1,67,25,0,
19,31,1,67,24,1,
20,30,1,66,24,1,
19,29,1,66,24,1,
20,30,1,66,24,0,
19,29,1,65,24,0,
19,30,1,65,24,0,
19,29,1,65,24,0,
19,29,1,65,24,1,
19,29,1,64,24,1,
19,29,0,64,24,0,
19,28,0,64,23,1,
19,29,1,63,24,1,
19,28,1,63,24,1,
19,28,0,63,23,0,
19,28,0,63,25,1,
19,28,1,93,47,1,
19,28,0,92,47,1,
19,28,0,91,47,1,
19,27,0,91,46,1,
18,28,0,90,46,1,
18,27,1,90,46,1,
18,27,0,89,46,1,
18,27,1,89,45,1,
18,27,1,88,45,1,
18,26,1,88,45,0,
18,26,1,88,45,0,
18,26,1,88,44,1,
17,26,1,87,44,1,
18,25,1,87,44,1,
21,26,1,87,44,0,
22,26,1,86,44,1,
22,26,1,86,43,0,
22,25,1,85,43,1,
22,25,1,85,43,0,
22,25,1,84,43,1,
21,25,1,83,42,1,
22,25,1,83,42,1,
21,25,0,83,42,1,
22,25,1,83,42,1,
21,25,1,83,41,1,
21,25,1,82,41,1,
20,25,1,82,41,1,
21,24,1,81,41,1,
21,24,1,81,41,1,
21,24,1,80,41,0,
21,24,1,80,39,1,
20,24,0,79,39,1,
20,24,1,79,39,1,
20,24,1,79,39,1,
20,24,1,79,39,1,
20,24,1,78,39,0,
19,24,1,78,39,1,
20,24,1,78,39,0,
19,24,1,78,39,1,
31,23,0,77,38,1,
33,24,0,77,39,1,
33,23,1,77,39,1,
33,23,0,77,38,1,
32,23,1,76,39,1,
32,22,1,76,38,1,
32,22,1,75,38,1,
31,23,1,76,38,1,
31,22,1,75,37,1,
31,22,0,75,37,1,
31,22,1,75,37,1,
31,21,1,73,37,0,
31,22,1,74,37,1,
30,22,1,73,36,0,
31,22,1,73,37,1,
31,21,1,71,37,0,
31,22,0,71,35,1,
31,26,0,71,36,1,
31,26,1,71,36,1,
31,25,1,71,35,1,
31,25,1,71,35,1,
31,25,0,71,35,1,
30,25,0,70,35,1,
31,25,0,70,34,1,
30,25,1,70,34,0,
30,25,1,70,34,1,
30,25,1,70,34,1,
30,24,1,69,34,1,
30,24,1,69,34,1,
29,25,1,68,34,1,
29,24,1,68,33,1,
29,24,1,68,33,1,
29,24,1,67,34,1,
29,24,1,67,33,1,
29,24,1,67,32,1,
28,24,1,67,33,1,
28,23,1,67,33,1,
28,24,1,66,32,1,
28,23,0,66,33,0,
28,23,1,66,32,1,
27,23,1,66,31,0,
27,23,1,65,31,0,
27,22,1,65,31,1,
27,22,0,64,31,1,
27,23,1,63,31,0,
27,22,1,63,31,1,
27,22,0,63,31,1,
27,23,1,63,31,0,
26,22,1,63,31,0,
26,22,0,63,31,1,
26,22,0,62,30,1,
26,21,0,62,30,1,
26,21,1,62,30,1,
26,21,1,62,30,1,
26,21,0,61,30,1,
26,21,0,61,29,1,
25,21,1,61,30,1,
25,21,1,61,29,0,
25,21,1,61,29,0,
25,20,1,61,29,1,
25,20,0,60,28,1,
25,20,0,60,29,0,
25,20,0,60,28,1,
25,20,1,59,28,0,
24,20,1,59,28,0,
25,19,1,59,28,1,
24,20,1,59,28,0,
24,20,1,58,28,1,
25,20,1,58,28,0,
24,19,0,58,28,1,
24,19,0,57,27,1,
24,19,1,57,27,1,
24,19,1,57,27,1,
24,19,0,57,27,1,
23,19,0,57,27,1,
24,19,1,56,27,1,
24,19,1,56,26,0,
24,19,0,56,26,0,
23,19,1,56,26,1,
23,18,1,56,26,1,
23,18,1,56,26,1,
23,18,1,55,26,1,
23,18,1,55,25,1,
22,18,1,54,25,1,
22,18,1,54,25,1,
22,18,1,54,25,1,
22,18,1,54,25,1,
22,18,1,53,25,0,
22,18,1,54,25,0,
22,17,1,53,25,1,
21,17,1,53,25,1,
22,17,1,53,25,0,
21,17,1,52,24,1,
22,17,0,52,24,1,
21,19,1,52,26,1,
21,18,1,52,26,0,
21,18,0,51,26,0,
21,18,1,51,26,1,
21,18,0,51,26,1,
21,18,0,51,26,1,
20,17,1,51,26,1,
21,18,1,51,25,1,
20,18,1,50,25,1,
20,17,0,50,25,1,
21,17,0,50,25,1,
19,17,1,50,25,1,
20,17,1,49,29,1,
20,17,1,50,29,1,
20,17,1,49,29,1,
19,17,1,49,29,1,
20,17,0,49,29,0,
19,18,1,49,29,1,
19,17,1,49,29,0,
19,17,1,48,28,1,
19,17,1,48,28,1,
19,17,1,48,28,0,
19,17,1,48,28,0,
19,16,1,47,28,1,
19,17,1,47,27,0,
20,16,1,47,28,0,
20,16,0,47,27,1,
19,17,1,46,27,0,
19,16,0,46,26,0,
19,16,1,46,27,1,
19,16,1,46,26,1,
19,16,1,46,26,1,
19,16,0,45,26,1,
19,16,1,45,26,1,
19,15,1,45,26,1,
18,15,1,45,26,0,
19,15,0,49,26,1,
19,15,1,58,25,0,
19,15,0,58,25,1,
19,15,0,57,25,1,
19,15,1,58,25,0,
19,15,1,57,25,1,
19,15,0,57,25,1,
19,15,1,56,25,1,
19,15,1,56,24,1,
18,15,1,56,24,1,
18,15,1,56,24,1,
18,15,0,55,24,1,
18,14,0,55,24,0,
18,14,1,55,24,1,
18,15,1,55,24,0,
18,14,1,54,24,1,
18,14,1,54,24,1,
18,14,1,54,24,0,
17,15,1,53,23,0,
17,14,1,54,23,1,
18,14,1,53,23,1,
17,14,1,53,23,1,
17,14,1,52,23,1,
17,14,1,53,23,1,
17,14,1,52,22,0,
17,14,1,52,23,0,
16,14,1,52,23,1,
21,14,1,51,22,1,
21,13,0,51,22,1,
20,13,1,50,22,0,
20,13,1,51,22,1,
20,13,1,50,21,1,
19,13,1,50,21,1,
19,13,1,50,22,1,
19,14,1,49,21,1,
19,13,1,50,22,1,
19,13,1,49,21,1,
19,13,1,49,21,0,
19,13,1,48,21,1,
19,13,1,49,21,1,
19,13,0,48,21,0,
19,13,1,48,20,0,
19,12,1,48,21,1,
19,13,1,48,20,1,
18,13,1,48,20,0,
18,13,1,47,20,0,
18,13,1,47,20,1,
18,12,1,47,19,1,
18,12,0,46,19,1,
18,12,1,46,19,1,
17,12,0,46,19,1,
18,12,0,46,19,1,
18,12,1,46,19,1,
17,12,0,45,19,1,
18,13,1,45,19,1,
18,12,1,45,19,1,
18,12,0,46,20,0,
18,12,1,45,19,1,
18,12,1,45,19,1,
17,13,1,44,19,0,
18,12,0,44,19,1,
18,12,1,44,19,1,
17,12,1,44,19,1,
17,12,1,43,19,0,
17,12,0,43,18,0,
17,12,1,43,18,0,
16,12,1,44,18,1,
17,12,0,43,19,1,
17,12,1,43,18,1,
17,12,1,43,18,1,
16,12,1,43,18,1,
17,12,0,42,18,0,
16,11,1,42,18,1,
17,12,1,41,17,0,
16,11,1,41,17,1,
16,11,1,41,17,1,
15,11,1,41,17,0,
16,11,0,41,17,1,
16,11,0,41,17,1,
15,11,0,41,17,1,
17,11,0,41,17,1,
17,11,1,41,17,1,
17,11,1,39,17,1,
17,11,1,39,16,1,
17,11,0,39,16,1,
16,11,1,39,16,0,
17,10,1,39,17,1,
17,10,0,39,16,1,
16,11,1,39,16,1,
16,11,1,39,16,1,
16,10,0,39,16,1,
16,10,1,39,15,0,
16,9,1,39,15,1,
15,10,0,38,15,1,
15,9,1,38,16,1,
15,10,0,38,16,0,
15,11,0,38,15,1,
15,11,1,38,15,1,
16,11,0,37,15,1,
15,11,1,38,15,0,
15,10,1,37,15,0,
15,11,1,37,15,1,
15,10,1,37,15,1,
15,10,0,37,15,1,
15,10,1,36,15,1,
15,10,1,39,17,0,
15,9,0,39,17,1,
17,10,0,39,25,1,
17,10,1,39,25,0,
17,11,0,39,24,1,
17,11,1,39,24,0,
17,11,1,39,24,1,
17,10,1,39,24,1,
16,11,1,38,24,0,
16,10,1,38,24,1,
16,11,1,38,24,1,
16,10,0,38,24,1,
17,10,0,37,23,1,
16,10,1,37,23,0,
18,10,1,37,22,0,
21,10,0,37,23,0,
21,10,1,37,23,1,
21,11,1,37,22,1,
21,11,0,37,22,1,
21,11,0,36,22,1,
21,11,1,36,23,1,
20,11,1,35,22,1,
20,11,1,36,22,1,
21,11,1,35,22,1,
20,11,0,35,21,1,
20,11,0,35,21,1,
19,10,1,35,21,1,
20,10,0,35,21,1,
20,11,1,35,21,1,
20,11,1,35,21,0,
19,11,0,35,21,0,
19,11,1,34,21,0,
20,11,1,34,20,1,
19,10,0,34,20,1,
19,10,0,34,20,0,
19,10,0,33,19,0,
19,10,1,33,20,0,
19,10,0,33,20,1,
19,10,0,33,19,1,
19,10,1,33,19,1,
18,10,1,33,19,1,
19,10,1,33,19,0,
19,10,1,33,19,0,
18,9,1,32,19,0,
18,10,0,32,19,1,
18,9,1,32,19,1,
18,9,1,32,19,1,
18,9,0,31,18,1,
18,10,0,31,19,0,
17,9,1,31,18,1,
18,9,0,31,19,0,
17,9,0,31,19,0,
18,9,1,31,18,0,
17,9,1,31,18,0,
17,9,0,31,18,1,
17,9,1,31,18,1,
18,26,1,31,18,0,
17,47,1,31,18,1,
17,46,1,31,17,0,
18,45,1,31,18,1,
17,45,0,31,17,1,
17,45,1,31,17,1,
17,45,1,31,17,1,
17,45,1,30,17,1,
16,44,0,30,17,1,
16,44,1,30,17,1,
16,44,1,30,17,0,
17,44,0,29,17,1,
17,43,1,30,16,0,
16,43,1,29,16,0,
16,43,0,30,16,1,
16,42,1,29,16,1,
17,42,1,29,16,0,
16,42,1,29,16,0,
16,41,1,29,16,0,
16,41,0,29,15,0,
16,41,1,28,15,0,
16,41,1,28,15,1,
16,41,1,28,15,0,
15,41,1,28,15,0,
16,41,0,28,15,1,
16,39,1,28,16,0,
16,39,1,28,15,1,
16,39,0,28,15,1,
16,39,1,28,15,1,
16,39,1,28,15,0,
16,39,1,28,15,0,
15,39,1,27,15,1,
16,39,1,27,15,1,
15,38,1,27,15,1,
16,38,0,27,15,1,
15,39,1,27,15,1,
15,38,1,27,15,1,
15,38,0,26,15,1,
15,38,1,26,15,1,
15,37,1,27,14,1,
15,37,1,26,14,0,
15,37,0,26,15,1,
15,36,0,26,14,1,
15,37,1,26,15,0,
14,37,0,25,14,1,
15,36,1,26,14,1,
14,36,1,25,14,0,
15,35,0,25,14,1,
14,35,1,25,14,1,
14,36,1,25,14,1,
14,35,1,25,14,1,
14,35,1,27,14,0,
14,35,1,27,14,0,
14,35,1,26,13,1,
14,34,1,26,14,1,
14,35,1,26,13,1,
14,35,1,26,13,1,
13,34,1,26,13,1,
14,34,1,25,13,0,
13,34,1,25,13,0,
13,33,0,25,13,1,
13,33,1,25,13,1,
13,33,1,25,13,0,
15,33,0,25,13,1,
15,33,0,25,13,1,
15,33,1,25,13,0,
15,33,0,25,13,1,
15,32,0,24,13,1,
15,32,1,25,13,0,
15,32,1,24,13,1,
14,31,1,24,12,0,
15,31,1,24,12,1,
14,31,1,24,13,1,
14,31,1,24,12,1,
14,31,1,24,13,1,
14,31,1,24,12,0,
14,31,1,24,12,0,
14,31,1,27,12,1,
14,31,1,28,12,1,
14,30,0,27,12,1,
14,30,0,27,12,1,
14,30,1,27,12,1,
14,30,1,27,12,0,
13,30,1,26,12,1,
14,30,0,25,11,1,
13,30,1,26,11,1,
13,30,0,26,12,0,
13,29,1,25,11,1,
13,29,1,26,11,1,
13,29,1,26,11,1,
14,29,0,25,11,1,
13,29,0,25,12,1,
17,30,1,25,12,0,
17,37,1,25,12,1,
17,37,0,25,12,1,
17,37,1,24,12,1,
17,36,0,24,11,1,
17,37,1,24,12,1,
17,36,1,24,12,1,
17,35,0,24,12,1,
16,35,1,24,12,0,
16,35,1,24,12,0,
25,35,1,24,11,1,
28,35,1,24,12,1,
29,35,0,24,12,1,
29,35,1,24,12,1,
28,35,1,24,12,1,
28,34,0,23,12,0,
28,34,1,24,12,1,
28,34,0,23,12,1,
28,34,0,23,12,1,
28,34,1,23,11,1,
27,33,1,23,12,1,
27,33,1,22,11,1,
27,33,0,22,11,1,
27,33,1,23,11,0,
27,33,0,22,11,1,
27,33,0,22,12,1,
26,32,1,23,11,1,
26,31,1,22,11,1,
26,32,0,22,11,1,
26,31,1,22,10,1,
25,32,1,22,10,0,
25,31,1,21,11,1,
25,31,1,22,11,1,
25,31,1,21,11,1,
26,31,0,21,11,1,
25,31,1,21,15,1,
25,31,1,37,18,1,
30,31,1,37,16,0,
31,31,0,37,16,1,
30,31,1,37,16,1,
30,31,0,36,16,1,
30,31,1,36,16,1,
29,31,1,36,16,1,
30,31,1,35,16,1,
29,31,0,35,16,1,
29,31,1,35,15,1,
29,31,1,35,15,0,
29,30,0,35,16,1,
28,30,0,35,16,1,
28,30,1,35,15,1,
28,30,0,35,62,1,
28,30,1,35,74,1,
28,30,1,35,73,1,
27,30,1,35,73,1,
28,29,0,35,73,1,
28,29,1,35,71,1,
28,29,1,35,71,1,
27,29,1,34,71,1,
27,29,1,34,71,1,
27,29,1,34,70,1,
27,28,1,34,70,1,
27,28,0,34,70,1,
26,28,1,34,70,0,
27,28,1,34,69,1,
37,28,1,34,69,1,
37,30,1,33,69,1,
37,31,1,33,68,0,
36,31,0,33,68,1,
36,31,1,33,67,1,
35,31,0,33,67,0,
35,31,0,32,67,0,
35,31,1,32,67,1,
35,30,1,32,66,1,
35,30,1,33,66,0,
35,30,1,32,66,1,
34,30,1,31,66,1,
34,30,1,31,65,0,
34,30,1,31,65,1,
34,44,1,31,64,1,
34,44,1,31,65,0,
34,43,1,31,64,1,
33,43,1,31,63,1,
33,42,1,30,63,0,
33,43,1,31,63,0,
33,42,1,31,63,1,
33,42,1,30,63,0,
32,42,1,30,62,1,
32,41,0,30,62,1,
32,41,1,30,61,0,
31,41,0,30,61,0,
32,41,1,30,61,1,
32,41,0,30,61,1,
31,40,1,29,60,1,
31,39,1,29,60,1,
31,39,0,29,60,1,
31,39,1,29,60,1,
31,39,1,28,60,1,
31,39,1,28,59,1,
31,39,1,28,59,0,
30,39,1,28,59,0,
31,39,1,28,59,1,
30,38,1,28,58,1,
30,38,1,28,57,0,
30,38,1,28,57,1,
30,38,0,27,57,1,
31,38,1,27,57,1,
31,38,0,27,57,1,
30,39,1,27,56,1,
30,39,1,27,56,1,
30,38,1,27,56,1,
30,37,1,27,56,1,
30,37,1,26,56,1,
29,38,0,26,56,0,
29,37,1,27,55,1,
29,37,1,34,55,1,
29,37,1,34,55,1,
29,36,1,33,54,1,
29,36,0,33,54,0,
29,36,1,33,54,1,
29,36,1,33,54,1,
28,35,1,33,53,0,
29,35,0,32,53,0,
28,35,0,32,52,1,
28,35,1,32,52,1,
28,35,1,31,52,0,
28,35,1,31,51,1,
27,34,0,31,51,1,
27,35,1,31,51,1,
27,35,1,32,51,1,
41,39,0,32,51,1,
41,39,1,32,51,0,
41,38,1,31,50,1,
41,38,1,31,50,0,
40,38,1,31,50,1,
39,38,1,31,50,1,
39,38,1,31,50,1,
39,37,0,31,50,1,
39,37,0,31,49,1,
39,37,1,31,49,0,
39,37,1,31,49,1,
39,36,1,31,49,1,
41,36,0,30,48,1,
51,39,1,30,48,1,
51,39,1,30,48,0,
50,39,0,30,48,1,
50,39,1,30,48,1,
49,38,1,29,47,1,
49,39,1,29,51,1,
49,38,1,29,52,1,
49,38,1,29,52,1,
49,37,0,29,52,1,
48,37,0,29,51,1,
48,37,0,29,51,0,
48,37,1,28,51,1,
48,37,0,28,50,1,
47,37,1,51,51,1,
50,36,1,51,51,1,
50,36,1,51,51,1,
50,36,1,50,50,0,
49,35,1,50,50,1,
48,35,1,49,50,1,
49,35,1,49,50,0,
48,35,1,49,50,1,
48,35,0,48,50,1,
48,35,1,48,49,1,
47,35,1,48,49,0,
47,34,1,48,49,1,
48,34,1,48,67,1,
49,34,1,71,67,1,
49,34,1,71,67,0,
49,34,1,70,67,0,
49,34,1,70,66,1,
48,33,0,70,66,1,
48,34,0,69,65,1,
48,33,1,69,65,1,
48,33,1,68,64,1,
47,33,1,68,64,1,
47,32,0,68,63,1,
47,33,0,67,63,1,
47,33,1,67,63,0,
46,32,1,67,63,1,
46,32,1,66,63,1,
46,32,1,66,64,1,
79,42,1,66,63,1,
97,97,1,65,63,1,
96,96,1,65,63,1,
96,95,1,65,63,1,
95,94,1,65,63,1,
95,93,0,64,62,1,
94,93,1,64,62,1,
93,93,0,63,61,1,
93,92,1,63,61,1,
93,92,1,63,61,1,
98,92,1,63,61,1,
98,91,1,63,60,1,
149,92,1,62,60,1,
147,92,1,62,60,1,
147,91,1,62,60,1,
146,90,0,61,59,1,
145,90,1,61,59,1,
143,89,1,61,59,1,
143,89,1,60,59,1,
143,89,1,61,59,1,
142,88,1,60,59,1,
141,88,1,60,58,1,
141,88,0,60,58,1,
140,87,1,59,57,1,
139,87,1,59,57,1,
139,86,1,59,57,1,
138,86,1,58,57,0,
137,85,1,58,56,1,
135,85,1,57,56,1,
135,85,0,57,56,1,
135,83,0,57,56,1,
135,84,1,57,55,0,
134,83,1,56,55,0,
133,83,1,57,58,1,
133,82,0,56,63,1,
132,82,1,56,62,1,
131,82,1,56,62,1,
131,81,1,56,61,0,
130,81,1,56,62,1,
129,81,1,55,61,1,
129,80,1,55,61,1,
128,79,1,54,60,1,
127,79,1,54,60,1,
127,79,1,54,60,1,
127,79,1,54,59,1,
126,78,1,53,59,1,
125,78,1,53,59,1,
125,78,0,52,99,1,
124,77,1,52,98,1,
124,77,1,52,97,1,
124,76,1,51,97,1,
123,76,1,51,96,1,
122,76,1,51,96,1,
122,76,0,51,95,1,
121,76,1,51,95,1,
121,74,0,51,94,1,
120,75,1,50,93,1,
120,74,1,51,93,1,
120,74,1,50,93,1,
119,82,1,50,92,1,
187,161,1,50,92,1,
184,159,1,50,91,1,
183,159,1,49,90,0,
182,158,0,49,105,1,
180,156,1,48,116,1,
179,155,1,49,115,1,
179,155,1,48,115,1,
177,153,1,48,114,0,
176,153,1,48,113,1,
175,152,1,48,112,1,
174,152,1,47,112,1,
174,151,1,102,149,1,
173,149,1,102,147,1,
172,148,1,101,146,1,
170,180,1,100,145,1,
169,178,1,99,145,1,
169,177,1,99,143,1,
167,176,1,98,143,0,
167,175,1,98,142,0,
167,174,0,97,142,0,
169,173,1,96,141,1,
167,172,1,96,140,1,
167,172,1,96,140,1,
167,170,1,95,139,1,
166,169,1,94,137,1,
165,169,1,94,137,1,
164,167,1,93,135,1,
163,167,1,93,135,1,
163,166,1,93,135,0,
162,165,1,92,134,0,
160,163,1,92,134,1,
160,163,1,91,133,1,
159,162,1,91,132,1,
159,161,1,90,131,1,
158,161,1,89,131,1,
157,159,1,89,130,1,
156,159,1,89,130,1,
155,158,1,89,169,1,
155,157,0,88,167,1,
154,157,0,88,166,1,
153,156,1,88,165,1,
152,155,0,87,164,1,
152,154,1,86,163,1,
151,153,1,86,163,1,
150,153,1,85,162,1,
149,152,1,85,160,1,
149,152,1,85,160,1,
148,150,1,84,159,1,
147,150,1,83,158,1,
146,149,1,83,158,1,
146,147,1,83,157,1,
145,147,1,82,179,1,
144,147,1,82,178,0,
143,146,0,81,176,1,
143,145,0,81,175,1,
142,145,1,81,174,1,
142,143,0,80,173,1,
149,143,1,80,172,0,
166,143,0,79,171,1,
166,142,1,79,171,0,
165,142,1,79,169,0,
163,140,1,78,167,1,
163,140,1,78,167,1,
162,140,1,77,167,1,
162,139,1,78,166,1,
160,138,1,77,165,1,
159,137,1,76,163,1,
159,135,1,76,163,1,
158,135,1,76,163,1,
157,135,0,75,161,1,
156,135,1,75,161,1,
156,134,1,75,160,1,
154,133,1,74,159,1,
154,132,1,73,158,1,
153,132,1,73,157,1,
152,132,0,73,157,1,
152,131,1,71,156,1,
151,130,1,71,156,1,
150,129,1,74,155,1,
149,129,1,81,154,1,
148,128,1,79,153,1,
147,127,1,79,152,0,
147,127,1,78,152,1,
146,126,1,79,150,1,
145,126,1,78,150,1,
145,125,1,78,150,1,
143,124,1,77,149,1,
143,124,0,77,148,1,
143,124,1,76,147,1,
142,123,1,76,181,1,
141,122,1,76,179,1,
141,121,1,75,178,1,
141,121,1,75,178,1,
140,120,0,74,176,1,
139,120,1,74,176,1,
139,119,1,73,175,1,
137,119,1,73,174,1,
137,118,1,73,172,0,
135,118,1,71,172,1,
135,117,1,71,171,1,
135,116,1,71,169,0,
135,115,1,71,169,1,
134,115,1,71,167,1,
133,115,0,71,167,1,
133,114,0,71,166,1,
132,114,1,70,165,1,
131,113,1,70,164,1,
131,113,1,70,163,1,
131,112,1,69,163,1,
130,112,1,69,162,1,
129,111,1,69,161,1,
129,111,1,68,161,1,
127,110,1,69,159,1,
127,109,1,70,158,1,
172,115,1,69,158,1,
171,169,1,69,157,1,
169,169,1,69,157,1,
169,167,1,68,156,1,
167,166,1,67,154,1,
167,166,1,67,154,1,
166,163,1,67,153,1,
165,163,1,67,153,1,
163,163,1,66,152,1,
163,162,1,66,151,1,
162,161,0,66,150,1,
161,159,0,65,149,1,
159,159,0,65,148,1,
159,158,1,65,147,1,
159,158,1,65,147,1,
158,157,1,64,147,0,
157,155,1,63,145,1,
157,155,1,63,145,1,
156,154,0,63,145,1,
155,153,1,63,143,1,
154,152,1,63,143,0,
153,152,1,63,142,1,
152,152,1,62,141,1,
152,150,1,62,141,1,
151,150,1,62,140,1,
150,149,1,61,139,1,
149,147,1,61,139,1,
149,147,1,60,138,1,
148,146,1,60,137,1,
147,146,1,60,137,1,
147,145,1,60,135,1,
146,143,1,60,135,1,
150,143,1,63,135,1,
201,142,1,63,134,1,
199,142,1,62,133,0,
199,141,1,62,133,1,
198,141,0,62,132,1,
196,140,1,61,131,0,
195,139,1,62,131,1,
193,139,1,61,131,1,
193,138,1,60,130,0,
192,137,1,60,129,0,
190,136,1,60,128,1,
190,135,1,61,130,1,
189,135,1,92,129,1,
188,135,1,92,129,1,
187,134,1,92,127,1,
186,133,1,91,127,0,
185,133,1,90,126,0,
184,131,0,90,126,1,
183,131,1,89,126,1,
182,131,1,89,125,0,
181,130,1,88,124,1,
180,129,0,88,124,1,
179,148,1,116,126,1,
178,195,1,115,125,1,
177,193,1,114,124,1,
176,192,1,113,124,1,
176,191,1,112,123,1,
175,189,1,112,122,1,
173,188,1,112,121,1,
173,187,0,111,121,1,
172,186,1,110,120,1,
171,185,1,110,121,1,
170,184,1,109,120,1,
169,184,0,108,120,0,
167,182,1,108,120,1,
167,181,0,107,119,1,
166,180,1,107,118,1,
166,179,1,107,118,0,
165,178,1,105,117,1,
163,177,1,105,116,1,
163,176,1,104,115,1,
214,176,1,103,115,1,
326,240,1,103,115,1,
321,287,1,103,114,1,
319,285,1,103,113,1,
316,283,1,102,113,0,
314,280,1,102,113,1,
312,279,1,101,112,0,
310,277,1,100,112,1,
308,275,1,99,111,1,
306,274,1,99,110,1,
304,271,1,99,110,1,
303,271,1,98,110,1,
301,270,1,98,109,1,
300,268,1,97,109,1,
319,267,1,97,108,0,
317,265,1,96,108,1,
315,263,1,96,107,1,
313,262,1,96,106,1,
312,261,1,95,106,1,
309,259,1,94,105,1,
307,257,1,94,105,1,
305,257,1,94,105,1,
304,255,1,93,103,1,
302,254,1,93,118,1,
300,252,1,93,117,1,
299,251,1,92,116,1,
297,249,1,91,115,1,
295,248,1,91,115,1,
294,248,2,125,114,1,
292,246,1,124,114,1,
290,244,2,123,113,1,
289,243,1,122,112,1,
287,242,2,121,112,1,
286,240,1,121,112,1,
284,239,1,121,110,1,
283,238,1,120,110,1,
281,237,2,119,109,1,
280,236,2,118,109,1,
278,234,2,118,108,1,
276,233,1,117,107,2,
275,231,2,117,108,2,
274,231,1,115,107,2,
271,230,1,115,106,2,
270,228,2,115,145,1,
270,227,1,114,166,2,
268,226,1,113,165,1,
266,225,2,112,163,2,
265,223,2,112,163,2,
263,222,2,111,162,2,
263,221,2,111,161,2,
260,302,2,110,159,2,
259,300,2,110,159,2,
258,297,2,109,158,2,
257,295,2,109,157,2,
255,294,3,108,156,2,
254,291,2,108,155,2,
253,289,2,107,154,2,
251,287,2,106,154,2,
249,287,2,105,192,3,
249,285,2,105,190,3,
248,283,3,105,188,3,
246,281,2,103,187,2,
245,280,2,103,186,2,
243,278,2,103,185,3,
242,276,2,102,184,2,
241,275,2,102,183,3,
240,274,2,101,183,3,
238,271,2,101,182,3,
238,270,2,100,180,2,
236,269,2,99,179,2,
235,268,2,99,179,2,
233,266,2,99,178,2,
233,265,2,98,177,3,
231,263,3,98,176,2,
231,262,3,97,175,2,
229,260,2,97,174,2,
229,259,3,97,173,2,
227,258,2,96,172,3,
226,255,2,96,172,2,
225,275,3,96,171,2,
236,304,2,95,170,2,
294,301,3,94,169,2,
291,300,2,94,167,2,
290,297,3,94,167,3,
287,295,2,93,166,2,
287,294,2,92,165,2,
285,292,3,92,165,3,
284,291,2,92,163,3,
282,289,2,91,163,3,
280,287,3,91,162,3,
279,286,2,91,161,2,
278,285,2,89,161,2,
275,283,3,89,159,2,
275,281,3,89,159,2,
273,280,2,89,158,2,
271,278,3,88,157,2,
270,277,3,88,157,2,
268,275,2,88,156,2,
267,274,3,88,155,3,
265,272,3,87,155,3,
263,271,3,86,153,2,
263,269,3,86,153,3,
262,268,3,85,152,2,
259,267,2,85,152,3,
259,347,3,85,151,2,
257,398,2,84,150,3,
255,395,2,84,149,2,
255,391,3,83,148,3,
253,390,2,83,147,2,
252,387,3,83,147,3,
251,385,3,82,146,3,
273,382,3,81,145,3,
271,379,3,81,145,3,
269,377,3,81,143,3,
268,375,3,81,143,3,
266,373,3,80,143,3,
265,371,3,79,143,3,
263,368,3,79,141,3,
262,366,3,79,141,3,
260,364,3,79,140,3,
259,362,3,78,140,3,
257,359,3,78,139,3,
255,357,3,77,139,3,
255,355,3,77,137,3,
253,353,3,77,137,3,
252,352,3,77,135,2,
251,349,3,76,135,2,
249,348,3,76,135,3,
248,346,3,76,134,3,
247,344,3,76,134,3,
246,342,3,75,133,3,
244,340,3,75,132,2,
243,338,2,75,132,3,
242,335,2,73,131,3,
241,334,2,73,131,3,
239,333,3,73,130,3,
238,331,2,73,129,3,
237,329,3,71,128,3,
236,327,3,71,127,2,
235,325,2,71,134,3,
233,323,3,71,133,3,
231,322,2,71,133,2,
231,319,2,71,132,2,
231,318,3,70,131,3,
229,317,2,70,131,2,
227,316,3,70,130,3,
227,313,2,69,130,2,
226,312,2,69,128,2,
225,310,2,68,127,3,
224,308,2,68,127,3,
222,307,2,67,127,2,
222,306,2,67,126,2,
220,304,2,67,125,2,
220,302,2,67,125,2,
218,301,2,67,124,2,
217,299,2,66,124,2,
217,298,2,66,124,2,
216,295,2,65,122,2,
214,295,2,65,123,2,
213,293,3,65,121,2,
212,292,2,65,121,2,
211,290,2,65,120,2,
210,289,2,64,120,2,
209,287,2,63,120,2,
207,286,2,63,119,2,
207,285,2,63,118,2,
206,284,2,63,118,2,
205,282,2,63,117,2,
205,280,2,62,116,2,
204,279,2,62,115,3,
203,278,2,62,115,3,
201,276,2,61,115,2,
201,275,2,61,115,2,
199,273,2,61,114,2,
199,272,2,60,114,2,
198,271,2,61,113,2,
197,270,2,60,112,2,
196,268,2,60,112,2,
195,267,2,60,111,2,
195,265,2,59,111,2,
194,263,2,59,110,2,
193,263,2,59,110,2,
192,262,2,58,109,2,
191,261,2,58,108,2,
190,259,2,57,108,2,
189,258,2,57,108,2,
188,257,2,57,107,2,
187,255,1,57,107,2,
187,254,2,56,106,2,
186,253,2,56,106,2,
184,252,2,56,105,2,
184,251,3,59,105,2,
204,297,2,59,103,2,
237,317,2,58,103,2,
274,364,2,58,103,2,
271,361,1,57,103,2,
270,358,2,57,103,2,
268,355,2,57,102,2,
267,353,2,57,102,2,
265,352,2,57,101,2,
263,350,1,57,101,2,
263,347,2,57,100,2,
261,345,1,56,99,2,
259,344,2,56,99,1,
259,341,1,56,99,2,
257,339,2,56,99,2,
255,338,2,56,98,2,
254,335,1,56,97,2,
253,334,1,55,97,1,
252,332,1,55,97,1,
251,330,2,54,96,2,
249,329,2,54,96,2,
248,327,2,54,139,1,
247,325,1,53,139,2,
245,323,1,53,137,2,
243,321,2,53,137,1,
243,319,2,53,135,1,
241,318,1,52,135,2,
240,316,1,51,135,1,
239,314,1,52,134,2,
238,313,2,51,133,2,
236,312,2,51,132,1,
235,309,2,51,131,2,
234,307,1,51,131,2,
231,306,2,50,130,1,
231,305,1,50,129,2,
231,303,1,50,129,1,
229,301,1,50,128,2,
228,300,1,49,127,1,
227,298,2,49,127,1,
226,295,1,49,126,1,
224,295,2,49,125,1,
224,294,2,49,125,1,
223,291,2,49,124,1,
222,290,1,48,124,2,
220,289,2,48,123,1,
219,287,2,48,123,2,
218,286,2,49,122,1,
217,284,1,49,121,1,
216,283,1,49,121,2,
216,282,1,48,120,1,
214,280,2,48,120,1,
213,280,1,48,119,1,
211,277,1,48,118,1,
211,275,1,48,117,1,
209,275,2,48,117,1,
208,273,1,47,116,1,
207,271,1,48,116,2,
207,271,2,93,115,1,
206,269,1,92,115,1,
205,268,1,92,114,1,
204,266,1,91,114,1,
203,265,2,90,113,2,
202,263,1,89,113,1,
201,263,2,89,112,1,
199,261,1,89,112,1,
199,259,1,88,111,1,
198,259,1,88,111,2,
197,257,2,88,111,2,
295,289,1,87,110,1,
292,286,2,86,109,1,
290,284,1,86,109,2,
289,283,1,85,108,1,
287,281,1,85,107,1,
285,280,1,85,107,1,
284,278,1,84,106,1,
282,277,1,83,106,1,
280,275,1,83,105,1,
279,273,1,83,105,1,
277,271,1,83,103,1,
275,270,1,82,103,1,
274,269,1,81,103,1,
273,267,1,81,103,1,
271,266,1,81,102,1,
269,263,1,80,102,1,
268,263,1,79,101,1,
267,262,1,79,100,1,
265,261,1,79,100,1,
263,259,1,79,100,1,
263,258,1,78,99,1,
261,255,2,78,99,1,
259,255,1,78,99,1,
259,254,1,77,98,1,
261,253,1,77,115,1,
259,252,2,76,115,1,
258,251,1,76,113,1,
257,249,1,76,113,1,
255,248,1,75,113,1,
254,247,2,75,112,2,
252,246,1,74,111,1,
251,244,1,74,111,1,
250,243,1,73,110,1,
249,242,1,73,110,1,
248,241,1,73,109,1,
246,240,1,71,108,1,
245,238,1,71,108,1,
243,238,1,71,107,1,
242,236,1,71,107,1,
241,235,1,71,106,1,
240,235,1,71,106,1,
239,233,1,71,105,1,
238,231,1,70,105,1,
236,231,1,70,103,1,
235,230,1,70,103,1,
234,229,1,70,103,1,
233,227,1,69,102,1,
231,227,1,69,102,1,
231,227,1,68,101,1,
230,225,1,67,101,1,
229,224,1,67,100,1,
227,223,1,67,100,1,
226,222,2,67,99,1,
225,221,2,67,99,1,
224,220,1,66,99,1,
223,219,1,69,98,1,
222,219,1,71,98,1,
221,217,1,71,97,1,
220,216,1,71,96,1,
219,216,1,70,96,1,
218,215,1,70,96,1,
217,290,1,70,96,1,
216,288,1,69,95,1,
215,286,1,69,94,1,
214,285,1,68,94,1,
213,283,1,67,94,1,
211,281,1,67,94,1,
211,280,1,67,93,1,
210,278,1,67,93,1,
209,277,1,74,92,1,
207,275,1,74,92,0,
207,274,1,73,91,1,
206,272,1,72,91,1,
205,271,1,71,90,1,
204,270,1,71,90,1,
204,268,1,71,89,1,
203,267,1,71,89,1,
201,265,1,71,89,1,
199,263,1,70,88,1,
226,263,1,70,88,1,
293,261,1,70,88,1,
290,259,1,69,88,1,
288,259,1,69,87,1,
287,257,1,69,87,1,
286,255,1,68,86,1,
283,255,1,67,86,1,
281,254,1,67,86,1,
280,252,1,67,85,1,
279,251,1,67,85,1,
277,249,1,67,85,1,
275,248,1,66,83,1,
275,248,1,66,83,1,
273,246,1,65,83,0,
271,245,1,65,83,1,
270,243,1,65,82,1,
269,242,1,65,82,1,
268,241,1,64,82,1,
266,240,1,64,81,0,
263,239,1,63,81,1,
263,238,1,63,80,1,
262,237,1,63,80,1,
260,236,1,63,79,1,
259,234,1,63,79,1,
258,233,1,63,79,1,
257,231,1,82,79,1,
255,231,1,81,79,1,
254,230,1,81,78,1,
253,229,1,81,78,2,
252,228,1,79,77,1,
251,227,1,79,77,1,
249,226,1,79,77,1,
248,225,1,79,77,1,
247,224,1,78,76,1,
245,223,1,78,76,1,
244,222,1,78,75,0,
243,221,1,77,75,1,
242,220,0,77,75,1,
241,219,1,76,75,0,
240,217,1,76,75,1,
238,217,1,76,74,1,
237,216,1,75,73,1,
236,215,1,75,74,1,
235,214,1,75,73,1,
234,213,1,75,73,1,
233,211,1,74,71,1,
231,211,1,74,71,1,
231,210,1,73,71,1,
230,209,1,73,71,1,
229,207,1,73,71,1,
228,207,1,71,71,1,
227,206,0,71,71,1,
225,206,1,71,70,1,
224,205,1,71,70,1,
223,204,1,71,69,1,
222,203,1,71,70,1,
221,202,1,70,69,1,
220,201,1,70,69,1,
219,199,1,69,68,1,
219,199,1,69,68,2,
217,199,1,69,68,1,
216,198,1,69,67,1,
216,197,1,68,67,1,
214,195,1,68,67,1,
213,195,1,67,67,1,
212,194,1,67,67,1,
211,193,1,67,67,1,
211,192,1,67,66,1,
209,192,1,67,71,1,
207,191,1,66,71,1,
207,190,1,66,71,1,
206,190,1,65,71,1,
205,188,1,65,71,1,
205,188,1,65,71,1,
204,187,1,64,70,1,
203,186,1,64,70,1,
202,185,1,63,69,1,
201,184,1,63,69,1,
199,184,1,63,69,1,
199,183,1,63,68,1,
198,183,1,62,67,1,
197,182,1,62,67,1,
196,180,1,63,67,1,
195,181,1,131,67,0,
195,179,1,130,66,1,
194,179,1,129,66,1,
193,177,1,127,66,1,
192,177,1,127,65,1,
192,176,1,127,65,1,
191,175,1,126,65,1,
190,175,1,125,64,1,
188,174,0,124,64,1,
188,173,1,124,63,1,
187,172,0,123,63,1,
186,172,1,123,63,1,
185,171,1,122,63,1,
185,170,0,121,63,1,
184,169,1,121,62,1,
183,167,1,120,62,1,
182,167,1,120,62,1,
181,167,1,119,62,1,
180,166,1,118,61,1,
179,166,0,117,61,1,
178,165,1,117,61,1,
178,164,1,117,80,1,
177,164,1,116,81,1,
176,163,1,116,81,1,
176,163,1,116,80,1,
174,161,1,115,79,1,
174,161,1,115,79,1,
173,159,1,114,79,1,
172,159,1,113,78,1,
172,158,0,113,78,1,
171,158,1,112,77,1,
170,158,1,112,77,1,
