
31,10,0,63,24,0,

31,10,0,63,24,0,

30,10,0,62,23,0,

31,9,0,62,24,0,

30,9,0,61,23,0,

30,9,0,61,22,0,

30,9,0,61,22,0,

30,9,0,61,22,0,

29,9,0,61,22,0,

30,9,0,61,22,0,

29,9,0,60,22,0,

29,9,0,60,22,0,

29,9,0,60,22,0,

29,9,0,60,22,0,

29,9,0,59,21,0,

29,9,0,59,21,0,

29,9,0,59,21,0,

28,9,0,59,21,0,

29,9,0,59,21,0,

28,9,0,58,21,0,

28,9,0,58,21,0,

28,8,0,57,21,0,

28,7,0,57,21,0,

28,9,0,57,21,0,

27,7,0,57,21,0,

27,8,0,57,20,0,

27,7,0,56,19,0,

27,7,0,56,20,0,

27,18,0,56,21,0,

27,18,0,56,20,0,

27,18,0,55,20,1,

27,18,0,55,20,0,

26,18,0,55,20,0,

26,17,0,54,20,0,

26,17,0,54,20,0,

26,17,0,54,20,0,

26,17,0,53,19,0,

26,17,0,95,19,0,

28,17,0,94,19,0,

28,16,0,93,19,0,

28,17,0,93,19,0,

28,17,0,92,20,0,

28,17,0,92,48,0,

28,16,0,91,48,0,

28,17,0,91,47,0,

28,16,0,91,46,0,

27,16,0,90,46,0,

27,16,0,89,46,0,

26,16,0,89,46,0,

27,15,0,89,45,0,

27,16,0,88,45,0,

27,16,0,88,45,0,

26,16,0,88,45,0,

27,15,0,88,45,0,

26,15,0,87,44,0,

26,15,0,86,44,0,

25,15,0,86,44,0,

26,15,0,86,44,0,

25,15,0,85,43,0,

25,15,0,85,43,0,

25,15,0,85,43,0,

25,15,0,84,43,0,

25,15,0,83,43,0,

25,15,0,83,43,0,

25,14,0,83,42,0,

25,14,0,83,42,0,

25,15,0,82,42,0,

24,14,0,82,41,0,

25,14,0,82,41,0,

25,14,0,81,41,0,

24,14,0,81,41,0,

24,14,0,81,41,0,

24,14,0,80,41,0,

24,14,0,79,40,0,

24,14,0,79,39,0,

24,14,0,79,39,0,

24,14,0,79,39,0,

24,13,0,79,39,0,

25,13,0,78,39,0,

25,13,0,78,39,0,

25,13,0,77,41,0,

24,13,0,77,41,0,

24,13,0,77,39,0,

24,13,0,76,39,0,

24,13,0,76,39,0,

24,13,0,76,39,0,

24,13,0,76,39,0,

24,12,0,75,39,0,

24,12,0,75,39,0,

24,13,0,75,39,0,

24,12,0,74,39,0,

24,12,0,74,39,0,

24,12,0,73,39,0,

23,12,0,73,38,0,

23,12,0,73,38,0,

23,12,0,71,38,0,

23,12,0,71,38,0,

23,12,0,71,38,0,

23,12,0,71,37,0,

22,12,0,71,37,0,

22,12,0,71,37,0,

22,11,0,71,37,0,

22,12,0,70,37,0,

27,11,0,70,36,0,

31,11,0,70,36,0,

30,11,0,70,36,0,

30,11,0,69,36,0,

29,11,0,69,36,0,

30,11,0,68,35,0,

29,11,0,68,35,0,

29,11,0,68,35,0,

29,11,0,67,35,0,

29,11,0,67,35,0,

29,10,0,67,35,0,

29,10,0,69,34,0,

28,10,0,69,34,0,

29,11,0,69,34,0,

28,10,0,69,34,0,

28,10,0,68,34,0,

28,14,0,67,34,0,

28,15,0,67,33,0,

28,16,0,67,33,0,

28,17,0,67,33,0,

28,16,0,66,33,0,

28,16,0,66,33,0,

27,15,0,66,33,0,

27,16,0,66,33,0,

27,16,0,65,32,0,

27,15,0,65,32,0,

27,15,0,65,32,0,

27,15,0,64,31,0,

27,15,0,64,31,0,

27,15,0,64,31,0,

26,15,0,63,31,0,

26,15,0,63,31,0,

26,15,0,63,31,0,

26,15,0,63,31,0,

26,15,0,63,31,0,

25,14,0,62,30,0,

25,15,0,62,30,0,

25,14,0,62,30,0,

25,14,0,142,31,0,

31,14,0,140,31,0,

32,14,0,139,31,0,

31,15,0,137,31,0,

31,24,0,137,31,0,

31,24,0,135,31,0,

31,24,0,135,31,0,

31,24,0,135,31,0,

31,24,0,134,31,0,

31,23,0,134,30,0,

30,23,0,133,30,0,

30,23,0,132,30,0,

30,23,0,131,30,0,

44,23,0,131,30,0,

44,22,0,130,29,0,

44,23,0,130,46,0,

43,22,0,129,56,0,

44,22,0,129,56,0,

43,22,0,127,56,0,

43,22,0,127,55,0,

43,22,0,127,55,0,

42,22,0,126,54,0,

42,21,0,126,54,0,

42,21,0,125,54,0,

41,21,0,125,54,0,

41,21,1,124,53,0,

41,21,0,123,53,0,

41,21,0,123,53,0,

41,21,0,122,52,0,

41,20,0,122,51,0,

40,20,0,121,51,0,

41,21,0,120,51,0,

39,20,0,120,51,0,

40,20,0,120,51,0,

39,20,0,119,51,0,

39,20,0,118,50,0,

39,19,0,118,50,0,

39,19,0,118,50,0,

39,19,0,117,49,0,

39,19,0,116,49,0,

39,19,0,115,49,0,

39,19,0,115,49,0,

38,19,0,115,48,0,

38,19,0,114,48,0,

38,19,0,114,48,0,

38,19,0,113,48,0,

37,18,0,113,47,0,

37,18,0,112,47,0,

37,18,0,112,47,0,

38,18,0,111,47,0,

39,18,0,111,47,0,

39,18,0,110,46,0,

39,18,0,110,46,0,

39,18,0,110,46,0,

39,18,0,109,46,0,

39,18,0,108,45,0,

39,18,0,108,45,0,

38,18,0,108,45,0,

38,18,0,107,45,0,

38,18,0,107,45,0,

38,18,1,106,44,0,

37,17,0,105,44,0,

38,17,0,105,44,0,

37,18,0,105,44,0,

37,17,0,103,43,0,

37,17,0,103,43,0,

37,17,0,103,43,0,

37,17,0,103,43,0,

36,17,0,103,43,0,

35,17,0,102,42,0,

35,16,0,102,42,0,

35,16,0,101,42,0,

35,16,0,101,41,0,

35,16,0,100,41,1,

36,16,0,100,41,0,

49,16,0,99,41,0,

48,16,0,99,41,0,

49,15,0,99,41,0,

48,16,0,98,41,0,

48,16,0,98,39,0,

48,16,0,98,39,0,

47,16,0,97,39,0,

47,16,0,97,39,0,

47,16,0,96,39,0,

46,16,0,96,39,0,

46,16,0,96,39,0,

46,15,0,95,39,0,

46,15,0,95,38,0,

45,15,0,94,39,0,

45,15,0,94,39,0,

45,15,0,94,66,0,

45,15,0,94,65,0,

45,15,0,93,65,0,

44,15,0,92,64,0,

44,22,0,92,63,0,

44,21,0,92,63,0,

44,21,0,91,63,0,

43,21,0,91,63,0,

43,21,0,91,62,0,

43,21,0,90,62,0,

43,21,0,89,62,0,

43,20,0,89,61,0,

46,20,0,89,61,0,

46,20,0,89,61,0,

46,20,0,88,61,1,

45,20,0,88,60,0,

45,20,0,88,60,0,

45,49,0,88,60,0,

45,74,0,88,60,0,

45,89,0,87,59,0,

44,88,0,87,59,0,

44,88,0,86,59,0,

44,87,0,86,58,0,

44,86,0,92,58,0,

44,86,0,91,58,0,

43,85,0,91,57,0,

43,85,1,91,57,0,

43,85,0,90,57,0,

42,84,0,89,57,0,

42,84,0,89,56,0,

42,83,0,89,56,0,

42,83,0,89,56,0,

41,82,0,88,56,0,

41,82,0,88,56,0,

41,81,0,88,55,0,

67,81,0,87,55,0,

100,81,0,90,55,0,

99,81,0,110,55,0,

98,79,0,109,55,0,

98,79,0,109,54,0,

97,79,0,108,54,0,

96,79,0,108,53,0,

96,78,0,108,53,0,

96,78,0,107,53,0,

95,78,0,106,53,0,

95,78,0,105,53,0,

94,77,0,105,52,0,

94,77,0,103,51,0,

93,76,0,103,51,0,

92,76,0,103,51,0,

92,76,0,103,51,1,

92,75,0,103,51,0,

91,75,0,102,50,0,

91,75,0,102,50,0,

90,74,0,101,50,0,

89,73,0,101,50,0,

89,73,0,100,49,0,

89,73,0,99,49,0,

89,73,0,99,49,0,

88,73,0,99,49,0,

90,71,0,98,48,0,

89,71,0,120,48,0,

89,71,0,118,48,0,

89,71,1,118,48,0,

88,71,0,117,48,0,

88,70,0,117,48,0,

88,70,0,116,48,0,

87,70,0,115,48,0,

86,69,0,114,48,0,

87,69,0,114,47,0,

86,69,0,114,47,0,

85,68,0,113,47,0,

85,68,0,112,46,0,

84,67,0,112,46,0,

84,67,1,112,46,0,

83,67,0,111,46,0,

83,67,0,110,46,0,

83,67,0,110,45,0,

83,68,0,110,45,0,

82,68,0,109,45,0,

82,68,0,108,45,0,

81,68,0,108,45,0,

81,67,0,108,44,0,

81,67,0,107,44,0,

81,66,0,106,44,0,

79,66,0,110,44,0,

79,65,0,135,43,0,

79,65,0,135,44,0,

79,65,0,134,43,0,

78,65,0,133,43,0,

78,64,0,132,43,0,

78,64,0,131,42,0,

78,63,0,131,42,0,

77,63,0,130,42,0,

77,63,0,130,42,0,

76,63,0,129,41,0,

76,63,0,128,41,0,

76,63,0,127,41,0,

76,62,0,127,41,0,

75,62,0,127,39,0,

101,62,0,126,39,0,

101,61,0,126,39,0,

100,76,0,125,39,0,

99,76,0,124,39,0,

99,75,0,124,39,0,

99,75,0,123,39,0,

115,74,0,123,39,0,

115,74,0,122,39,0,

114,73,0,121,39,0,

113,73,0,121,39,0,

113,71,0,120,38,0,

112,72,0,120,38,0,

112,71,0,120,38,0,

111,71,0,119,38,0,

110,71,0,118,43,0,

110,71,0,117,42,0,

109,71,0,117,42,0,

109,71,0,116,42,0,

108,71,0,115,41,0,

108,70,0,115,43,1,

107,70,0,115,43,0,

106,69,0,114,43,0,

106,69,0,114,42,0,

105,69,0,113,42,0,

105,69,0,113,81,0,

103,68,1,112,79,0,

103,71,0,112,79,0,

109,78,0,111,79,0,

109,78,0,111,78,0,

108,77,0,110,77,0,

107,77,0,110,77,0,

107,77,0,109,77,0,

106,76,0,108,76,0,

105,76,0,108,76,0,

105,76,0,109,76,0,

103,75,0,108,75,0,

103,74,0,108,75,0,

103,74,0,107,75,0,

103,73,0,107,74,0,

102,73,0,106,74,1,

102,73,0,106,73,0,

101,92,0,105,73,0,

101,92,0,105,72,0,

101,91,0,103,71,0,

100,91,0,103,71,0,

99,90,0,103,71,0,

99,89,0,103,71,0,

99,89,0,102,71,0,

98,88,0,102,71,0,

98,88,0,102,70,0,

97,88,0,101,69,0,

97,87,0,101,70,0,

96,88,0,100,69,0,

96,87,0,99,69,0,

96,87,0,99,68,0,

95,86,0,99,68,0,

95,86,0,99,67,0,

94,85,0,98,67,0,

94,85,0,98,67,0,

94,84,0,97,67,0,

93,84,0,97,67,0,

92,84,0,96,66,0,

92,83,0,96,66,0,

92,83,0,96,65,0,

92,82,0,96,65,0,

91,89,0,95,65,0,

91,100,0,94,65,0,

90,99,0,94,64,0,

90,99,0,94,64,0,

89,98,0,93,63,0,

89,98,0,93,63,0,

89,97,0,93,70,1,

117,97,0,107,81,0,

116,96,0,107,80,0,

115,96,0,106,79,0,

115,96,0,105,79,0,

114,95,0,105,79,0,

113,103,0,103,78,0,

113,121,0,103,78,0,

112,120,0,103,77,0,

112,119,0,103,77,0,

111,118,0,102,77,0,

110,117,0,102,76,0,

110,116,0,101,76,0,

110,116,0,102,95,0,

109,115,0,101,94,0,

108,114,0,100,93,0,

108,114,0,100,93,0,

107,113,0,100,101,0,

106,113,0,99,100,0,

105,112,0,99,99,0,

105,112,0,98,99,0,

105,111,0,97,98,0,

103,111,0,97,97,0,

103,110,0,97,97,0,

103,110,0,96,96,0,

126,109,0,96,96,0,

184,108,0,96,96,0,

182,109,0,95,95,0,

181,115,0,95,94,0,

179,114,0,94,94,0,

179,114,0,94,94,0,

178,113,0,93,93,0,

177,113,0,93,93,0,

176,112,0,93,92,0,

175,112,0,92,92,0,

174,111,0,91,91,0,

173,110,0,91,91,1,

172,110,0,91,90,0,

172,109,0,90,101,0,

170,108,0,90,101,0,

169,108,0,89,101,0,

168,184,0,89,99,0,

167,182,0,89,99,0,

167,180,0,88,99,0,

166,179,0,88,98,0,

165,178,0,87,97,0,

165,177,0,87,97,0,

163,176,0,86,97,0,

163,175,0,86,96,0,

162,174,0,86,108,0,

161,174,0,86,107,0,

160,173,0,85,106,0,

159,172,0,85,105,0,

159,172,0,84,105,0,

158,171,0,84,103,0,

157,169,0,83,103,0,

156,169,0,83,103,0,

156,167,0,83,103,0,

155,167,0,82,102,0,

154,166,0,82,102,0,

153,165,0,81,101,0,

153,164,0,81,100,0,

152,163,0,81,99,0,

152,163,0,80,99,0,

151,171,0,79,99,0,

150,210,0,79,98,0,

149,207,0,79,98,0,

148,207,0,79,97,0,

147,206,0,78,97,1,

147,204,0,81,96,0,

146,204,0,82,96,0,

145,202,0,81,96,0,

145,201,0,82,95,0,

144,199,0,81,95,0,

143,207,0,80,94,0,

143,206,0,80,93,0,

142,205,0,79,93,0,

141,204,0,79,93,0,

141,203,0,79,92,0,

140,201,0,78,92,0,

140,201,0,78,91,0,

139,199,0,78,91,0,

138,199,0,77,90,0,

137,198,0,77,90,0,

137,196,0,77,89,1,

135,195,0,76,89,0,

135,195,0,76,89,0,

135,194,0,76,88,0,

135,192,0,75,88,0,

134,192,0,75,88,0,

133,191,0,75,87,0,

133,190,0,74,86,0,

132,189,0,74,86,0,

131,188,0,74,86,0,

139,187,0,73,86,0,

184,186,0,73,86,0,

182,185,0,73,86,0,

181,184,0,71,112,0,

179,184,0,71,111,0,

179,183,0,71,110,0,

178,182,0,71,109,0,

177,180,0,71,109,0,

176,179,0,71,108,0,

175,179,0,71,107,0,

174,178,0,70,107,0,

173,177,0,94,106,0,

172,176,0,93,105,0,

171,208,1,92,105,0,

170,226,0,92,105,0,

169,225,0,91,103,0,

169,224,0,90,103,0,

167,222,0,90,103,0,

167,220,0,89,102,0,

166,219,0,89,101,0,

165,218,0,89,101,0,

164,217,0,103,101,0,

163,216,0,103,99,0,

163,215,0,103,99,0,

162,214,0,102,99,0,

161,212,0,102,98,0,

159,211,0,101,98,0,

159,210,0,101,97,0,

159,209,0,99,97,0,

158,207,0,99,97,0,

157,231,0,99,96,0,

156,231,0,99,96,0,

156,229,0,98,95,0,

155,227,0,98,94,0,

154,226,0,97,94,0,

157,225,0,97,94,0,

156,224,0,96,93,0,

155,223,0,96,93,0,

155,222,0,96,92,0,

153,220,0,95,92,0,

153,219,0,94,92,0,

152,218,0,94,91,0,

154,217,1,94,91,0,

153,216,0,93,90,0,

152,215,0,93,89,0,

152,214,0,92,89,0,

151,212,0,92,89,0,

150,211,0,91,88,0,

149,210,0,91,88,0,

149,209,0,90,88,0,

148,209,0,89,87,1,

147,207,0,89,87,0,

147,207,0,89,97,0,

146,205,0,89,156,0,

145,205,0,88,155,0,

144,204,0,88,153,0,

143,202,0,88,152,0,

143,201,0,87,152,0,

142,199,0,87,151,0,

142,199,1,86,150,0,

141,198,0,86,149,0,

140,197,1,85,148,0,

140,196,1,85,147,0,

139,195,1,84,146,0,

138,194,1,83,145,1,

137,193,1,83,145,1,

137,192,0,83,143,0,

135,192,0,98,143,1,

135,191,0,97,143,1,

135,190,1,97,142,1,

134,188,0,96,141,1,

134,188,0,96,140,1,

133,187,1,95,140,1,

132,186,1,94,140,1,

134,185,0,94,138,1,

133,184,0,94,138,1,

132,184,1,93,137,1,

131,183,0,93,135,0,

131,181,1,92,135,1,

130,181,1,92,135,1,

130,179,1,91,134,0,

129,179,1,91,152,1,

128,178,1,90,218,0,

127,177,1,90,216,1,

127,176,0,89,214,1,

126,175,0,89,214,1,

126,175,1,89,212,1,

125,174,1,88,211,0,

125,173,0,88,209,1,

124,172,1,93,208,1,

123,171,0,92,207,1,

123,170,1,92,206,0,

122,169,1,91,205,1,

121,168,1,91,204,1,

121,167,0,90,203,1,

121,167,1,89,202,1,

120,166,0,89,199,1,

120,165,1,89,199,0,

119,165,1,88,198,1,

118,164,0,88,197,0,

118,163,1,88,196,1,

117,162,0,87,195,0,

117,161,0,86,195,1,

115,161,1,86,193,1,

115,159,1,86,194,1,

115,159,1,85,193,1,

114,158,1,85,192,1,

114,158,0,84,192,1,

114,157,0,83,190,0,

113,156,1,83,190,1,

112,156,1,83,189,1,

112,155,1,84,188,1,

112,154,1,92,187,1,

111,153,1,92,185,1,

110,153,1,91,184,1,

110,152,1,90,184,1,

110,151,1,90,183,0,

109,151,1,89,182,1,

150,150,1,89,181,0,

147,149,1,88,180,0,

147,148,0,88,179,1,

146,147,1,88,178,1,

146,147,1,88,177,1,

145,146,0,87,176,0,

143,146,0,86,176,1,

143,145,0,86,175,1,

142,144,0,85,174,1,

142,143,1,84,174,0,

141,143,1,85,172,1,

167,142,1,83,172,1,

165,142,1,83,171,1,

164,141,1,83,170,1,

163,140,1,83,169,0,

163,140,1,82,167,1,

162,140,0,111,167,1,

161,139,0,110,167,1,

159,137,1,109,166,0,

159,137,1,109,165,1,

158,135,1,108,163,0,

157,135,1,107,163,1,

156,135,0,107,162,0,

156,135,1,106,161,0,

154,134,1,105,161,0,

153,133,1,105,159,1,

153,132,0,103,159,0,

152,131,1,103,158,1,

151,131,0,103,158,0,

150,131,0,103,157,0,

150,130,0,102,156,1,

149,129,1,102,155,0,

148,129,0,101,155,1,

147,127,1,101,153,1,

147,158,0,99,153,1,

146,173,1,99,152,1,

145,172,1,99,152,1,

144,171,1,99,151,1,

143,170,0,98,150,0,

142,169,0,98,150,0,

142,167,0,97,149,0,

141,167,1,97,148,0,

141,166,0,96,147,1,

245,213,0,96,146,1,

247,211,1,95,146,1,

245,209,0,94,145,0,

243,207,0,94,145,1,

242,207,1,94,143,0,

240,205,1,93,143,1,

239,204,1,93,143,1,

238,203,0,92,142,1,

236,202,0,92,141,0,

235,201,0,92,141,1,

233,199,0,91,140,1,

231,199,0,91,140,0,

231,198,0,90,139,0,

230,197,0,89,138,0,

229,195,0,89,137,0,

228,195,0,89,137,0,

227,194,0,88,135,1,

225,193,0,88,135,1,

224,192,0,88,135,0,

224,192,0,87,135,1,

222,190,0,86,134,0,

221,189,1,86,133,0,

220,188,0,85,133,1,

219,188,0,85,131,1,

218,187,1,84,131,0,

217,186,1,84,131,0,

216,284,1,83,130,1,

214,302,0,83,129,0,

214,299,0,83,129,0,

212,297,1,82,128,0,

211,295,0,82,127,0,

210,294,0,82,127,0,

209,292,0,81,127,0,

208,290,0,81,126,1,

207,289,0,81,126,0,

206,287,0,80,124,0,

205,286,0,79,124,0,

204,284,0,79,124,0,

203,282,0,79,123,0,

202,281,1,79,123,1,

201,280,0,78,122,0,

199,278,0,78,121,1,

199,276,0,78,121,0,

198,275,0,77,121,0,

197,273,0,77,120,0,

202,271,0,76,119,1,

201,271,1,76,119,0,

199,269,1,76,118,0,

199,268,0,75,118,0,

198,266,0,75,117,0,

197,263,1,74,117,0,

195,263,0,75,116,0,

195,262,0,74,115,0,

255,309,0,73,115,1,

300,329,0,73,115,0,

298,326,0,73,114,0,

295,324,0,73,114,0,

294,322,0,71,113,1,

292,321,0,71,113,1,

291,318,0,71,112,1,

289,317,1,71,112,1,

287,315,0,71,111,0,

286,313,1,71,111,0,

284,312,1,70,110,0,

283,309,1,70,110,1,

281,308,1,70,110,1,

280,338,1,69,109,1,

278,335,1,69,108,1,

276,333,1,69,108,1,

275,331,1,67,107,1,

273,329,0,67,107,1,

271,327,1,67,107,1,

270,325,1,67,106,1,

269,323,1,67,105,1,

268,321,1,67,105,1,

266,319,1,66,105,1,

265,318,1,66,103,1,

263,316,1,65,103,1,

262,315,1,65,103,0,

261,312,1,65,103,1,

259,311,1,64,103,1,

258,309,1,64,102,1,

257,307,1,63,101,1,

255,305,1,63,101,1,

254,304,1,70,100,1,

252,303,1,70,100,1,

251,300,1,69,99,1,

250,299,1,69,99,1,

249,297,1,68,99,1,

248,295,1,68,98,1,

247,295,1,67,98,1,

245,293,1,67,98,1,

244,291,1,67,97,1,

243,290,1,67,97,1,

242,289,1,66,100,1,

241,287,1,66,99,1,

240,286,1,88,99,1,

238,285,1,87,99,1,

237,283,1,86,98,1,

236,281,1,86,98,1,

235,280,1,85,97,1,

234,280,1,85,101,1,

286,278,1,84,100,1,

301,275,1,83,99,1,

299,275,1,83,99,1,

297,273,1,83,99,1,

295,271,1,82,98,1,

294,271,1,82,98,1,

291,269,1,81,97,1,

290,268,1,81,97,2,

288,267,1,81,103,1,

287,265,2,80,135,1,

290,304,1,79,133,1,

288,302,1,79,132,1,

287,300,1,79,131,1,

285,298,1,78,131,1,

284,295,1,78,130,1,

282,295,1,78,130,1,

280,293,1,93,129,1,

280,291,1,97,128,2,

278,290,1,97,127,1,

276,288,1,96,127,1,

274,287,1,96,126,1,

273,285,1,95,135,1,

271,284,1,95,135,1,

270,281,1,94,134,1,

268,280,1,94,133,1,

267,280,1,93,133,1,

266,278,1,93,132,1,

265,276,1,92,131,1,

263,274,1,92,131,1,

262,273,1,91,130,1,

260,271,1,91,129,1,

259,270,1,90,129,1,

257,299,1,89,127,1,

255,295,1,89,127,1,

255,295,1,89,127,1,

254,293,1,88,126,1,

252,291,1,88,125,1,

251,290,1,88,124,1,

249,287,1,87,127,1,

249,286,1,87,126,1,

248,285,1,86,126,1,

246,283,1,86,125,1,

245,281,1,85,124,1,

243,280,1,85,124,1,

242,279,1,84,123,1,

241,277,1,84,123,1,

266,275,1,83,122,1,

286,274,1,83,121,1,

285,272,1,82,135,1,

283,271,1,82,135,1,

281,269,1,81,134,1,

280,268,1,81,133,1,

278,267,1,81,132,1,

276,265,1,80,131,1,

275,263,1,80,131,1,

273,262,1,79,131,1,

271,261,1,79,130,1,

270,259,1,79,129,1,

269,258,1,78,128,1,

268,257,1,78,127,1,

266,255,1,78,127,1,

264,255,1,77,126,1,

263,254,1,88,126,1,

262,252,1,89,125,1,

261,251,1,88,124,1,

259,250,1,88,124,1,

263,249,1,88,123,1,

263,305,1,87,123,1,

262,343,1,86,122,1,

260,341,1,86,121,1,

259,338,1,85,121,1,

257,336,1,85,120,1,

255,334,1,83,120,1,

255,332,1,84,119,1,

253,330,1,85,118,1,

252,327,1,85,118,1,

250,327,1,84,117,1,

249,324,1,84,116,1,

248,323,1,84,116,1,

246,321,1,83,115,1,

245,319,1,83,115,1,

243,317,1,82,114,1,

243,315,1,82,114,1,

241,313,1,81,113,1,

240,312,1,81,112,1,

239,310,1,80,112,1,

238,308,1,85,111,1,

237,307,1,84,111,1,

236,305,1,84,111,1,

271,359,1,83,118,1,

317,396,1,83,117,1,

315,391,1,83,116,1,

313,389,1,83,115,1,

311,387,1,82,115,1,

308,384,1,81,114,1,

307,382,1,81,114,1,

305,380,1,81,113,1,

304,377,1,86,113,1,

302,375,1,85,112,1,

300,372,1,85,112,1,

299,371,1,84,111,1,

297,368,0,83,110,1,

295,366,1,83,110,1,

294,364,1,83,109,1,

291,361,1,83,109,1,

290,359,1,82,109,1,

289,358,1,82,108,1,

287,355,1,81,107,1,

286,354,1,81,107,1,

284,352,1,80,106,1,

282,350,1,79,106,1,

281,348,1,79,105,1,

280,345,1,79,105,1,

278,344,1,79,103,1,

276,342,1,78,103,1,

275,340,0,78,103,1,

273,338,0,78,102,1,

272,336,1,77,102,1,

271,335,0,77,102,1,

269,332,0,76,101,0,

268,331,1,76,101,1,

267,329,1,76,100,1,

265,327,1,75,99,1,

263,326,1,75,140,1,

263,324,1,75,138,1,

261,322,1,75,137,1,

259,321,1,74,137,1,

259,319,1,73,135,1,

257,317,1,73,135,1,

255,316,1,73,134,1,

254,314,1,71,134,1,

253,312,0,71,133,1,

252,311,1,71,131,1,

251,309,0,71,131,1,

249,307,0,71,131,1,

248,306,1,71,141,1,

247,304,1,70,141,1,

249,303,1,70,140,1,

280,301,1,70,139,1,

279,299,1,69,138,1,

277,298,1,69,137,1,

275,295,1,68,137,1,

274,295,1,68,135,1,

271,294,1,67,135,1,

271,291,1,67,135,1,

311,291,1,67,134,1,

353,290,1,67,133,0,

351,288,1,67,133,1,

348,287,1,66,132,1,

346,286,1,66,131,0,

344,284,1,65,130,1,

342,283,1,65,130,1,

339,281,1,65,129,1,

338,280,1,78,129,1,

335,279,1,77,127,1,

334,277,1,76,127,1,

332,275,1,76,127,1,

330,274,1,76,126,1,

327,273,1,75,125,1,

326,271,1,75,125,1,

324,271,1,75,124,1,

323,269,1,74,123,1,

321,268,1,73,123,1,

319,267,1,126,134,0,

317,265,1,154,142,1,

316,263,1,152,141,1,

313,263,1,152,140,0,

312,261,0,151,139,1,

310,260,1,150,139,1,

308,258,1,149,137,0,

307,257,1,148,137,1,

305,255,1,147,135,1,

304,255,1,146,135,1,

301,253,1,145,135,0,

300,252,1,145,134,0,

298,251,1,143,133,1,

295,249,0,143,142,0,

295,248,0,142,143,1,

293,247,0,142,142,1,

291,246,1,141,142,1,

290,245,1,140,141,1,

288,243,1,140,140,1,

287,242,1,139,139,0,

285,241,1,138,138,0,

284,240,1,137,137,0,

282,238,1,135,137,0,

281,238,1,135,135,1,

280,236,0,135,135,0,

278,235,1,134,135,1,

276,234,1,134,134,0,

275,233,0,133,133,1,

273,231,1,132,132,1,

271,231,1,131,131,1,

271,229,0,131,131,0,

269,228,1,130,130,0,

268,227,0,129,129,1,

266,226,0,129,129,0,

265,271,0,128,127,0,

263,269,1,127,127,1,

262,268,0,127,127,1,

261,266,1,126,126,1,

268,263,0,125,125,0,

267,263,1,125,125,0,

265,261,0,124,124,1,

263,260,0,124,124,1,

262,258,0,123,123,1,

260,255,1,123,122,1,

259,255,0,122,121,0,

257,254,1,121,121,0,

255,252,0,121,120,0,

255,251,0,120,120,1,

253,249,0,120,119,0,

252,248,1,119,118,1,

251,247,0,118,118,1,

249,245,0,117,117,0,

248,243,1,118,117,1,

247,243,0,117,115,0,

246,241,0,115,115,0,

244,240,0,115,114,1,

243,238,0,115,114,0,

248,238,0,115,113,0,

247,236,1,114,113,0,

245,235,1,113,112,0,

243,233,1,113,112,0,

242,231,1,112,112,1,

241,231,1,112,111,0,

240,230,0,111,110,0,

238,228,1,111,110,1,

237,227,0,110,109,0,

236,226,1,110,108,0,

235,225,0,109,108,0,

234,224,0,109,108,0,

255,223,0,108,107,0,

354,263,0,107,107,0,

366,261,0,107,105,0,

363,259,1,107,105,0,

359,257,0,106,104,0,

357,255,0,105,103,0,

355,254,0,105,103,0,

353,253,1,103,103,1,

351,251,0,103,103,0,

348,250,0,103,102,1,

347,248,0,103,101,1,

344,291,0,102,101,0,

342,287,0,102,100,0,

339,287,0,101,99,1,

338,284,0,101,99,1,

336,283,0,112,99,1,

334,281,0,112,99,0,

332,280,1,111,98,0,

331,278,0,110,97,1,

327,276,1,110,97,1,

327,275,0,109,96,0,

325,274,0,109,96,0,

323,271,1,108,96,0,

321,271,0,108,96,0,

319,269,1,107,95,0,

318,268,1,106,94,0,

316,266,0,106,94,0,

315,263,0,105,94,0,

312,263,0,103,93,0,

312,262,0,103,93,1,

310,261,0,103,92,0,

307,259,0,103,92,0,

306,258,1,103,91,0,

304,255,0,102,91,0,

303,255,0,102,90,0,

301,254,1,101,90,0,

300,252,0,101,89,1,

298,251,0,100,89,0,

295,249,0,99,89,1,

295,248,0,99,88,0,

294,248,0,99,88,0,

292,246,1,98,88,0,

291,245,0,98,88,0,

289,243,0,97,87,0,

287,242,1,97,87,0,

286,241,1,96,86,0,

285,240,0,96,86,0,

284,239,0,96,86,1,

283,238,0,96,85,0,

281,236,0,95,85,0,

280,236,1,94,84,1,

278,234,1,95,84,0,

277,233,0,94,83,0,

275,249,0,94,83,0,

275,248,0,94,83,0,

273,246,0,93,83,1,

271,245,1,93,82,0,

270,243,0,92,82,0,

273,243,0,92,81,0,

272,273,0,92,81,1,

270,305,0,91,81,0,

269,303,1,91,80,1,

268,302,0,115,80,1,

267,300,0,115,79,0,

265,297,0,114,79,0,

263,295,1,114,79,0,

263,294,1,113,79,0,

261,292,0,112,78,0,

259,291,0,112,78,0,

259,289,0,112,78,0,

257,287,1,111,77,1,

255,286,0,110,77,0,

255,284,0,109,77,0,

253,283,1,109,76,1,

252,281,0,109,76,0,

251,280,1,108,75,1,

250,279,0,108,97,1,

248,277,1,107,97,1,

248,275,1,107,96,0,

246,274,0,106,95,0,

245,272,1,105,95,0,

243,271,0,105,94,0,

243,270,0,103,94,0,

241,268,1,103,93,0,

240,267,0,103,92,0,

239,265,0,103,92,0,

238,263,0,102,92,0,

237,262,0,102,91,0,

236,261,0,101,91,0,

235,259,0,101,90,0,

233,258,1,100,90,0,

231,257,0,99,89,1,

231,255,1,99,89,0,

231,254,0,98,88,0,

230,253,1,98,88,0,

228,252,0,98,88,0,

227,251,1,97,87,0,

226,249,0,97,87,1,

225,248,1,96,86,0,

224,247,0,96,86,0,

224,246,0,96,85,0,

223,245,0,95,85,0,

222,243,0,95,84,0,

221,242,0,94,84,1,

273,359,0,94,83,1,

271,375,0,93,83,1,

269,372,0,93,83,1,

268,369,0,92,82,0,

266,368,0,92,82,0,

265,365,0,92,82,0,

263,363,0,91,81,0,

262,359,0,91,81,0,

261,363,1,91,81,0,

295,449,0,90,80,1,

294,444,0,89,79,0,

293,441,0,89,79,1,

291,438,0,88,79,0,

289,435,0,88,96,0,

287,433,0,88,103,0,

286,430,0,88,102,0,

284,426,0,88,102,0,

282,423,0,88,101,0,

281,421,1,88,100,0,

280,419,0,87,100,0,

278,415,0,86,99,0,

276,414,0,86,99,0,

275,411,0,86,98,0,

273,409,0,85,98,0,

271,407,1,85,99,0,

271,404,0,84,99,0,

270,403,0,103,99,0,

268,399,0,102,98,0,

266,397,0,101,97,0,

265,395,0,100,97,0,

263,391,0,100,97,0,

263,391,0,99,96,0,

261,387,0,99,96,1,

259,386,0,98,95,0,

259,384,1,98,95,0,

257,382,0,97,94,1,

255,379,1,97,94,0,

254,377,0,96,94,0,

253,376,0,96,93,0,

252,373,0,99,93,0,

251,371,0,104,92,0,

249,369,0,103,92,0,

248,367,0,103,91,0,

248,365,0,103,91,1,

321,368,0,102,90,0,

341,454,0,102,89,0,

339,450,0,101,89,0,

337,447,0,100,89,0,

334,443,0,99,88,0,

332,441,0,99,88,0,

331,438,0,99,88,1,

329,435,0,98,87,0,

327,432,0,98,87,0,

325,430,0,98,86,1,

323,428,0,97,86,0,

321,425,0,97,85,0,

319,423,1,96,85,0,

318,419,0,96,84,0,

316,417,0,95,84,0,

315,415,0,95,83,0,

313,413,0,94,83,1,

312,411,0,94,83,0,

309,408,0,93,82,0,

308,406,0,93,82,1,

306,403,1,92,82,0,

305,401,0,92,81,0,

304,399,0,92,81,0,

302,397,0,92,80,0,

300,395,0,91,79,0,

299,391,1,90,79,0,

297,390,0,89,79,0,

295,388,0,90,79,0,

294,385,0,89,78,0,

292,384,0,89,78,0,

291,381,0,89,78,0,

289,380,0,89,77,0,

287,377,1,89,77,0,

287,376,0,88,77,0,

286,415,0,88,76,0,

284,412,0,87,76,0,

283,409,0,87,76,0,

281,407,0,87,75,0,

280,404,0,86,75,0,

278,402,0,86,75,0,

277,399,0,85,74,0,

275,398,0,85,74,0,

274,395,0,84,73,1,

273,393,1,84,73,0,

271,390,1,83,73,0,

270,388,0,83,71,0,

269,386,0,83,71,0,

268,384,1,83,71,0,

266,382,0,82,71,1,

265,379,0,82,71,0,

263,377,0,82,71,1,

263,376,0,81,71,0,

261,373,0,85,71,0,

260,371,0,84,70,1,

259,369,0,83,70,0,

258,367,0,83,69,0,

255,365,0,83,69,0,

255,364,0,83,69,0,

254,361,0,82,69,0,

253,359,0,81,68,0,

251,358,0,81,68,0,

250,355,0,81,67,0,

249,354,0,81,67,0,

248,353,1,79,67,0,

247,350,0,79,67,0,

246,349,0,79,67,0,

244,347,0,79,66,0,

243,345,0,79,66,0,

242,343,0,78,65,0,

241,342,1,78,65,0,

240,340,0,78,65,1,

239,338,0,77,65,0,

238,337,0,77,65,0,

237,335,0,77,64,0,

236,333,0,76,63,1,

235,332,1,76,63,0,

233,330,0,76,63,0,

233,327,0,75,63,0,

231,327,0,75,63,0,

231,326,0,75,70,0,

229,323,0,74,70,0,

229,322,0,74,69,0,

291,321,0,74,69,1,

288,319,0,73,69,0,

286,317,0,73,68,0,

285,316,0,73,67,0,

284,314,0,71,67,0,

281,312,0,71,67,1,

280,312,0,71,66,0,

279,310,0,71,66,0,

277,308,0,71,66,0,

275,307,0,71,66,0,

275,305,0,70,65,0,

273,304,0,70,65,0,

271,303,0,70,65,0,

270,301,0,70,64,0,

269,300,0,69,64,0,

268,298,1,69,63,0,

266,295,0,68,63,0,

263,295,1,68,63,0,

263,294,0,68,62,0,

262,293,0,71,63,0,

260,291,0,71,62,0,

259,290,0,70,62,0,

304,288,0,69,62,0,

301,287,1,69,62,0,

300,286,0,69,61,1,

298,284,0,68,61,0,

295,284,0,67,61,0,

295,281,1,67,60,0,

293,281,0,67,60,0,

291,280,0,76,60,0,

290,278,0,75,60,0,

288,277,0,75,59,0,

287,275,0,75,59,0,

286,275,0,74,59,0,

284,273,0,73,58,0,

283,271,0,73,81,0,

281,271,0,73,79,0,

280,269,0,73,79,0,

278,268,0,71,79,0,

276,267,1,71,78,1,

275,266,0,71,79,1,

274,263,0,74,78,0,

271,263,0,73,77,0,

271,262,0,73,77,0,

270,261,0,73,77,0,

268,259,0,71,76,0,

267,259,0,71,76,0,

265,257,0,71,75,0,

263,255,0,71,75,0,

263,255,0,71,75,0,

262,254,0,70,75,0,

260,253,0,70,74,0,

259,252,0,88,73,0,

258,251,1,88,73,0,

255,249,0,87,73,0,

255,249,0,87,71,0,

254,247,0,86,71,0,

253,246,0,86,71,0,

251,245,0,85,71,0,

250,244,0,85,71,0,

249,243,1,84,71,0,

248,242,0,84,70,0,

246,241,0,83,70,0,

245,240,0,83,70,0,

243,239,0,83,69,1,

243,238,0,82,69,0,

242,237,0,83,88,0,

241,236,0,82,87,0,

240,235,0,82,86,0,

238,233,0,81,86,0,

237,231,0,81,85,0,

236,231,0,81,85,0,

235,231,0,79,85,0,

234,230,0,79,83,0,

231,229,0,79,83,0,

231,227,1,79,83,0,

231,227,0,78,83,0,

230,225,0,78,82,0,

228,225,0,78,82,0,

227,224,0,77,81,0,

226,223,0,77,81,0,

225,222,0,77,80,1,

224,221,1,76,79,0,

224,220,0,76,79,0,

222,220,0,76,79,0,

221,219,0,75,79,0,

220,217,0,75,78,0,

219,217,0,75,78,0,

219,216,1,75,78,0,

217,215,0,75,77,0,

216,214,0,74,77,0,

216,213,0,74,77,0,

215,211,0,73,76,0,

214,211,0,73,76,0,

213,210,0,73,76,0,

211,209,0,72,75,0,

211,209,0,71,75,0,

210,207,0,71,74,0,

209,207,1,71,74,0,

208,206,0,103,73,0,

207,205,0,121,73,0,

206,204,0,120,71,0,

206,203,0,120,71,0,

204,202,0,118,71,1,

204,201,0,118,71,0,

203,199,0,117,71,0,

202,199,0,117,71,0,

201,199,0,116,70,0,

199,198,0,115,70,0,

199,197,0,115,70,0,

198,196,0,114,69,0,

197,195,0,114,69,0,

196,195,0,113,69,0,

195,193,0,112,68,0,

195,193,0,112,67,0,

194,192,0,111,67,0,

193,191,0,111,67,0,

192,190,0,110,67,0,

191,189,0,109,67,0,

190,214,0,109,66,0,

190,212,0,108,66,1,

189,211,0,108,65,0,

188,210,1,107,65,0,

187,208,0,107,65,0,

186,207,0,106,64,0,

185,207,0,106,64,0,

184,205,0,105,63,0,

184,204,0,104,63,0,

183,203,0,103,63,0,

182,202,0,103,63,0,

181,201,0,103,62,0,

180,248,0,103,62,0,

179,246,1,102,62,0,

179,245,0,102,61,0,

178,243,0,101,61,0,

177,242,0,101,61,0,

176,241,0,100,60,0,

176,239,0,99,60,0,

175,238,0,99,60,0,

174,237,0,98,59,0,

173,236,0,98,70,0,

173,234,0,98,70,0,

172,233,1,97,69,0,

172,231,0,97,69,0,

171,231,0,96,68,0,

170,230,0,96,68,0,

169,228,0,96,67,0,

167,227,0,95,67,0,

167,226,0,95,67,0,

167,225,0,94,70,0,

167,224,0,94,69,0,

166,223,0,93,70,1,

165,222,0,93,69,0,

164,220,0,93,68,0,

164,220,0,92,68,0,

163,218,0,92,67,0,

162,217,0,91,67,0,

162,217,1,103,67,0,

161,216,0,126,67,0,

160,214,0,125,66,0,

159,213,0,125,66,0,

159,211,0,124,65,0,

158,211,0,124,65,0,

157,209,0,123,65,0,

157,208,0,122,64,1,

156,207,0,121,64,0,

155,206,0,121,63,0,

155,205,0,120,63,0,

154,205,0,120,64,0,

153,204,0,119,63,0,

153,203,0,118,63,0,

152,201,0,118,63,0,

152,199,0,117,63,0,

151,199,0,117,62,0,

150,199,0,116,62,0,

150,198,0,115,62,0,

149,196,0,115,61,0,

149,237,0,115,61,0,

147,266,0,114,61,0,

147,265,0,113,61,0,

146,263,0,112,60,0,

146,261,0,112,60,0,

145,259,0,112,60,0,

144,258,0,111,59,1,

144,257,0,110,59,0,

143,255,0,110,59,0,

172,254,0,109,58,0,

171,252,0,109,58,0,

170,251,0,108,57,0,

169,249,0,108,57,1,

167,248,0,107,57,0,

167,247,0,107,57,0,

166,246,1,106,57,0,

165,243,0,105,56,0,

165,243,0,105,56,0,

163,241,0,105,56,0,

163,240,0,103,56,0,

162,239,0,103,56,0,

161,238,0,103,56,0,

160,236,0,102,55,0,

159,235,0,102,55,0,

158,234,0,101,54,0,

158,231,0,101,54,0,

157,231,0,100,53,0,

156,230,0,100,53,0,

155,229,0,99,53,0,

155,228,0,99,53,0,

154,227,0,99,53,0,

153,225,0,98,52,0,

153,225,0,98,52,0,

152,224,0,97,51,0,

151,223,0,96,51,0,

151,222,0,96,51,0,

150,221,0,96,51,0,

149,219,0,96,51,0,

148,218,0,95,51,0,

147,217,0,94,51,0,

146,216,0,94,50,0,

146,216,0,94,50,0,

145,215,0,93,50,0,

145,213,0,93,50,0,

143,212,0,92,49,0,

143,211,0,92,49,0,

143,210,0,92,49,0,

142,209,0,91,49,0,

142,207,0,91,49,0,

141,207,0,91,48,0,

141,206,0,90,48,0,

140,205,0,89,48,0,

140,204,0,89,48,0,

139,203,0,89,48,0,

138,203,0,88,47,0,

137,201,0,88,47,0,

137,199,0,88,47,0,

135,199,0,87,47,0,

135,273,0,87,46,0,

135,271,0,86,46,0,

135,269,0,86,46,0,

134,268,0,86,46,0,

134,266,0,85,47,0,

133,265,0,85,50,0,

133,263,0,84,49,0,

132,262,0,84,49,0,

131,261,0,83,49,0,

131,259,0,83,49,0,

130,258,0,83,48,0,

130,255,0,82,48,0,

129,255,0,82,48,0,

129,254,0,82,48,1,

128,252,0,81,48,0,

127,251,0,81,47,0,

127,249,0,81,47,0,

127,249,0,80,47,0,

126,247,0,79,46,0,

144,246,0,79,46,0,

148,244,0,79,46,0,

147,243,0,79,46,0,

146,242,0,78,46,0,

145,241,0,78,45,0,

145,240,0,78,45,0,

143,238,0,79,45,0,

143,238,0,82,44,0,

143,236,0,81,45,0,

142,235,0,81,44,0,

141,234,0,80,44,0,

140,231,0,80,44,0,

140,231,0,79,44,0,

139,231,0,79,43,0,

139,229,0,79,43,1,

137,228,0,79,43,0,

137,227,0,78,43,0,

135,226,0,78,42,0,

135,225,0,77,42,0,

135,224,0,77,42,0,

135,223,0,76,42,0,

134,222,0,76,42,0,

133,221,0,76,41,0,

133,220,0,76,41,0,

132,219,0,75,41,0,

131,217,0,75,41,0,

131,216,0,74,41,0,

130,216,0,74,41,0,

130,214,0,74,39,0,

129,214,0,73,39,0,

128,212,0,73,39,0,

127,211,0,73,39,0,

127,210,0,71,39,0,

126,209,0,71,39,0,

219,208,0,71,39,0,

226,207,0,71,39,0,

224,206,0,71,39,0,

223,206,0,71,71,0,

221,204,0,71,71,0,

220,204,0,70,71,0,

219,202,0,70,71,0,

218,201,0,70,71,0,

216,199,0,69,70,0,

216,199,0,69,70,0,

215,199,0,68,70,0,

213,198,0,68,69,0,

212,197,0,68,69,0,

211,196,0,67,68,0,

210,195,0,67,68,0,

209,195,0,67,68,0,

207,193,0,67,67,0,

207,193,0,66,67,0,

206,192,0,66,66,0,

205,191,0,66,66,0,

204,190,0,66,66,0,

203,189,0,65,66,0,

202,212,0,65,65,0,

199,217,0,65,65,0,

199,216,0,65,64,0,

199,214,0,64,64,0,

198,213,0,63,63,0,

197,213,0,63,63,0,

196,211,0,63,63,0,

195,210,0,63,63,0,

194,209,0,63,62,0,

193,208,1,143,116,0,

192,207,0,142,114,0,

192,205,0,141,113,0,

190,204,0,140,113,0,

189,203,0,140,112,0,

188,202,0,138,111,0,

251,245,0,137,111,0,

346,326,0,135,110,0,

343,322,0,135,109,0,

340,319,0,135,109,0,

337,317,0,135,108,0,

335,315,0,134,108,0,

333,313,0,133,107,0,

331,312,0,132,106,0,

329,310,0,131,106,0,

327,307,0,131,105,0,

325,306,0,131,105,0,

323,304,0,129,103,0,

321,303,0,129,103,0,

319,300,0,128,103,0,

317,299,0,127,102,0,

316,297,0,127,102,0,

314,295,0,126,101,0,

312,294,0,126,101,0,

310,292,0,125,100,0,

308,290,0,124,99,0,

307,288,0,124,99,1,

305,287,0,123,99,0,

304,286,0,122,98,0,

302,284,0,122,98,0,

300,283,0,121,97,0,

298,281,0,121,97,0,

297,280,0,120,96,0,

295,278,0,120,96,0,

294,277,0,120,95,0,

292,275,0,118,95,0,

290,274,0,118,94,0,

289,272,0,117,94,0,

287,271,0,117,93,0,

286,270,0,116,93,0,

285,268,0,115,92,0,

283,267,0,115,92,0,

281,265,0,114,91,0,

280,263,0,114,91,0,

279,263,0,113,90,0,

277,262,0,113,90,0,

276,260,0,112,89,0,

275,259,0,112,89,0,

273,257,0,111,89,0,

271,255,0,110,89,0,

270,255,0,110,88,0,

269,253,0,110,88,0,

268,252,0,109,87,0,

266,251,0,109,87,0,

265,249,0,108,86,0,

263,248,0,108,86,0,

263,247,0,107,86,0,

261,246,0,107,85,0,

259,245,0,106,85,0,

259,243,0,105,83,0,

257,242,0,105,83,0,

255,241,0,104,83,0,

254,240,0,103,83,0,

253,239,0,103,82,0,

252,238,0,103,82,1,

251,236,0,103,82,0,

249,235,0,102,81,0,

248,234,0,102,81,0,

247,233,0,101,80,0,

246,231,0,101,80,0,

245,231,0,100,79,0,

243,230,0,99,79,0,

242,229,0,99,79,0,

241,227,0,99,79,0,

240,227,0,98,78,0,

239,225,0,98,78,0,

238,224,0,97,77,0,

237,223,0,97,77,0,

236,222,0,96,77,0,

235,221,0,96,76,0,

233,220,0,96,76,0,

231,220,0,96,76,0,

231,218,0,95,76,0,

231,217,0,95,75,0,

230,216,0,94,74,0,

228,216,0,93,74,0,

227,214,0,93,73,0,

226,213,0,93,73,0,

225,212,0,92,73,0,

224,211,0,92,73,0,

224,211,0,91,73,0,

222,209,0,91,71,0,

221,209,0,91,71,0,

221,207,0,90,71,0,

219,206,0,90,71,0,

219,206,0,89,71,0,

217,205,0,89,70,0,

217,204,0,89,70,0,

216,203,0,88,70,0,

215,202,0,88,69,0,

214,201,0,87,69,0,

212,199,0,88,69,0,

211,199,0,86,68,0,

211,199,0,86,68,0,

210,198,0,86,67,0,

209,197,0,85,67,0,

207,196,0,85,67,0,

207,195,0,85,67,0,

206,194,0,84,66,0,

205,194,0,83,66,0,

204,193,0,83,66,0,

204,192,0,83,66,0,

203,192,0,83,65,0,

201,190,0,83,65,0,

201,189,0,82,65,0,

199,189,0,82,64,0,

199,188,0,81,63,0,

198,187,0,81,63,0,

197,186,0,81,63,0,

197,185,0,80,63,0,

195,185,0,79,62,0,

195,184,0,79,63,0,

194,184,0,79,62,0,

193,183,0,79,62,0,

192,182,1,79,62,0,

192,181,0,78,61,0,

191,180,0,78,61,0,

190,179,0,77,60,0,

189,179,0,77,60,0,

188,178,0,77,60,0,

188,177,0,77,60,0,

187,176,0,76,60,0,

186,176,0,76,60,0,

185,175,0,75,59,0,

184,174,0,75,59,0,

184,173,0,75,59,0,

183,173,0,75,58,0,

182,172,0,74,57,0,

181,172,0,73,57,0,

180,171,0,73,57,0,

179,170,0,73,57,0,

179,169,0,73,57,0,

178,167,0,71,56,0,

177,167,0,71,56,0,

176,167,0,71,56,0,

176,167,0,71,56,0,

175,166,0,71,56,0,

175,165,0,89,56,0,

174,164,0,155,55,0,

173,163,0,153,55,0,

172,163,0,153,54,0,

171,162,0,152,54,0,

171,161,0,151,54,0,

170,161,0,150,53,0,

169,159,0,150,53,0,

167,159,0,149,53,0,

167,159,0,147,53,0,

167,158,0,147,53,0,

166,158,0,146,52,0,

165,157,0,145,52,0,

164,156,0,145,51,0,

163,156,0,143,51,0,

163,155,0,143,51,0,

162,154,0,142,51,0,

162,153,0,142,51,0,

161,153,0,141,50,0,

159,152,0,140,50,0,

159,152,0,140,50,0,

159,151,0,139,49,0,

158,150,0,138,49,0,

158,149,0,137,49,0,

157,211,0,137,49,0,

156,225,0,135,48,0,

155,224,0,135,48,0,

155,222,0,135,48,0,

154,221,0,134,48,0,

153,219,0,133,48,0,

153,219,0,133,48,0,

152,217,0,131,48,0,

152,216,0,131,47,0,

151,215,0,131,47,0,

150,214,0,130,46,0,

149,212,0,129,46,0,

149,211,0,129,46,0,

147,211,0,128,46,0,

147,209,0,127,46,0,

147,208,0,127,45,0,

147,207,0,126,45,0,

145,206,0,126,47,0,

145,205,0,125,47,0,

144,204,0,125,47,0,

143,202,0,124,46,0,

143,201,0,124,46,0,

143,199,0,123,46,0,

142,199,0,122,46,0,

141,198,0,121,45,0,

141,197,0,121,45,0,

140,196,0,120,45,0,

140,195,0,120,45,0,

139,194,0,119,45,0,

138,194,0,119,44,0,

137,193,0,118,44,0,

137,192,0,117,44,0,

137,190,0,117,44,0,

135,190,0,118,43,0,

135,188,0,117,43,0,

135,188,0,117,43,0,

134,187,0,116,43,0,

