
22,14,4,38,24,4,

22,14,4,38,49,4,

22,14,4,39,48,3,

21,14,4,38,48,4,

22,13,3,37,48,3,

22,13,3,37,48,5,

21,13,4,37,48,3,

22,14,3,38,48,3,

21,13,3,37,47,3,

21,13,4,37,48,3,

21,13,3,38,46,4,

21,13,4,36,47,4,

21,13,4,37,46,4,

20,13,4,37,46,3,

21,13,4,36,46,4,

20,13,3,35,46,4,

21,13,3,36,46,4,

20,13,4,36,45,4,

20,12,4,36,46,4,

20,12,4,35,44,3,

19,13,4,35,45,3,

21,12,3,35,44,3,

19,12,4,35,45,3,

20,12,3,35,44,3,

19,13,4,35,44,4,

19,12,4,35,44,4,

19,12,4,35,44,4,

19,12,3,34,43,4,

19,12,4,34,43,3,

19,12,4,34,43,4,

19,12,4,35,43,4,

19,13,4,34,43,4,

19,12,3,34,43,4,

19,12,5,34,41,4,

19,12,3,33,42,4,

18,12,3,34,41,4,

18,12,3,33,41,4,

18,12,4,33,41,3,

18,12,5,33,41,3,

18,11,4,33,41,4,

18,11,3,32,41,4,

18,12,4,32,41,4,

18,11,4,33,41,4,

18,11,4,32,39,4,

17,11,4,33,39,4,

17,11,4,32,39,4,

17,11,4,31,39,5,

17,11,4,31,39,4,

18,12,3,31,39,5,

20,11,4,31,39,3,

19,11,4,31,39,4,

20,11,4,31,39,4,

20,11,3,31,39,5,

20,11,4,31,38,3,

28,11,4,31,38,3,

35,11,3,31,39,4,

34,12,4,30,38,4,

34,11,4,30,38,4,

34,11,4,31,38,5,

34,11,3,29,38,4,

33,10,3,30,37,3,

34,10,4,30,37,3,

32,10,3,30,37,4,

33,11,4,30,37,4,

32,11,3,30,37,4,

32,10,4,29,37,4,

32,10,3,29,41,4,

31,11,4,30,44,4,

31,11,4,29,44,3,

31,11,3,29,44,3,

31,11,3,29,44,4,

31,10,3,29,44,4,

31,10,4,28,43,5,

31,10,3,28,44,4,

31,10,4,28,43,3,

30,9,3,28,43,3,

30,10,3,29,43,3,

31,10,3,28,42,4,

30,10,4,28,42,3,

30,11,4,28,42,4,

30,11,3,27,47,4,

30,11,5,27,47,4,

30,11,3,27,45,3,

30,12,4,27,45,4,

30,11,4,28,45,3,

29,11,4,27,46,4,

29,11,4,28,45,3,

29,11,4,27,45,3,

29,11,3,27,44,4,

29,11,4,27,45,3,

28,11,4,26,44,4,

28,11,3,27,44,4,

28,10,3,26,44,4,

28,11,4,26,44,3,

28,11,3,26,44,3,

28,11,4,25,43,4,

27,11,4,26,43,4,

27,11,4,25,43,5,

28,11,3,26,42,3,

28,11,4,25,43,4,

28,11,4,25,42,3,

27,10,3,26,42,3,

27,10,3,26,41,4,

27,10,4,25,41,4,

27,10,4,25,41,4,

26,9,4,24,41,3,

27,10,3,25,41,3,

26,9,4,25,41,4,

26,10,4,25,41,3,

25,11,4,24,41,4,

25,9,4,24,41,3,

26,9,3,24,39,3,

26,11,4,24,40,3,

25,9,3,24,39,4,

25,9,4,24,39,4,

26,9,3,23,39,3,

24,9,4,24,39,4,

25,10,4,24,39,3,

25,10,4,24,39,4,

24,10,4,24,39,4,

25,9,3,24,39,4,

24,10,3,24,39,3,

24,9,4,23,38,3,

24,9,3,23,38,4,

25,10,3,23,38,3,

24,9,3,22,38,4,

24,10,3,23,38,4,

24,9,3,23,38,4,

24,9,3,23,37,3,

24,9,4,22,37,3,

24,9,3,22,37,3,

24,9,4,22,37,3,

24,9,3,22,37,3,

23,10,3,22,42,4,

23,10,4,67,42,3,

23,9,3,66,43,3,

22,9,4,65,41,4,

23,9,4,65,41,3,

22,9,3,65,42,4,

23,9,4,65,41,4,

22,9,4,63,41,3,

22,9,3,63,41,3,

22,9,3,63,41,3,

22,9,4,63,41,3,

22,9,3,62,39,3,

21,9,4,63,39,3,

22,9,3,62,41,3,

22,9,3,62,40,3,

21,9,4,62,41,3,

22,7,3,62,39,4,

22,8,4,61,39,3,

22,8,4,61,39,4,

22,7,3,61,39,3,

21,8,3,60,39,3,

22,8,4,60,39,3,

22,7,4,60,39,3,

21,7,3,60,39,3,

21,7,4,60,39,3,

21,7,3,59,38,3,

21,9,3,59,39,4,

20,7,3,59,39,4,

20,7,4,59,54,3,

31,11,4,58,53,4,

36,12,4,58,54,3,

35,12,3,59,53,4,

36,12,3,57,52,3,

36,13,3,57,52,4,

35,12,3,57,51,4,

35,12,4,57,52,3,

117,17,3,56,51,4,

120,45,4,57,51,3,

119,48,3,56,51,3,

118,48,4,56,50,3,

117,47,3,56,51,4,

117,47,3,56,51,3,

116,47,4,56,50,4,

115,46,3,55,50,3,

115,46,4,55,50,4,

158,47,5,54,50,3,

163,48,3,54,49,3,

162,48,3,54,49,3,

160,47,4,54,49,3,

159,47,3,53,48,3,

171,49,3,53,49,4,

268,124,4,53,48,4,

370,214,4,54,48,4,

465,289,4,52,48,3,

460,286,4,52,47,3,

455,283,3,52,48,3,

453,282,4,51,47,4,

449,280,3,51,47,3,

446,278,4,51,46,3,

443,277,4,51,46,3,

440,275,3,50,46,4,

438,274,3,51,47,4,

435,272,3,51,46,3,

432,271,3,50,45,3,

430,269,4,50,46,4,

427,268,3,49,45,4,

425,266,4,49,45,4,

422,263,3,49,45,4,

419,263,4,49,45,3,

415,262,3,49,44,4,

414,261,3,49,45,4,

412,260,4,48,44,3,

409,258,4,48,44,3,

408,257,4,48,43,3,

404,255,3,48,43,5,

403,254,3,47,43,4,

399,253,4,47,42,5,

398,252,3,47,45,4,

396,251,3,47,45,4,

393,249,4,47,45,4,

391,248,4,46,45,4,

390,247,4,46,44,4,

387,245,3,45,44,4,

385,245,4,45,44,5,

383,243,4,45,43,4,

380,242,5,45,43,4,

379,241,4,45,43,3,

376,239,3,45,43,3,

374,238,3,44,42,3,

372,237,4,45,42,4,

371,236,4,44,42,4,

368,235,3,44,41,3,

366,235,4,44,41,5,

366,233,4,44,41,4,

364,231,4,44,42,5,

361,231,4,44,42,4,

359,230,4,43,41,4,

358,229,5,43,42,5,

355,227,5,43,41,4,

354,227,4,42,39,5,

353,226,5,43,42,5,

351,224,5,42,41,5,

349,223,5,42,41,5,

347,222,5,41,42,6,

345,221,6,42,41,5,

344,220,5,41,41,6,

342,220,6,41,39,5,

339,219,6,41,41,6,

338,217,6,40,39,6,

335,217,6,39,41,6,

335,216,7,39,39,5,

333,215,6,41,39,6,

331,213,6,39,39,7,

330,213,6,39,39,6,

329,211,7,54,39,7,

327,211,7,54,39,6,

325,209,7,54,39,7,

323,209,7,53,39,6,

321,207,6,53,38,6,

319,207,7,52,38,7,

319,206,7,52,38,7,

317,205,7,53,38,6,

316,204,7,102,38,6,

313,203,7,103,37,7,

312,202,7,103,38,6,

312,201,7,102,37,7,

310,199,7,101,37,7,

307,199,7,101,36,7,

307,199,7,100,36,7,

304,197,7,99,36,7,

304,197,7,99,35,7,

302,196,7,99,36,7,

300,195,7,98,36,7,

299,194,7,98,35,7,

297,193,7,97,35,7,

295,193,7,97,52,7,

295,191,7,96,68,7,

294,191,7,96,68,7,

291,190,7,96,67,7,

291,189,7,95,67,7,

289,188,7,94,67,7,

287,187,7,94,66,7,

287,186,7,94,66,7,

286,185,7,94,66,7,

285,185,7,92,65,7,

283,184,7,92,65,7,

281,183,7,92,65,7,

280,183,7,92,64,7,

280,182,7,91,64,7,

277,180,7,91,63,7,

277,180,7,90,63,7,

275,179,7,90,63,7,

275,178,7,89,63,7,

272,177,7,89,63,7,

271,177,7,88,62,7,

271,177,7,88,61,7,

269,175,7,88,61,7,

268,175,7,88,61,7,

267,174,7,87,61,7,

266,173,7,87,76,7,

263,172,7,87,75,7,

263,172,7,85,74,7,

262,171,7,86,75,7,

261,171,7,84,74,7,

259,169,7,84,73,7,

258,169,7,84,73,7,

258,167,7,84,72,7,

255,167,7,83,73,7,

255,166,7,83,71,7,

254,166,7,83,71,7,

253,165,7,83,71,7,

252,164,7,83,71,7,

251,163,7,96,86,7,

250,163,7,130,85,7,

248,163,7,129,84,7,

247,162,7,127,83,7,

246,161,7,127,83,7,

245,159,7,126,82,7,

243,159,7,126,83,7,

243,159,7,125,81,7,

242,157,7,124,81,7,

241,157,7,124,107,7,

239,156,7,123,135,7,

237,156,7,122,135,6,

237,155,7,121,133,7,

236,154,7,121,132,7,

235,153,7,121,131,7,

234,153,7,120,130,7,

231,152,7,119,129,7,

231,151,7,118,129,6,

230,151,7,119,129,7,

229,149,7,118,127,7,

227,149,7,118,127,7,

227,149,6,117,126,6,

225,147,6,116,126,7,

225,147,6,115,125,7,

224,146,6,115,124,7,

222,146,6,114,124,7,

222,156,7,114,123,6,

220,155,6,114,122,6,

220,155,6,113,121,7,

219,154,7,112,121,6,

218,153,6,112,120,6,

217,152,7,111,120,6,

216,152,6,118,120,6,

215,150,6,117,118,7,

214,150,7,117,119,6,

212,150,6,116,118,7,

212,149,6,115,117,6,

210,147,6,114,116,7,

209,146,6,115,115,7,

208,146,6,114,115,6,

207,145,7,113,114,7,

207,145,6,112,114,6,

206,143,6,112,113,6,

205,143,5,111,112,6,

204,143,6,110,112,6,

203,142,7,110,112,6,

202,141,5,110,111,6,

201,141,5,110,111,6,

199,140,6,108,110,6,

199,140,6,108,109,5,

199,139,5,108,109,6,

198,137,5,147,108,6,

197,137,7,170,136,7,

195,137,6,169,146,5,

195,135,5,167,143,6,

194,135,6,167,143,5,

193,135,6,166,143,5,

192,134,6,165,142,5,

192,134,5,163,141,6,

191,133,5,163,140,6,

190,133,5,162,139,6,

189,131,5,161,139,5,

188,131,5,159,137,5,

188,130,6,159,137,6,

186,130,5,159,137,6,

185,129,5,157,135,6,

185,129,5,157,135,6,

184,128,5,156,134,5,

183,127,6,156,134,5,

182,127,6,154,134,6,

182,126,5,153,132,6,

181,126,5,153,131,5,

180,125,5,152,131,5,

179,124,6,152,130,5,

178,124,5,151,129,5,

177,124,5,150,129,6,

177,123,5,149,129,6,

176,122,5,148,127,5,

176,122,5,147,127,5,

174,121,5,147,127,6,

173,121,5,146,125,5,

173,120,5,146,125,5,

172,120,5,144,125,5,

171,119,5,143,124,5,

170,119,5,143,123,5,

169,118,5,142,123,5,

169,117,4,142,122,5,

167,117,5,141,121,5,

167,115,5,140,121,5,

167,117,5,140,120,6,

166,115,5,140,120,5,

165,115,5,139,118,5,

164,115,5,138,119,5,

164,113,5,137,118,5,

163,113,5,135,117,6,

163,113,5,135,116,4,

162,113,5,135,116,5,

161,112,5,172,115,5,

160,112,5,171,115,5,

159,111,5,169,114,5,

159,110,4,169,114,5,

158,109,5,167,113,5,

157,109,4,167,112,5,

157,109,5,166,112,5,

156,108,5,165,111,5,

156,107,4,165,110,4,

155,107,5,163,110,5,

155,107,5,162,110,5,

153,106,4,163,109,5,

152,105,4,161,109,4,

152,105,5,159,108,5,

152,105,5,159,108,5,

151,103,4,159,107,4,

151,103,5,158,107,5,

150,103,4,157,106,5,

149,103,4,156,105,5,

148,102,4,155,105,5,

147,103,5,155,103,4,

147,102,4,153,103,5,

146,101,5,153,103,5,

145,101,4,152,103,4,

145,100,4,151,102,4,

144,100,4,151,102,4,

144,99,4,150,102,5,

143,99,4,149,101,4,

143,98,4,148,101,4,

142,99,4,148,99,5,

142,98,5,147,99,4,

140,97,4,146,99,4,

140,97,5,146,99,4,

140,96,4,145,98,5,

139,96,4,144,97,4,

138,96,5,144,98,5,

138,95,4,143,96,4,

137,95,5,143,96,4,

137,94,4,142,96,4,

135,95,5,141,95,5,

135,93,5,141,96,4,

135,93,4,140,95,5,

135,93,4,140,94,4,

135,92,5,161,94,4,

134,92,4,220,93,4,

133,92,4,217,93,4,

133,92,4,217,93,5,

132,91,4,215,92,4,

132,91,4,214,92,5,

131,91,4,213,92,4,

131,90,4,211,91,4,

130,90,5,210,90,3,

130,89,4,209,90,4,

129,89,3,207,89,5,

129,88,4,207,89,4,

128,88,4,206,89,4,

127,88,4,205,88,4,

127,88,5,205,88,3,

127,87,4,203,88,5,

127,87,4,203,88,4,

126,86,5,202,87,3,

126,86,3,199,87,5,

125,86,4,199,86,4,

124,85,4,198,86,3,

124,85,4,197,85,4,

123,85,5,196,85,4,

135,84,4,196,85,3,

149,85,4,195,85,4,

150,84,4,194,84,5,

150,84,4,193,83,4,

148,84,4,192,83,4,

147,83,4,191,83,4,

147,83,4,191,82,4,

146,82,4,189,82,4,

145,82,4,189,82,4,

144,82,5,187,81,4,

143,82,4,187,81,3,

143,81,4,187,81,4,

143,81,4,185,80,4,

142,81,3,185,80,3,

141,79,4,184,79,4,

140,80,4,183,79,4,

140,79,4,182,79,4,

139,79,4,181,78,5,

139,79,3,180,78,3,

137,79,4,179,78,4,

138,78,4,178,78,4,

135,78,4,177,77,3,

135,77,4,177,77,4,

135,77,4,176,77,4,

135,78,4,176,77,5,

134,77,4,175,77,4,

134,77,4,211,77,5,

133,77,4,209,76,3,

133,76,4,207,76,5,

131,76,3,207,76,4,

131,75,4,205,75,5,

130,76,4,205,75,5,

131,75,4,203,74,4,

130,74,3,202,74,4,

128,74,4,202,74,5,

128,74,4,201,74,5,

127,73,5,199,74,5,

127,143,4,199,75,4,

126,141,5,198,75,4,

126,140,4,196,74,4,

126,139,5,196,74,4,

125,139,3,195,73,4,

124,138,5,194,73,3,

123,137,4,193,73,4,

123,135,4,192,71,4,

123,135,4,191,71,5,

122,135,4,190,71,4,

121,134,4,189,71,4,

121,134,4,188,71,5,

120,133,3,187,71,4,

120,133,3,186,70,4,

120,131,3,185,70,4,

119,131,4,184,70,3,

119,130,3,184,69,4,

117,129,4,184,70,4,

117,129,4,182,69,4,

117,127,3,180,69,4,

116,127,4,180,68,4,

116,126,4,179,67,4,

115,126,4,178,67,4,

115,125,3,177,67,4,

114,125,4,176,67,4,

114,124,5,176,67,4,

113,124,4,175,67,4,

113,123,3,174,66,4,

112,123,4,173,66,3,

112,121,3,172,66,4,

112,121,4,172,65,4,

111,120,4,171,65,4,

110,120,3,170,65,4,

110,119,4,169,64,4,

109,118,3,169,64,4,

109,118,4,167,64,3,

109,117,4,167,63,5,

109,117,3,166,63,4,

109,116,3,166,63,3,

108,115,4,166,62,3,

108,115,4,164,63,4,

107,114,3,163,62,4,

106,114,3,163,62,4,

105,114,3,161,62,4,

105,113,4,161,62,3,

105,113,3,161,62,4,

104,112,3,159,62,4,

103,112,4,159,61,3,

103,111,4,158,61,4,

103,111,3,158,61,4,

103,110,4,156,60,5,

102,109,3,156,60,4,

102,109,5,156,60,4,

102,155,4,155,60,4,

101,154,4,154,114,5,

101,153,3,153,125,3,

99,153,3,152,123,3,

99,151,4,152,123,3,

99,150,4,151,121,4,

99,149,4,151,121,4,

98,149,4,150,120,4,

99,148,3,149,120,4,

99,147,3,149,119,3,

97,146,4,147,118,4,

97,146,4,147,117,3,

97,145,4,147,117,4,

96,144,4,146,116,4,

96,143,3,145,115,3,

96,142,4,145,115,3,

95,152,3,144,114,5,

96,169,4,143,114,3,

94,167,4,143,113,3,

94,167,3,142,113,4,

93,166,3,142,112,3,

94,165,4,141,112,4,

92,164,4,140,112,3,

92,163,4,141,110,3,

92,162,3,139,110,3,

92,161,3,138,110,4,

92,159,5,146,109,4,

91,159,4,147,108,3,

91,158,4,147,108,3,

90,158,4,146,108,3,

90,157,3,145,106,3,

89,156,3,144,107,4,

89,156,4,143,105,4,

88,154,5,143,105,4,

89,154,4,142,105,4,

88,152,3,141,103,3,

88,152,4,140,103,4,

88,152,4,140,103,3,

87,150,4,140,103,3,

86,150,3,139,102,3,

86,149,4,139,102,3,

86,149,4,138,101,3,

86,147,4,137,101,3,

86,147,4,135,101,4,

97,146,3,135,100,4,

97,145,4,135,99,4,

97,217,3,135,99,3,

96,214,4,134,98,4,

95,213,4,133,98,3,

94,211,3,133,97,4,

94,210,3,132,97,3,

93,209,4,131,96,3,

93,207,4,131,96,4,

93,207,4,131,96,4,

93,205,3,130,95,4,

92,205,4,130,94,4,

92,204,3,129,95,3,

91,203,4,129,94,4,

91,201,4,128,94,3,

91,199,3,127,93,3,

90,199,3,127,92,4,

89,199,4,126,92,4,

89,198,4,126,92,3,

89,197,3,125,91,3,

88,195,3,125,91,4,

88,195,3,124,91,4,

87,194,3,124,90,3,

88,193,3,123,89,3,

87,192,3,123,89,4,

87,191,4,122,89,3,

86,190,5,122,89,4,

86,190,4,121,88,3,

86,188,3,120,88,4,

84,188,4,120,88,3,

84,186,4,120,88,4,

84,185,3,120,86,3,

83,184,4,119,86,4,

83,184,4,119,86,4,

83,184,3,119,86,4,

82,182,3,118,85,3,

82,182,4,118,84,3,

82,180,4,117,89,4,

81,179,4,117,89,4,

82,179,4,115,89,3,

81,178,4,115,89,4,

81,176,4,115,89,3,

81,176,3,114,88,4,

80,176,3,114,88,3,

79,174,4,135,87,3,

79,174,4,135,87,4,

79,174,4,135,87,4,

79,172,3,134,87,3,

78,172,4,133,86,4,

78,171,4,133,86,4,

78,169,4,132,86,5,

77,169,4,131,85,3,

78,167,4,131,85,5,

78,167,3,130,83,4,

76,166,4,130,83,3,

76,166,4,129,83,4,

76,165,4,129,83,4,

77,164,4,177,83,4,

76,163,4,179,82,4,

76,163,4,178,82,3,

93,163,4,177,81,3,

92,162,5,176,81,4,

91,161,4,175,80,3,

90,160,4,174,81,3,

89,159,3,173,79,4,

89,158,3,172,79,4,

89,158,4,172,79,4,

88,157,4,171,79,4,

88,156,4,170,78,4,

88,156,4,169,78,5,

88,155,5,167,77,3,

87,155,4,167,77,4,

86,153,4,167,77,5,

85,153,3,166,78,3,

85,152,4,165,77,4,

86,152,5,163,76,4,

84,151,4,163,76,4,

83,150,4,163,76,4,

83,150,4,162,76,4,

83,149,4,161,75,3,

83,147,4,161,74,3,

82,147,3,159,75,4,

82,147,3,159,74,3,

81,147,5,158,73,3,

81,145,3,158,74,3,

81,145,4,157,73,3,

81,143,4,156,73,4,

80,143,3,156,71,4,

79,143,3,155,71,4,

79,143,3,154,71,3,

79,141,3,153,71,3,

79,141,3,152,71,3,

78,141,4,152,70,4,

78,140,4,152,71,3,

78,140,3,150,70,4,

77,139,3,150,70,3,

77,138,3,149,70,4,

76,137,4,148,69,3,

76,137,4,147,69,4,

76,137,3,147,69,3,

76,135,4,147,68,4,

75,135,4,145,68,3,

75,134,4,145,67,4,

74,133,4,145,67,4,

74,133,4,143,67,3,

73,132,4,143,67,4,

74,132,4,143,66,3,

73,132,3,142,66,4,

73,131,3,141,66,4,

72,130,4,141,66,3,

73,130,4,140,65,3,

71,130,3,140,65,4,

71,129,4,139,64,3,

71,128,4,138,64,4,

71,127,4,138,63,4,

71,127,3,137,63,5,

71,126,3,135,63,4,

71,126,4,135,63,3,

70,125,4,135,63,4,

69,125,4,135,63,3,

70,124,4,135,63,4,

69,138,4,134,65,4,

69,137,3,133,64,3,

68,137,4,133,64,3,

68,135,3,132,63,4,

67,135,3,131,63,4,

67,135,4,130,63,3,

67,134,3,130,63,4,

67,134,3,129,63,3,

67,133,4,129,63,3,

67,132,4,129,62,4,

67,131,3,127,62,3,

66,130,3,127,62,3,

66,130,3,127,61,3,

66,130,4,126,61,3,

66,129,4,126,61,4,

65,128,3,126,61,4,

65,127,3,125,60,3,

66,127,4,124,61,3,

64,126,4,124,60,5,

64,126,3,123,60,3,

64,125,3,122,60,4,

63,124,4,123,59,4,

63,124,4,121,59,3,

63,123,4,121,59,3,

63,123,4,121,59,4,

63,123,3,120,58,3,

63,121,4,120,58,3,

62,122,4,119,58,4,

62,121,4,119,57,4,

62,120,3,118,57,4,

62,120,4,118,57,3,

62,119,4,118,57,3,

61,119,3,116,57,4,

61,119,3,116,56,3,

61,118,3,115,56,3,

61,118,4,115,56,3,

60,117,3,114,56,4,

60,116,3,113,56,3,

59,115,3,114,55,3,

59,115,4,113,55,3,

60,115,3,112,54,3,

59,114,3,113,54,4,

58,115,4,112,54,3,

59,113,3,111,54,4,

58,113,3,111,54,4,

58,112,4,110,59,3,

58,111,3,110,59,4,

57,112,4,110,60,3,

57,110,4,110,59,3,

57,111,4,108,58,4,

57,109,3,108,58,4,

56,109,3,108,58,3,

56,109,3,107,57,3,

57,108,4,107,57,3,

57,108,3,107,57,3,

56,108,3,105,57,3,

56,107,3,105,56,4,

56,107,3,105,56,4,

55,106,3,105,56,3,

55,106,4,103,56,3,

54,105,4,103,56,5,

55,105,3,103,55,4,

54,105,4,103,55,4,

55,103,3,103,56,4,

55,103,4,102,55,4,

54,103,4,103,54,4,

55,102,3,102,54,3,

54,103,3,101,53,3,

54,102,3,101,53,4,

53,101,3,100,53,3,

54,101,4,100,53,3,

53,101,4,99,53,4,

52,100,4,99,53,4,

53,99,4,98,52,4,

52,99,4,99,52,3,

52,98,3,98,52,3,

52,99,4,98,51,4,

52,98,3,97,51,4,

51,98,4,97,51,4,

51,97,3,97,51,4,

51,97,4,97,50,4,

51,96,3,96,51,3,

51,97,4,96,51,4,

51,96,3,96,50,3,

51,96,4,95,50,3,

50,114,3,96,50,4,

49,113,3,94,50,4,

50,113,4,94,49,3,

50,112,3,93,49,3,

49,111,3,93,49,4,

49,111,3,93,49,4,

49,110,3,92,49,3,

49,109,3,92,49,3,

49,109,4,92,48,4,

49,109,4,91,49,3,

48,108,3,91,47,4,

49,108,4,91,55,4,

48,107,3,90,55,3,

48,107,3,89,55,4,

47,106,3,89,53,4,

49,105,3,89,55,4,

50,105,4,89,53,4,

49,105,4,89,54,3,

49,105,3,88,53,3,

49,103,4,88,53,3,

48,103,3,88,53,3,

48,103,3,88,52,3,

48,103,3,87,51,4,

48,102,4,87,51,4,

48,101,3,87,51,3,

47,101,4,86,50,3,

48,100,4,86,51,3,

48,99,4,85,50,4,

47,99,3,85,51,3,

48,99,4,85,50,4,

46,98,4,83,51,4,

47,98,4,84,49,3,

46,98,4,83,49,4,

46,97,3,83,49,4,

46,97,4,83,49,4,

46,96,3,83,49,4,

46,96,4,83,48,3,

45,96,4,83,48,3,

45,96,3,82,49,4,

46,95,3,81,48,4,

45,96,4,81,48,3,

45,94,4,81,48,3,

44,94,4,81,47,4,

44,94,4,80,48,3,

45,93,4,79,47,4,

45,93,4,80,47,4,

44,93,4,79,48,3,

44,92,3,79,47,4,

44,92,4,79,46,3,

44,92,3,79,46,4,

44,91,3,78,46,3,

43,90,3,78,46,4,

43,90,4,78,45,3,

43,90,5,77,45,3,

43,89,4,77,46,3,

43,89,4,77,45,3,

43,89,4,77,45,3,

42,88,3,77,45,3,

43,88,4,76,44,4,

42,88,4,77,44,4,

43,88,4,76,44,3,

42,88,4,76,45,4,

43,143,3,76,44,3,

42,142,3,75,44,4,

43,141,3,74,44,4,

41,140,3,74,44,4,

42,139,3,74,43,3,

41,139,4,73,43,4,

41,138,3,73,43,3,

41,137,4,73,43,4,

41,135,3,73,42,4,

41,135,4,72,42,4,

43,135,3,73,42,3,

42,135,3,71,62,4,

42,134,3,71,87,3,

41,133,4,71,86,3,

42,132,3,71,85,4,

41,132,4,71,85,4,

41,131,3,71,84,3,

40,130,4,70,83,4,

39,130,4,70,83,4,

39,129,3,70,83,3,

39,129,4,69,82,3,

39,127,4,69,82,3,

39,127,4,69,82,3,

39,127,5,69,81,3,

39,126,3,69,81,3,

39,126,3,68,81,4,

39,125,3,67,80,4,

39,124,4,67,79,4,

38,124,4,68,79,3,

38,124,3,67,79,4,

39,123,3,67,78,4,

48,122,4,67,78,4,

49,121,3,67,78,4,

49,122,4,66,78,3,

61,121,3,66,77,3,

61,121,3,66,77,3,

61,120,3,65,76,3,

60,119,4,65,92,3,

60,119,4,66,90,3,

60,119,4,65,89,3,

60,118,3,65,89,3,

59,118,3,65,89,4,

59,118,4,63,89,3,

58,117,4,64,89,3,

58,116,4,64,88,3,

58,115,4,63,88,4,

57,115,4,63,87,4,

57,115,3,62,87,4,

57,115,4,63,86,4,

57,113,3,62,85,3,

57,114,3,62,86,4,

56,113,4,62,85,4,

56,112,4,61,84,3,

56,112,3,61,84,4,

56,112,3,61,83,3,

56,110,3,61,83,3,

56,110,4,61,83,4,

56,110,3,60,82,4,

54,109,3,60,82,4,

55,109,4,60,82,3,

54,108,3,60,81,4,

54,108,4,59,81,3,

53,108,4,60,82,5,

53,107,4,59,81,3,

53,106,4,59,81,3,

53,107,5,59,81,3,

52,106,4,58,80,3,

51,105,4,59,79,3,

52,103,3,58,79,3,

52,103,3,58,79,3,

51,103,3,57,79,5,

51,103,4,57,79,4,

51,103,3,57,79,3,

51,102,3,56,78,3,

51,102,4,56,78,4,

50,101,4,56,77,3,

50,101,3,56,76,4,

50,100,3,56,76,3,

50,100,3,56,77,3,

49,101,4,56,76,3,

49,99,4,56,76,4,

48,99,3,55,75,4,

49,99,4,55,75,3,

48,98,3,55,75,4,

49,97,3,54,74,4,

48,97,3,55,74,3,

48,98,4,55,74,3,

48,96,4,54,73,3,

47,96,3,53,73,4,

47,96,3,53,73,4,

47,96,3,53,73,4,

47,95,4,53,71,3,

47,94,4,53,71,4,

47,95,4,53,71,3,

46,94,4,53,71,4,

46,94,3,53,71,4,

45,93,4,53,71,4,

46,93,3,52,71,4,

46,131,3,51,70,4,

45,128,4,51,69,3,

45,128,4,51,70,4,

45,127,3,51,70,3,

45,126,3,51,69,4,

45,126,4,51,68,3,

44,125,4,51,68,3,

43,124,3,50,67,4,

44,124,3,50,67,3,

44,124,4,50,67,3,

44,123,3,49,67,4,

43,123,4,49,66,3,

43,122,4,50,66,3,

43,121,4,49,66,4,

43,121,3,49,65,4,

42,121,4,49,65,3,

43,120,4,48,64,4,

42,120,3,48,64,4,

42,118,3,49,64,4,

41,118,4,48,64,4,

53,117,4,48,63,3,

53,116,4,48,63,3,

53,116,3,48,63,3,

51,115,3,48,63,4,

51,115,4,47,63,4,

51,115,4,47,62,3,

51,114,3,47,62,3,

50,114,3,46,62,4,

51,113,3,47,61,3,

51,113,3,46,62,3,

50,112,4,46,62,4,

50,112,4,46,61,4,

110,111,3,46,61,3,

109,111,4,45,60,3,

108,110,4,45,60,4,

108,110,3,45,59,3,

107,109,3,45,60,3,

105,109,3,45,59,3,

105,108,4,44,59,3,

105,107,4,45,59,3,

103,107,3,45,58,4,

103,106,3,44,58,4,

103,106,4,44,58,3,

103,105,3,44,57,4,

103,105,3,44,57,4,

102,103,3,44,57,4,

101,103,3,43,56,3,

100,103,4,43,57,3,

99,103,4,43,56,4,

100,103,3,42,56,3,

99,102,4,44,56,4,

99,102,4,43,56,3,

98,101,4,44,56,3,

98,100,4,43,56,4,

98,101,4,42,56,3,

97,100,4,43,56,3,

97,99,4,43,55,3,

96,99,4,42,54,3,

96,99,3,42,54,4,

96,98,3,42,54,3,

96,98,3,42,54,4,

94,98,4,59,53,3,

94,97,3,57,54,4,

94,97,3,58,53,3,

94,96,3,57,53,3,

93,95,3,57,52,4,

93,95,4,57,52,4,

92,94,3,56,52,4,

92,94,3,56,51,3,

91,94,3,56,52,4,

91,94,4,56,51,3,

90,93,3,56,51,4,

90,93,3,56,51,4,

89,93,3,55,51,3,

89,92,3,54,51,4,

89,92,4,63,51,4,

88,91,3,63,51,3,

88,91,3,63,51,4,

88,90,3,63,51,4,

88,90,3,62,50,4,

87,89,4,62,50,3,

87,90,4,62,50,4,

86,89,4,62,50,4,

86,88,3,61,50,4,

85,89,4,61,49,3,

85,88,4,61,49,4,

85,88,3,60,48,4,

85,88,3,60,48,4,

84,88,3,60,48,4,

84,87,4,60,49,4,

83,86,4,59,48,3,

83,86,3,59,48,3,

83,86,3,59,48,3,

82,85,3,59,48,4,

82,85,3,59,47,3,

82,84,3,58,47,3,

81,84,3,57,47,4,

81,83,3,57,47,3,

81,83,3,58,46,4,

80,84,3,57,47,4,

79,83,3,57,47,3,

79,82,4,57,46,3,

79,83,3,57,51,4,

79,83,4,56,61,3,

78,82,4,56,62,4,

78,82,3,56,61,4,

78,82,4,56,60,4,

77,81,4,56,60,3,

77,80,3,55,60,3,

77,79,3,55,60,4,

77,79,3,69,59,3,

76,79,3,69,60,4,

76,79,4,68,59,4,

76,79,4,69,58,4,

76,79,3,67,58,4,

76,79,4,67,64,4,

75,78,3,67,63,4,

75,78,4,67,63,5,

75,157,3,66,63,3,

75,155,4,66,63,3,

73,155,4,66,62,3,

73,153,4,65,62,3,

73,153,3,65,63,3,

72,152,4,65,61,4,

71,151,3,65,61,4,

71,151,3,64,62,4,

71,150,3,64,60,4,

71,148,4,65,60,4,

71,147,4,63,60,4,

71,147,3,63,60,3,

71,147,3,63,60,4,

70,146,3,63,60,3,

70,145,3,63,59,4,

70,143,3,63,59,3,

69,143,3,62,59,4,

69,143,3,62,59,4,

69,142,4,61,58,4,

68,142,3,61,58,4,

68,141,4,61,58,3,

68,140,4,60,57,4,

68,140,3,60,57,3,

67,139,3,60,56,4,

67,138,3,60,56,3,

67,137,3,59,56,4,

67,137,5,59,56,3,

67,136,4,59,56,4,

65,135,4,59,56,4,

65,135,3,59,55,4,

65,135,4,58,55,4,

66,134,3,58,55,4,

65,133,4,58,54,4,

63,133,3,58,53,4,

64,133,4,57,69,4,

64,131,4,115,85,4,

63,131,3,135,83,3,

63,131,3,135,83,3,

63,131,3,134,82,3,

63,129,3,133,83,4,

62,128,3,132,81,3,

62,128,3,131,81,3,

62,127,3,131,80,3,

62,127,3,130,81,4,

61,126,3,130,79,4,

61,125,4,129,79,4,

61,125,4,129,79,3,

61,124,3,127,79,4,

60,124,3,127,79,4,

60,123,4,127,78,3,

60,123,3,127,78,4,

60,121,3,126,77,4,

60,121,5,125,77,3,

59,121,4,124,77,3,

59,121,4,124,76,4,

60,120,3,123,76,3,

70,119,3,123,75,4,

71,119,4,122,75,3,

69,118,3,122,75,3,

69,117,3,120,74,4,

69,118,3,120,74,4,

68,117,4,120,74,4,

68,116,3,119,73,4,

68,115,4,119,73,3,

67,115,4,118,73,4,

67,114,4,118,71,4,

67,113,4,117,71,4,

67,113,4,117,71,4,

66,113,3,116,71,4,

66,112,3,116,71,4,

66,112,3,115,71,3,

65,112,3,115,70,4,

65,111,4,114,69,4,

65,110,3,114,69,3,

64,111,3,113,69,4,

63,109,3,112,68,3,

63,109,3,113,69,4,

63,109,4,111,67,3,

63,108,3,111,67,4,

63,108,3,111,68,4,

62,107,4,110,67,3,

62,107,4,109,67,3,

62,107,4,110,67,3,

61,105,4,108,66,3,

61,105,3,108,66,4,

61,105,3,108,66,4,

61,103,4,107,65,3,

60,103,4,106,65,4,

60,103,4,106,65,4,

75,103,4,106,65,4,

107,103,4,105,63,4,

107,102,3,105,64,4,

105,102,3,103,63,3,

106,101,3,103,63,3,

103,99,4,103,63,3,

103,99,3,103,63,4,

103,99,4,102,62,4,

103,99,4,102,62,3,

102,99,4,102,61,3,

102,98,4,102,62,3,

101,97,4,100,61,4,

101,123,4,100,61,3,

101,122,3,100,60,4,

99,122,3,99,60,4,

99,121,5,99,60,3,

99,120,3,98,59,4,

98,120,3,97,60,4,

98,120,3,97,60,4,

98,119,3,97,59,4,

96,118,4,97,59,4,

96,117,4,96,59,4,

96,116,3,96,59,4,

96,116,4,95,57,3,

96,115,4,96,58,4,

95,115,3,95,57,3,

94,115,4,94,57,3,

94,113,3,94,57,4,

94,114,3,93,56,3,

93,113,3,93,56,3,

92,112,4,93,56,4,

92,112,3,92,56,3,

92,111,4,92,56,3,

92,110,3,92,56,4,

91,110,4,92,56,4,

91,109,4,91,56,4,

90,109,3,91,55,4,

89,109,4,90,55,3,

89,109,4,90,54,4,

89,108,4,89,55,4,

89,107,4,89,54,4,

89,107,3,89,54,3,

87,106,3,88,53,4,

88,106,3,88,53,3,

88,105,4,88,53,4,

87,105,4,87,52,3,

86,103,4,87,52,4,

86,103,4,87,52,4,

85,103,3,87,52,3,

85,103,3,86,51,4,

84,103,4,85,51,3,

84,102,4,85,51,4,

83,102,4,85,51,4,

83,101,3,85,51,4,

83,100,3,84,51,3,

83,100,3,83,51,3,

82,99,4,83,51,3,

81,99,3,83,51,4,

81,99,3,82,50,4,

81,99,4,83,50,4,

81,98,4,82,49,4,

80,97,3,81,49,4,

80,97,3,81,50,3,

80,97,4,81,49,5,

85,96,3,81,49,4,

85,96,4,80,48,4,

83,96,4,80,49,3,

83,95,4,79,49,3,

82,94,3,79,48,3,

83,94,3,79,48,4,

83,94,4,79,48,3,

82,94,3,79,47,3,

82,93,3,79,47,3,

81,93,4,78,47,3,

81,92,4,78,46,4,

80,92,3,78,46,3,

80,92,4,77,47,4,

79,92,4,77,47,3,

79,91,4,77,45,3,

79,91,3,76,46,4,

78,90,4,76,47,3,

78,89,4,76,46,4,

78,89,4,76,45,4,

78,89,4,75,45,3,

78,89,4,75,45,4,

77,89,3,74,45,5,

77,88,4,75,45,4,

76,88,4,74,44,3,

76,88,3,74,44,4,

76,88,4,74,44,4,

76,87,3,73,44,4,

75,86,4,71,44,3,

75,86,4,71,44,4,

75,85,4,73,44,3,

74,86,4,71,43,3,

74,85,4,71,44,4,

73,85,3,71,43,3,

73,85,4,71,42,3,

73,84,4,71,43,3,

73,84,3,71,43,3,

73,83,3,70,41,3,

71,83,4,71,42,3,

71,83,3,70,41,3,

71,82,3,70,42,3,

71,82,3,70,42,5,

71,82,5,69,42,3,

71,82,3,68,41,4,

70,81,3,69,39,3,

70,81,3,68,40,3,

69,80,3,67,41,3,

70,80,3,68,41,4,

69,79,3,67,39,3,

69,79,4,67,39,3,

69,79,3,67,39,3,

69,79,4,67,39,3,

76,79,4,67,39,3,

76,78,4,67,39,3,

75,78,4,66,39,4,

75,78,4,65,39,4,

75,79,3,65,39,3,

74,78,3,65,39,4,

74,78,3,65,39,3,

74,77,3,65,39,3,

73,77,4,65,38,3,

73,77,4,64,38,3,

71,77,3,63,38,4,

71,76,3,63,38,4,

71,76,4,63,38,4,

71,76,3,63,38,3,

71,76,3,63,38,4,

71,75,4,62,37,4,

71,75,4,62,37,5,

71,128,3,62,38,3,

70,127,3,62,37,4,

70,126,5,61,37,4,

69,126,5,62,37,4,

69,126,3,61,36,3,

69,125,3,61,36,4,

68,124,4,61,36,3,

69,123,4,60,35,4,

68,123,4,60,36,3,

67,122,3,60,35,3,

67,121,3,60,35,4,

67,121,3,59,35,4,

66,120,4,60,35,3,

66,120,4,59,35,4,

66,119,4,59,35,3,

66,119,4,59,35,4,

66,119,3,59,35,4,

65,117,3,58,35,4,

64,117,4,57,34,3,

65,116,4,57,34,4,

64,115,3,57,34,3,

64,115,4,57,33,3,

63,115,3,57,33,3,

63,114,3,56,33,3,

63,114,3,56,33,4,

63,113,3,57,50,4,

63,113,4,56,49,4,

63,112,3,56,48,3,

62,112,3,55,48,4,

63,111,4,55,48,4,

62,111,4,56,48,3,

62,111,4,54,47,4,

62,109,4,55,47,3,

62,110,4,55,47,4,

61,109,4,54,46,4,

62,108,3,54,46,3,

61,108,3,54,46,3,

61,107,4,54,46,3,

60,107,3,53,47,3,

60,106,4,53,45,3,

60,106,4,52,46,3,

60,105,4,53,45,3,

60,105,3,52,45,3,

60,103,4,51,45,3,

59,103,3,51,45,3,

58,103,4,51,45,4,

58,103,4,51,44,3,

58,103,3,51,44,4,

58,102,3,51,44,4,

57,102,4,51,44,3,

57,102,4,51,47,3,

57,101,3,50,46,3,

57,100,4,50,46,3,

57,99,4,50,46,3,

56,123,3,50,46,4,

56,158,4,50,45,3,

56,156,3,49,45,3,

56,155,3,49,45,3,

56,155,3,49,45,3,

55,153,4,48,45,4,

54,153,3,48,44,3,

54,152,3,49,45,4,

55,152,4,49,44,4,

54,150,5,49,44,3,

54,150,4,48,43,4,

54,149,4,47,44,3,

53,148,3,47,43,4,

53,148,4,47,43,4,

53,147,4,47,44,4,

77,147,3,46,43,3,

76,145,3,47,43,4,

77,145,4,46,43,4,

76,143,3,46,41,3,

75,143,5,46,42,4,

75,143,3,46,41,3,

74,143,3,45,46,3,

74,142,4,46,45,3,

73,141,3,47,45,4,

74,140,3,46,45,3,

73,140,3,46,44,3,

71,139,3,46,45,3,

71,139,3,46,44,4,

71,138,3,45,44,3,

71,137,4,45,43,3,

73,135,4,45,43,3,

77,135,4,45,43,3,

77,135,3,45,44,3,

76,135,4,45,50,4,

76,134,3,44,50,4,

76,133,3,44,51,3,

76,132,3,43,50,3,

75,132,4,43,49,4,

75,132,3,43,49,4,

74,131,3,44,49,3,

74,131,3,43,49,4,

74,130,3,43,48,3,

73,129,3,42,48,3,

73,129,4,43,48,4,

72,128,4,42,48,3,

71,127,4,42,49,4,

71,127,4,41,48,4,

71,127,3,41,49,3,

71,126,4,41,48,3,

71,125,4,41,49,3,

70,124,5,41,48,3,

70,125,4,41,48,3,

70,124,3,41,47,3,

69,123,3,39,47,3,

69,123,4,41,47,3,

69,122,4,39,46,4,

69,122,3,39,54,5,

68,121,3,39,101,4,

68,121,3,39,101,4,

67,120,3,39,100,4,

67,120,3,39,99,4,

67,119,3,39,99,4,

66,118,3,39,98,4,

66,118,3,39,98,3,

66,118,3,39,97,4,

66,117,4,38,97,3,

66,116,3,38,96,4,

65,115,3,38,96,5,

64,115,3,38,95,4,

65,115,3,38,95,3,

64,114,4,46,94,3,

63,114,4,57,94,3,

63,113,3,57,93,3,

63,112,3,56,92,4,

63,112,3,56,92,4,

62,112,3,56,92,4,

62,111,3,56,91,3,

62,111,3,56,92,5,

62,111,5,55,91,4,

62,110,3,55,90,4,

61,109,3,54,89,3,

61,109,4,55,89,4,

60,109,3,54,89,3,

60,108,3,53,88,3,

60,108,4,53,88,3,

61,107,4,53,88,4,

59,107,4,53,88,4,

59,106,4,53,88,3,

59,105,4,52,87,4,

61,105,3,51,86,4,

67,105,3,52,86,3,

66,103,4,51,85,3,

65,103,3,51,85,3,

66,103,4,51,85,3,

64,103,3,51,84,4,

64,103,3,50,84,3,

65,102,3,51,83,4,

63,102,3,49,83,4,

63,101,4,49,82,4,

63,101,3,50,83,3,

63,100,4,49,82,3,

62,100,4,49,82,3,

62,100,3,49,82,5,

62,99,3,48,81,3,

62,99,4,48,81,4,

62,98,3,48,81,4,

61,97,3,48,80,4,

61,97,3,48,79,3,

61,97,3,47,79,4,

61,97,3,51,79,4,

60,96,3,51,78,3,

59,96,4,50,78,3,

59,96,3,50,78,3,

60,95,3,50,77,4,

59,94,3,49,77,3,

80,94,4,49,77,4,

93,95,4,49,77,3,

92,94,3,49,76,4,

92,93,3,48,77,3,

91,93,4,48,76,3,

90,92,3,48,75,5,

90,92,3,48,75,4,

90,92,4,48,75,3,

89,92,3,47,74,3,

89,92,4,48,74,4,

89,90,3,48,74,3,

88,90,3,47,74,4,

88,90,5,47,73,4,

88,89,4,47,73,4,

87,89,4,47,73,4,

86,89,3,46,73,4,

86,89,3,51,71,3,

86,88,4,71,71,4,

85,88,4,70,71,4,

86,88,3,70,71,3,

84,88,4,70,71,4,

83,87,4,69,71,4,

84,86,4,70,71,4,

83,87,3,69,70,3,

83,86,3,69,70,3,

83,86,3,69,70,4,

82,85,3,68,70,4,

82,85,3,67,69,5,

81,85,3,67,68,4,

82,83,3,67,68,5,

81,83,3,66,67,3,

80,83,4,66,69,4,

80,83,4,66,67,3,

79,82,4,66,67,3,

79,83,4,66,67,3,

79,82,4,65,67,4,

79,82,3,65,67,4,

78,81,3,64,66,3,

78,81,3,64,65,4,

77,81,3,63,66,4,

77,80,4,63,65,4,

78,81,4,63,65,4,

77,79,3,63,65,4,

76,79,3,63,65,3,

76,79,3,62,65,3,

76,79,4,62,65,4,

76,78,3,62,63,3,

75,78,3,61,63,5,

75,78,3,61,63,4,

75,78,3,61,63,3,

74,77,4,60,62,4,

73,77,4,60,62,4,

73,76,4,61,62,3,

73,76,3,60,62,3,

73,76,3,60,62,3,

73,76,3,59,61,4,

71,76,4,59,61,3,

71,75,3,59,61,4,

71,75,4,59,101,4,

71,74,3,58,100,4,

71,74,3,58,100,4,

70,74,3,57,100,3,

70,74,4,57,99,4,

70,73,5,57,98,3,

69,73,3,57,98,4,

70,71,5,57,98,3,

69,73,3,57,97,3,

71,73,4,56,97,4,

71,71,4,56,97,4,

71,71,3,56,96,3,

70,71,4,56,95,3,

69,71,3,56,95,5,

70,71,4,56,95,4,

69,70,3,56,94,4,

69,70,3,54,93,4,

68,70,3,55,93,3,

68,70,4,54,93,3,

67,70,4,54,92,4,

67,69,3,54,92,3,

67,69,3,54,92,4,

67,69,3,53,92,4,

67,69,4,53,91,4,

66,68,4,53,91,4,

67,68,3,52,90,4,

66,67,4,52,89,3,

66,67,4,52,89,4,

66,67,4,51,89,4,

65,67,3,51,89,4,

65,67,3,51,89,4,

65,66,4,51,88,4,

65,66,3,51,88,3,

63,66,3,51,87,4,

63,65,3,51,87,3,

63,66,5,50,87,3,

63,66,4,50,85,4,

63,65,3,50,86,4,

62,64,3,50,85,3,

62,65,4,50,84,3,

62,65,3,50,85,4,

62,64,4,49,83,3,

61,65,3,49,84,3,

61,63,3,48,83,3,

61,63,4,48,83,3,

61,63,5,48,82,3,

60,63,3,48,83,4,

60,63,4,48,82,4,

60,63,4,48,81,4,

60,62,4,47,81,4,

60,62,3,47,81,3,

59,62,3,48,81,4,

59,61,4,47,81,4,

59,62,3,47,79,3,

59,61,4,46,79,3,

59,61,4,46,79,3,

58,61,3,47,79,3,

58,60,3,46,79,4,

58,60,4,46,78,4,

97,61,4,46,77,4,

96,60,4,46,77,3,

96,59,3,45,78,3,

95,59,3,45,77,4,

95,59,3,45,76,5,

94,59,4,45,76,3,

94,59,4,44,76,3,

94,58,4,44,75,3,

93,59,4,44,76,3,

92,57,3,44,75,4,

92,58,5,44,75,4,

92,58,4,43,75,3,

92,57,4,43,73,3,

91,57,4,44,74,4,

90,56,4,43,73,3,

89,57,4,43,73,3,

90,56,3,42,72,4,

89,56,3,43,72,4,

89,56,4,42,73,4,

88,56,3,43,71,4,

88,56,4,41,71,4,

88,56,3,42,71,4,

88,56,4,41,71,4,

88,55,4,41,71,3,

86,55,4,41,70,4,

86,55,3,41,70,4,

85,55,3,40,71,4,

86,54,3,39,69,4,

85,54,3,39,69,3,

84,54,3,39,69,3,

83,54,4,39,69,4,

84,54,3,39,69,3,

83,53,4,39,69,3,

83,53,3,39,68,5,

83,53,3,39,67,4,

82,53,4,39,67,4,

82,53,4,39,67,3,

82,53,4,39,67,3,

81,51,4,39,67,3,

81,52,5,39,66,4,

81,52,3,38,66,4,

80,52,4,38,65,4,

79,52,3,38,66,3,

79,51,4,37,65,3,

79,51,4,38,65,3,

79,51,4,46,87,4,

79,55,5,69,88,4,

79,97,4,69,88,4,

77,96,3,68,87,4,

78,96,4,67,87,3,

80,95,3,67,86,4,

79,95,4,67,85,4,

79,94,4,67,85,3,

79,94,3,67,84,4,

79,93,4,65,83,3,

77,93,4,65,83,4,

77,93,4,66,83,4,

77,92,4,65,83,3,

77,92,3,65,82,3,

76,92,4,64,82,4,

76,91,4,64,82,4,

76,90,3,63,81,3,

75,91,4,63,81,4,

75,89,3,63,81,3,

74,89,3,63,79,3,

74,89,3,63,80,3,

74,88,4,63,80,4,

74,88,3,62,79,3,

73,88,3,62,79,3,

73,88,4,61,78,4,

73,87,3,61,78,3,

73,87,4,61,78,4,

71,86,3,61,78,5,

71,86,4,60,77,4,

71,85,5,61,78,4,

71,86,4,60,77,3,

71,85,3,60,76,3,

71,84,3,60,76,4,

71,83,3,59,76,4,

70,83,5,59,76,4,

69,83,4,59,75,3,

74,83,4,59,75,3,

74,82,3,58,74,4,

74,82,4,58,74,4,

73,82,3,58,74,3,

73,81,3,57,73,3,

73,81,3,57,73,4,

71,80,3,57,73,3,

71,79,3,56,73,4,

71,79,3,57,71,4,

71,79,4,57,71,3,

71,79,4,56,71,4,

77,79,4,56,71,4,

79,79,3,56,71,3,

79,78,4,55,71,3,

78,78,3,56,70,4,

77,77,3,55,70,3,

77,78,3,55,69,3,

77,103,3,54,69,4,

76,103,4,55,70,4,

76,101,3,53,69,4,

76,101,3,54,69,4,

76,101,4,54,68,4,

75,101,4,53,67,3,

75,99,4,53,68,4,

74,99,4,53,67,3,

74,98,3,52,67,3,

73,98,3,53,66,3,

73,98,3,51,66,3,

73,98,4,52,66,3,

72,135,4,51,66,3,

71,134,4,51,65,4,

71,134,3,51,66,4,

71,132,4,51,64,3,

71,132,3,50,65,4,

71,131,4,51,65,3,

70,130,4,50,64,4,

71,130,4,50,63,3,

71,129,4,50,63,3,

70,128,3,49,63,3,

70,128,4,49,63,3,

70,127,3,49,63,3,

68,127,4,49,62,4,

69,126,3,48,62,3,

68,125,3,48,62,4,

68,125,3,48,62,4,

67,124,4,48,61,3,

67,124,4,48,61,4,

67,123,3,48,60,3,

66,123,3,48,61,5,

67,122,4,47,60,3,

66,122,4,46,61,3,

66,120,4,46,60,3,

65,121,3,46,60,3,

65,120,3,46,59,3,

65,120,3,46,59,3,

64,119,4,46,59,3,

64,118,4,46,59,4,

64,118,3,45,58,4,

63,117,4,45,58,4,

63,116,4,45,58,4,

63,115,4,45,57,3,

63,115,3,45,57,4,

63,115,4,44,57,3,

62,115,4,45,57,3,

63,113,4,45,56,4,

62,114,3,44,56,4,

62,113,4,44,57,4,

61,112,4,44,57,4,

61,113,5,43,56,3,

61,111,3,43,56,3,

60,111,3,42,56,3,

60,110,3,43,56,3,

60,109,4,43,56,3,

90,110,3,43,56,4,

96,109,3,42,55,4,

95,108,3,42,54,3,

94,108,3,41,55,4,

94,108,4,41,54,3,

93,107,3,41,56,3,

93,107,3,41,61,3,

93,106,3,41,60,3,

92,105,3,41,60,3,

92,105,4,39,60,3,

91,105,3,39,60,3,

91,103,3,39,59,4,

91,103,3,39,59,4,

89,103,3,39,59,4,

89,103,3,39,59,4,

89,102,3,39,58,3,

89,102,4,39,58,4,

88,102,3,39,57,4,

88,101,4,39,57,4,

88,101,4,39,57,3,

88,100,4,44,57,3,

87,100,3,44,57,4,

86,99,4,44,56,4,

87,99,4,44,56,4,

86,99,3,44,56,4,

86,99,5,43,56,3,

85,97,3,43,55,3,

84,97,3,43,55,3,

84,97,3,43,55,4,

83,96,4,43,55,3,

83,96,4,42,54,4,

83,96,3,42,55,4,

83,95,4,42,53,3,

83,95,3,41,53,3,

82,94,3,42,54,3,

82,94,3,42,54,5,

81,94,3,41,53,4,

81,94,4,40,53,4,

81,93,4,40,52,4,

81,92,4,41,52,4,

79,92,3,39,51,5,

80,92,3,39,51,4,

79,91,4,39,52,4,

79,91,4,39,51,3,

78,91,3,39,51,3,

78,90,4,39,51,4,

78,89,4,54,51,3,

77,89,3,58,51,4,

77,89,4,57,50,3,

77,89,3,57,50,3,

77,88,3,57,50,4,

76,88,3,57,49,3,

76,88,4,57,50,4,

76,88,3,57,49,3,

76,87,3,56,49,3,

75,86,3,56,49,3,

75,86,3,56,48,3,

75,86,4,56,48,5,

74,96,3,56,48,3,

73,97,4,55,48,4,

74,97,5,55,48,4,

73,96,3,54,48,4,

73,96,4,54,48,3,

135,96,3,54,48,3,

167,95,4,53,48,3,

183,95,3,53,47,3,

182,94,4,53,46,4,

180,93,3,52,46,4,

179,93,4,52,47,3,

179,93,3,52,47,4,

178,92,4,53,47,3,

176,92,4,52,46,3,

176,91,3,51,46,3,

174,91,3,51,46,4,

173,91,3,51,45,3,

173,90,4,51,45,4,

172,89,4,51,45,3,

171,89,4,51,44,3,

170,88,4,50,44,3,

169,88,3,50,44,4,

169,88,4,50,44,3,

167,88,3,50,44,3,

167,88,4,49,46,4,

167,87,4,49,46,4,

166,87,3,48,45,3,

164,86,4,48,44,4,

163,85,3,48,45,4,

163,86,4,48,45,4,

163,84,3,48,44,4,

161,85,4,47,44,4,

161,84,3,47,44,3,

