
48,12,0,44,39,0,

48,12,0,43,39,0,

48,12,0,43,39,0,

48,12,0,43,39,0,

47,12,0,42,39,0,

47,12,0,43,39,0,

46,12,0,42,39,0,

46,12,0,42,71,0,

46,11,0,41,70,0,

46,11,0,41,70,0,

46,11,0,41,69,0,

45,12,0,41,69,0,

45,11,0,41,68,0,

45,11,0,41,68,0,

45,11,0,39,67,0,

45,11,0,39,67,0,

44,11,0,39,67,0,

44,11,0,39,67,0,

44,11,0,39,67,0,

44,10,0,39,66,0,

44,10,0,39,65,0,

43,10,0,39,65,0,

43,10,0,39,65,0,

43,11,0,38,65,0,

43,10,0,39,64,0,

43,10,0,38,64,0,

42,10,0,38,63,0,

42,10,0,38,63,0,

42,12,0,38,63,0,

48,14,0,38,63,0,

48,15,0,37,63,0,

48,15,0,37,62,0,

48,14,0,37,62,0,

47,14,0,37,62,0,

47,14,0,37,61,0,

47,14,0,36,61,0,

47,14,0,36,61,0,

46,14,0,36,61,0,

46,14,0,36,60,0,

46,14,0,36,60,0,

46,14,0,35,60,0,

45,13,0,35,60,0,

45,14,0,38,59,0,

45,15,0,38,59,0,

45,15,0,38,59,0,

45,15,0,38,58,0,

44,15,0,37,58,0,

44,15,0,37,58,0,

44,15,0,37,57,0,

44,14,0,37,57,0,

43,15,0,37,57,0,

43,15,0,37,57,0,

43,14,0,36,56,0,

43,14,0,44,56,0,

43,14,0,46,56,0,

42,14,0,45,56,0,

42,14,0,45,56,0,

42,14,0,45,56,0,

41,14,0,45,55,0,

41,14,0,44,55,0,

41,14,0,44,54,0,

41,14,0,44,54,0,

41,14,0,44,54,0,

41,14,0,43,54,0,

39,14,0,43,53,0,

39,14,0,43,53,0,

39,13,0,43,53,0,

39,17,0,43,53,0,

56,20,0,42,52,0,

54,20,0,42,52,0,

54,20,0,42,52,0,

54,19,0,42,51,0,

54,19,0,41,51,0,

53,19,0,41,51,0,

53,19,0,41,51,0,

52,19,0,41,51,0,

53,19,0,41,51,0,

52,19,0,41,51,0,

51,18,0,39,51,0,

51,19,0,39,50,0,

51,19,0,51,50,0,

58,21,0,76,50,0,

58,21,0,75,49,0,

57,20,0,75,49,0,

57,20,0,74,49,0,

57,20,0,74,49,0,

57,20,0,74,48,0,

57,20,0,73,48,0,

56,19,0,73,48,0,

56,19,0,71,48,0,

56,19,0,71,48,0,

56,19,0,71,47,0,

56,19,0,72,47,0,

55,19,0,75,47,0,

55,20,0,74,47,0,

54,23,0,74,46,0,

54,22,0,73,46,0,

54,22,0,73,46,0,

53,22,0,73,46,0,

53,22,0,71,46,0,

53,22,0,71,46,0,

53,22,0,71,45,0,

52,21,0,71,45,0,

52,21,0,71,45,0,

52,21,0,71,45,0,

51,21,0,71,44,1,

51,21,0,70,44,0,

51,21,0,71,44,0,

51,21,0,71,44,0,

51,21,0,71,44,0,

51,20,0,70,43,0,

50,20,0,70,43,0,

50,20,0,70,44,0,

50,20,0,69,43,0,

49,20,0,69,42,0,

49,20,0,69,42,0,

49,20,0,68,42,1,

49,19,0,68,42,0,

48,19,0,67,42,0,

48,19,0,67,42,0,

52,22,0,67,41,0,

52,22,0,67,41,0,

52,21,0,66,41,0,

52,22,0,66,41,0,

51,21,0,66,39,0,

51,21,0,66,39,0,

51,21,0,65,39,0,

51,21,0,65,39,0,

51,21,0,65,39,0,

50,21,0,64,39,0,

50,20,0,64,39,0,

50,20,0,63,39,1,

50,20,0,63,39,0,

49,20,0,63,39,0,

49,20,0,63,39,0,

49,19,0,63,39,0,

48,19,0,63,38,0,

49,19,0,62,38,0,

48,19,0,62,38,1,

48,19,0,62,38,0,

48,19,0,61,38,0,

48,19,0,61,38,0,

47,19,0,60,37,0,

47,19,0,61,37,0,

47,19,0,62,37,0,

47,19,0,62,37,0,

46,19,0,61,37,0,

46,19,0,61,36,0,

46,19,0,61,36,0,

46,18,0,61,36,0,

46,18,0,60,35,0,

45,18,0,60,35,0,

45,18,0,60,35,0,

45,18,0,59,35,0,

45,18,0,59,35,0,

44,18,0,59,35,0,

44,17,0,59,34,0,

44,17,0,58,35,0,

44,17,0,58,34,0,

44,17,0,58,34,0,

43,17,0,57,34,1,

43,17,0,57,34,0,

43,17,0,57,34,0,

43,17,0,57,34,0,

42,17,0,57,34,0,

42,17,0,56,33,0,

43,17,0,56,33,0,

42,16,0,56,33,0,

41,16,0,56,33,0,

41,16,0,56,33,0,

41,16,0,55,32,0,

41,16,0,56,32,0,

41,16,0,58,32,0,

41,16,0,57,32,0,

41,16,0,57,31,0,

41,15,0,57,31,0,

40,15,0,57,31,0,

39,16,0,56,31,0,

39,15,0,56,31,0,

39,15,0,56,31,0,

39,15,0,56,31,0,

39,15,0,56,31,0,

39,15,0,55,30,0,

39,15,0,55,31,0,

39,16,0,55,30,0,

45,19,0,54,30,0,

45,19,0,54,30,0,

45,19,0,54,30,0,

44,19,0,54,30,0,

44,19,0,53,39,0,

44,19,0,53,43,0,

44,18,0,53,42,0,

44,19,0,53,42,0,

44,19,0,53,42,0,

43,18,0,52,42,0,

43,18,0,52,41,0,

43,18,0,52,41,0,

43,18,0,51,41,0,

42,18,0,51,39,0,

42,18,0,51,39,0,

42,19,0,51,39,0,

42,19,0,51,39,0,

41,18,0,50,39,0,

41,18,0,50,39,0,

41,18,0,50,39,0,

41,18,0,49,39,0,

41,18,0,49,39,0,

39,18,0,49,39,0,

39,18,0,49,39,0,

39,17,0,49,38,0,

39,18,0,49,38,0,

39,18,0,48,38,0,

39,18,0,48,38,0,

39,17,0,48,38,0,

39,18,0,48,38,0,

39,17,0,48,37,0,

39,17,0,48,37,0,

39,17,0,48,38,0,

39,17,0,47,37,0,

38,17,0,47,37,0,

38,17,0,47,37,0,

37,17,0,46,36,0,

38,17,0,46,36,0,

48,16,0,46,36,0,

54,16,0,46,36,0,

54,16,0,46,35,0,

53,16,0,46,35,0,

53,16,0,46,35,0,

53,16,0,46,35,0,

52,16,0,45,35,0,

52,16,0,46,35,0,

51,15,0,45,35,0,

51,15,0,45,34,0,

51,15,0,45,34,0,

51,15,0,44,34,0,

51,15,0,44,34,0,

51,15,0,44,34,0,

50,15,0,44,34,0,

50,15,0,44,33,0,

50,15,0,43,33,0,

49,15,0,43,33,0,

49,15,0,43,32,0,

49,14,0,43,33,0,

49,14,0,43,32,0,

48,14,0,42,32,0,

48,14,0,42,32,0,

48,14,0,42,32,0,

48,14,0,42,31,0,

47,14,0,41,31,0,

47,14,0,41,31,0,

47,14,0,41,31,0,

47,14,0,41,31,0,

46,14,0,41,39,0,

46,14,0,41,46,0,

46,13,0,40,45,0,

46,13,0,40,45,0,

46,13,0,39,45,0,

46,13,0,39,44,0,

45,13,0,39,45,0,

45,13,0,39,44,0,

45,13,0,39,44,0,

45,13,0,39,44,0,

44,13,0,39,44,0,

44,18,0,39,43,0,

44,17,0,39,43,0,

44,17,0,39,43,0,

43,17,0,39,43,0,

44,17,0,39,43,0,

43,17,0,39,42,0,

43,17,0,39,42,0,

42,17,0,38,41,0,

42,16,0,38,41,0,

42,16,0,38,41,0,

42,16,0,38,41,0,

41,16,0,38,41,0,

42,16,0,37,39,0,

79,16,0,37,40,0,

79,16,0,37,39,0,

79,37,0,36,39,0,

79,36,0,37,39,0,

78,35,0,37,39,0,

78,35,0,37,39,0,

78,35,0,36,39,0,

77,35,0,35,39,0,

77,35,0,35,39,0,

77,35,0,35,39,0,

76,34,0,35,38,0,

76,34,0,35,38,0,

103,36,0,35,38,0,

123,79,0,35,38,0,

122,85,0,35,38,0,

121,84,0,34,38,0,

120,83,0,34,37,0,

120,83,0,34,37,0,

120,83,0,34,36,0,

119,82,0,34,37,0,

118,81,0,34,37,0,

118,81,0,34,36,0,

117,80,0,34,37,0,

116,79,0,33,37,0,

116,79,0,51,36,0,

115,79,0,71,36,0,

115,79,0,122,39,0,

119,90,0,120,39,1,

118,89,0,120,39,0,

118,88,0,119,39,0,

118,88,0,118,39,0,

116,88,1,117,39,0,

115,88,0,116,39,0,

115,86,0,115,39,0,

115,86,0,115,39,0,

114,86,0,115,38,0,

114,85,0,114,38,0,

113,84,0,120,38,0,

112,84,0,119,38,0,

112,83,0,118,37,0,

112,83,0,118,37,0,

111,83,0,117,37,0,

110,82,0,117,38,0,

110,82,0,116,37,0,

109,81,0,115,37,0,

108,81,0,115,37,0,

108,81,0,114,37,0,

108,80,0,114,36,0,

107,79,0,113,36,0,

107,79,0,112,36,0,

106,79,0,112,35,0,

105,78,0,111,35,0,

105,78,0,111,35,0,

105,78,0,110,35,0,

103,77,0,110,35,0,

103,77,0,109,34,0,

103,77,0,109,35,0,

102,76,0,108,34,1,

102,76,0,108,34,0,

102,75,0,107,34,0,

101,75,0,107,34,0,

100,75,0,106,33,0,

100,74,0,105,33,0,

99,74,0,105,37,0,

99,73,0,103,48,0,

99,75,0,103,48,0,

99,75,0,103,48,0,

98,75,0,103,48,1,

97,74,0,103,47,0,

97,74,0,102,47,0,

97,74,0,102,47,0,

96,73,0,102,47,0,

108,73,0,103,46,0,

107,73,0,103,46,0,

106,71,0,103,45,0,

105,71,0,102,45,0,

105,71,0,101,45,0,

103,76,0,101,73,0,

103,75,0,100,96,0,

103,75,0,99,96,0,

103,75,0,99,95,0,

103,74,0,99,94,0,

103,73,0,98,93,0,

102,73,0,99,93,0,

105,73,0,149,93,0,

194,109,0,147,103,0,

191,108,0,146,101,0,

190,107,0,145,101,0,

188,107,0,145,100,0,

187,105,0,143,99,0,

187,105,0,143,99,0,

185,103,0,142,99,0,

184,103,0,142,98,0,

183,103,0,141,98,0,

182,103,0,140,97,0,

181,102,0,139,97,0,

180,102,0,138,96,0,

179,101,0,138,96,0,

178,101,0,137,95,0,

177,100,0,135,131,0,

176,117,0,135,129,0,

176,116,0,135,128,0,

174,115,0,134,127,0,

173,115,0,134,127,0,

173,114,0,133,126,0,

172,113,0,132,125,0,

171,112,0,131,124,0,

170,112,0,130,124,0,

167,111,0,130,123,0,

167,111,0,129,122,0,

167,110,0,128,121,0,

166,110,0,127,121,0,

166,109,0,127,120,0,

165,108,0,127,120,0,

163,108,0,126,120,0,

163,107,0,125,118,0,

161,107,0,125,118,0,

172,189,1,125,117,0,

185,231,0,124,117,0,

185,228,0,123,115,0,

184,227,0,122,115,0,

182,225,0,121,115,0,

181,224,0,121,114,0,

180,222,0,120,113,0,

179,221,0,120,113,0,

178,220,0,120,112,0,

177,219,0,119,112,0,

176,217,0,118,111,0,

195,216,0,147,111,0,

256,215,0,175,110,0,

254,214,0,174,109,0,

252,212,0,172,109,0,

250,211,0,171,108,0,

249,210,0,170,108,0,

247,209,0,169,107,0,

245,207,0,167,107,0,

244,207,0,167,106,0,

243,205,0,166,105,0,

241,204,0,165,103,0,

240,203,0,165,103,0,

239,202,0,163,103,0,

237,230,0,163,103,0,

236,236,0,162,103,0,

235,235,0,161,102,0,

233,232,0,159,101,0,

231,231,0,159,101,0,

231,230,0,159,101,0,

229,229,0,158,100,0,

228,227,1,157,99,0,

227,226,0,156,99,0,

226,225,0,155,99,0,

225,223,0,154,98,0,

224,222,0,153,98,0,

222,221,0,153,111,0,

221,220,0,152,110,0,

220,219,0,152,109,0,

219,217,0,151,109,1,

217,216,1,150,108,0,

216,215,0,149,131,0,

216,214,0,148,131,0,

215,213,0,147,130,0,

213,221,0,147,129,0,

212,219,0,146,128,0,

211,218,0,145,127,0,

210,217,0,144,127,0,

209,216,0,143,126,0,

207,215,0,143,125,0,

207,213,0,142,124,0,

205,211,0,142,123,0,

205,211,0,141,123,1,

203,210,0,141,123,0,

205,208,0,140,122,0,

203,207,0,139,121,0,

202,206,0,139,121,0,

201,206,1,137,120,0,

199,204,0,137,120,0,

199,203,0,137,119,0,

198,202,0,135,118,1,

197,201,0,135,117,0,

195,199,1,135,117,1,

195,199,0,134,116,0,

194,198,0,133,115,0,

193,197,0,132,115,0,

192,195,0,132,114,0,

191,195,0,131,114,1,

190,194,1,130,113,1,

189,193,1,130,113,1,

188,192,1,129,112,0,

187,191,1,129,111,1,

186,190,1,127,111,1,

185,189,1,127,110,1,

184,188,1,127,109,1,

184,187,1,127,109,1,

182,186,1,125,108,1,

182,185,1,125,108,1,

181,184,1,124,108,1,

180,184,1,124,107,1,

179,183,1,123,107,1,

178,181,1,122,110,1,

177,180,1,122,109,1,

176,179,1,121,108,1,

176,187,1,121,108,1,

175,185,1,120,108,1,

214,185,2,120,107,1,

217,183,1,120,135,1,

216,182,1,119,134,2,

215,181,1,118,134,1,

213,180,2,118,133,1,

211,179,1,117,132,1,

211,178,2,117,131,1,

209,177,2,116,131,1,

208,176,1,115,130,1,

207,175,2,115,129,1,

206,192,2,115,128,1,

205,242,2,114,127,2,

204,240,2,113,127,2,

202,238,2,113,127,1,

212,237,2,112,127,2,

246,236,2,112,126,2,

244,234,2,111,126,2,

243,233,2,111,125,2,

241,231,2,110,124,1,

240,230,2,110,124,1,

238,229,2,109,123,2,

237,227,2,108,122,2,

236,226,2,108,121,2,

234,225,2,108,121,2,

233,224,2,107,120,2,

231,223,2,107,120,2,

231,222,2,106,119,2,

229,221,2,105,118,2,

227,220,1,105,118,2,

227,218,2,103,229,2,

225,217,2,103,225,1,

224,216,2,103,223,2,

223,215,2,103,222,2,

222,214,2,103,220,1,

221,212,2,102,219,2,

219,211,2,102,217,1,

218,210,2,101,216,2,

217,209,1,101,215,2,

216,207,1,100,214,2,

215,206,1,99,212,2,

213,206,2,99,211,1,

212,204,1,99,210,1,

211,204,1,98,209,1,

210,203,2,176,207,2,

209,201,1,179,207,2,

207,201,2,177,205,1,

207,199,1,176,204,1,

206,199,1,175,212,1,

205,198,1,174,216,1,

204,196,1,173,215,2,

203,195,2,172,214,1,

201,194,1,171,212,1,

201,193,1,170,211,1,

199,192,1,169,210,1,

199,192,1,167,209,1,

201,190,1,167,207,1,

199,189,1,167,217,1,

199,188,1,165,216,1,

198,188,1,164,215,1,

196,187,1,163,213,1,

195,185,1,163,211,1,

194,185,2,162,211,1,

193,184,1,161,209,1,

192,183,1,160,208,1,

192,182,1,159,207,1,

191,181,1,159,206,1,

190,180,1,158,205,1,

189,179,1,157,211,1,

188,178,1,156,210,1,

187,177,1,156,209,1,

185,177,1,154,207,1,

185,176,1,154,207,1,

184,175,1,153,206,1,

183,174,1,152,205,1,

182,173,1,152,203,1,

181,172,1,151,203,1,

226,241,1,150,201,1,

224,239,1,149,199,1,

223,237,1,149,199,1,

222,237,1,148,198,1,

220,235,1,147,197,1,

219,233,1,146,195,1,

218,231,1,146,195,1,

217,231,1,145,194,1,

216,229,1,143,193,1,

214,228,1,143,192,1,

213,227,1,176,199,1,

211,226,1,174,199,1,

211,224,2,173,197,1,

209,223,1,172,196,1,

208,222,1,172,195,1,

207,221,1,171,194,1,

206,220,1,169,193,1,

205,218,1,167,192,2,

204,217,1,167,191,1,

203,216,1,167,190,1,

202,215,1,166,189,2,

199,214,1,165,188,1,

199,212,2,164,187,2,

199,211,2,163,185,1,

198,210,1,162,185,2,

197,209,2,161,184,1,

195,207,1,161,183,1,

195,207,1,159,182,1,

193,206,2,159,181,1,

203,205,2,158,180,2,

212,204,1,157,179,2,

211,202,1,157,178,2,

210,201,2,156,178,2,

209,199,2,155,186,1,

207,199,2,154,184,2,

206,198,2,153,184,2,

205,197,2,153,182,1,

204,195,2,152,181,2,

203,195,2,152,181,2,

202,194,2,150,179,1,

201,193,2,149,179,2,

199,192,2,149,178,2,

198,191,2,148,176,2,

198,190,2,147,178,2,

196,189,2,146,177,2,

195,188,2,146,176,2,

194,187,2,145,175,2,

193,186,2,144,174,2,

192,185,2,143,174,2,

192,184,2,143,173,2,

190,184,2,142,172,2,

189,183,2,142,171,2,

188,182,2,155,170,2,

188,181,2,163,169,2,

186,179,2,162,167,2,

185,179,2,161,167,2,

184,178,2,160,167,2,

184,177,2,159,166,2,

183,176,2,159,165,2,

182,176,2,158,164,2,

180,174,2,157,163,2,

179,174,2,156,163,2,

179,173,2,155,162,1,

178,172,2,154,161,2,

177,171,2,154,159,2,

176,171,2,153,159,2,

175,169,2,152,159,2,

174,169,2,152,158,2,

174,167,2,151,157,2,

173,167,2,150,156,2,

172,166,2,149,156,2,

171,166,2,148,155,1,

170,164,2,147,153,2,

169,163,2,147,153,2,

167,163,1,146,152,1,

167,162,2,145,152,1,

167,161,1,145,151,1,

166,161,1,143,150,2,

165,159,2,143,150,1,

165,159,1,142,149,1,

163,158,2,141,148,2,

163,157,1,141,147,2,

162,157,2,140,147,2,

161,156,1,140,146,1,

160,155,2,139,145,1,

159,155,1,137,145,1,

159,153,1,137,143,1,

158,153,2,137,143,2,

157,152,1,135,142,1,

157,152,1,135,142,1,

156,151,1,135,155,1,

155,150,1,134,154,1,

154,149,1,133,153,1,

154,148,1,133,152,2,

153,147,1,132,151,1,

152,147,1,131,150,1,

152,146,1,131,149,1,

151,146,1,130,148,1,

150,145,1,129,147,1,

149,144,1,128,147,1,

148,143,1,128,148,1,

148,143,1,127,147,1,

147,142,1,127,149,1,

146,142,1,126,147,1,

145,141,1,126,147,1,

145,140,1,125,146,1,

144,140,1,124,145,1,

143,139,1,124,145,1,

143,138,1,123,143,1,

142,137,1,123,143,1,

142,137,1,122,179,1,

141,135,1,121,179,1,

140,135,1,121,177,1,

140,135,1,120,176,1,

139,134,1,120,175,1,

138,134,1,120,174,1,

138,133,1,127,173,1,

137,132,1,127,172,1,

141,131,1,126,171,1,

140,131,1,125,171,1,

139,130,1,124,169,1,

139,130,1,124,167,1,

137,129,1,123,167,1,

137,129,1,123,167,1,

135,127,1,122,166,1,

135,127,1,121,165,1,

135,127,1,121,164,1,

134,126,0,120,163,1,

133,126,1,120,162,1,

135,125,1,120,161,1,

134,124,1,118,160,1,

133,124,1,118,159,1,

133,123,0,117,159,1,

132,123,1,116,158,1,

131,122,1,115,157,1,

131,121,1,115,156,0,

130,121,1,115,155,1,

130,120,1,114,155,1,

129,120,1,113,154,1,

128,120,1,113,154,1,

127,119,1,112,153,1,

127,118,1,112,153,1,

127,117,1,112,152,0,

126,117,0,111,151,1,

125,116,1,111,150,1,

125,115,1,110,150,1,

124,115,1,109,149,1,

124,115,0,109,147,1,

123,115,1,188,147,1,

141,134,1,186,147,1,

152,197,0,185,146,1,

151,195,1,184,145,0,

150,194,0,183,144,1,

149,193,0,182,143,0,

147,192,1,181,142,1,

147,191,0,179,142,0,

146,189,0,178,142,0,

145,188,0,177,141,1,

145,187,1,176,140,0,

143,186,1,176,140,0,

143,185,1,174,138,0,

142,184,0,174,138,1,

142,184,0,173,137,0,

141,182,0,172,135,1,

140,181,0,171,135,0,

140,179,0,170,135,1,

139,179,1,169,134,0,

137,178,0,168,134,0,

137,177,1,167,133,0,

135,176,1,167,133,0,

135,175,1,166,132,0,

135,174,0,165,131,0,

134,174,1,164,131,0,

133,172,1,163,130,0,

133,172,0,162,129,1,

131,171,0,161,129,0,

131,171,1,161,128,0,

131,170,0,159,127,0,

130,169,0,159,127,0,

129,167,0,158,126,0,

128,167,1,158,126,1,

128,166,1,182,143,0,

127,165,1,180,142,0,

127,164,0,179,141,0,

126,163,0,178,140,0,

125,163,0,177,140,0,

125,162,0,176,139,0,

124,161,0,175,138,1,

124,159,0,175,137,0,

123,159,0,174,137,1,

123,159,0,173,135,1,

122,158,0,172,135,0,

121,157,0,171,135,1,

121,156,1,170,134,0,

120,155,0,169,133,0,

120,155,0,167,132,0,

119,153,0,167,131,0,

118,153,0,167,131,0,

118,152,0,166,130,0,

117,152,1,164,129,0,

162,153,0,164,129,0,

177,152,1,163,128,0,

176,152,0,166,127,0,

175,151,0,175,127,0,

174,150,0,174,126,1,

173,149,0,173,125,1,

172,149,0,172,125,1,

171,147,1,171,124,0,

169,147,0,170,124,0,

169,176,0,169,123,1,

167,174,0,167,123,0,

167,173,0,167,121,0,

166,172,0,167,121,0,

165,171,1,166,120,0,

164,171,0,165,120,0,

163,169,0,163,120,0,

163,167,0,163,120,1,

162,167,0,162,119,0,

161,167,0,161,148,1,

159,166,0,160,147,0,

159,164,0,159,146,0,

158,163,0,159,145,1,

157,163,0,158,143,0,

156,162,0,157,143,0,

156,161,0,156,142,0,

155,159,0,156,142,0,

154,159,0,155,141,0,

153,158,0,154,140,0,

152,157,0,153,140,0,

152,157,0,152,139,0,

151,156,0,152,138,0,

150,155,0,151,137,0,

149,154,0,150,136,0,

149,153,0,150,135,0,

147,152,0,149,135,0,

147,152,1,148,134,0,

146,151,0,147,134,0,

145,150,0,146,133,0,

144,149,0,146,132,0,

143,149,0,145,131,1,

143,147,0,144,131,0,

142,147,0,143,130,0,

142,146,0,143,129,0,

141,146,0,142,129,0,

140,145,0,142,127,0,

140,143,0,141,127,0,

139,143,0,140,127,0,

138,143,0,140,126,0,

137,142,0,139,125,0,

137,141,0,138,125,0,

135,140,0,137,124,0,

135,140,1,137,123,0,

135,139,0,135,123,1,

134,138,0,135,122,0,

133,137,0,135,121,0,

133,137,0,134,121,0,

132,135,0,134,120,0,

131,135,0,133,120,0,

131,135,0,132,120,0,

130,134,0,132,119,0,

129,134,0,131,118,0,

128,133,0,130,117,0,

127,132,0,130,117,1,

127,131,0,129,116,0,

126,131,0,128,115,0,

126,130,0,132,115,0,

125,130,0,161,114,0,

125,129,0,159,114,0,

124,128,0,159,113,0,

123,127,0,158,113,0,

123,145,0,157,112,0,

123,144,0,156,112,0,

121,143,0,155,112,0,

121,143,0,154,111,0,

120,156,0,153,110,0,

120,155,0,153,109,0,

120,154,0,152,109,0,

119,153,0,152,109,0,

118,152,0,150,108,0,

118,152,0,150,108,0,

117,150,0,149,107,0,

116,150,0,148,107,0,

116,149,0,147,106,0,

115,147,0,146,105,0,

115,147,0,146,105,0,

114,146,0,145,104,0,

114,145,0,143,103,0,

113,144,0,143,103,0,

113,143,0,143,103,1,

158,143,0,142,103,0,

156,143,0,141,103,0,

155,142,0,141,102,0,

154,141,0,140,102,0,

153,140,0,139,101,0,

153,139,0,138,100,0,

152,139,0,137,100,0,

151,138,0,137,99,0,

150,137,0,135,99,0,

149,135,0,163,99,0,

148,177,0,177,120,0,

147,180,0,176,162,0,

147,179,0,175,161,0,

146,178,0,174,159,0,

145,177,0,173,158,0,

144,176,0,172,158,0,

143,175,0,171,156,0,

143,174,0,170,156,0,

142,173,0,169,155,0,

141,172,0,167,154,0,

140,171,0,167,153,0,

140,170,0,166,152,0,

139,169,0,165,152,0,

139,167,0,164,151,0,

137,167,0,163,150,0,

137,166,0,163,149,0,

135,165,0,162,148,0,

135,164,0,161,147,0,

135,163,0,159,147,0,

134,163,0,159,145,0,

134,162,0,159,145,0,

133,161,0,158,144,0,

131,159,0,157,143,0,

131,159,0,156,143,0,

130,158,0,155,142,0,

130,157,0,155,141,0,

129,157,0,154,140,0,

128,156,0,153,140,0,

127,155,0,152,158,0,

127,154,0,152,157,0,

126,153,0,184,156,0,

126,153,0,193,155,0,

125,152,0,192,153,0,

125,152,0,191,153,0,

124,150,0,189,152,0,

123,149,0,188,151,0,

123,148,0,187,151,0,

122,148,0,187,149,0,

121,147,0,185,148,0,

121,147,0,184,148,0,

120,145,0,184,147,0,

120,145,0,183,146,0,

119,144,0,181,145,0,

118,143,0,180,145,0,

118,143,0,179,143,0,

117,142,0,179,143,0,

116,141,0,177,142,0,

115,140,0,176,141,0,

115,140,0,176,141,0,

115,139,0,175,140,0,

114,138,0,174,139,0,

114,137,0,173,139,0,

113,137,0,172,138,0,

112,135,0,171,137,0,

112,193,0,170,137,0,

112,216,0,169,135,0,

111,214,0,168,135,0,

110,214,0,167,135,0,

110,212,0,167,134,0,

109,211,0,166,133,0,

109,209,0,165,132,0,

108,239,0,164,131,0,

108,236,0,163,131,0,

107,235,0,163,131,0,

107,233,0,162,130,0,

132,231,0,161,129,0,

131,231,0,159,140,0,

131,229,0,159,139,0,

129,227,0,158,138,0,

129,227,0,158,137,0,

128,225,0,157,137,0,

127,224,0,156,135,0,

127,223,0,155,135,0,

126,221,0,155,134,0,

125,220,0,154,134,0,

125,219,0,153,133,0,

124,217,0,152,132,0,

123,216,0,152,131,0,

123,216,0,151,144,0,

121,214,0,150,143,0,

121,213,0,149,143,0,

120,211,0,149,142,0,

120,210,0,148,141,0,

120,210,0,147,140,0,

119,209,0,146,140,0,

118,207,0,146,139,0,

165,255,0,146,138,0,

177,269,0,144,138,0,

176,267,0,143,136,0,

175,263,0,143,135,0,

174,263,0,143,135,0,

173,262,0,142,135,0,

172,259,0,141,134,0,

171,258,0,140,133,0,

169,257,0,140,132,0,

169,255,0,139,131,0,

167,254,0,138,131,0,

167,252,0,137,130,0,

166,250,0,137,129,0,

166,250,0,135,144,0,

165,248,0,135,143,0,

163,247,0,135,142,0,

163,245,0,135,141,0,

162,243,0,134,140,0,

161,243,0,133,140,0,

159,241,0,132,139,0,

159,240,0,185,138,0,

159,238,0,213,137,0,

158,237,0,211,137,0,

156,236,0,210,135,0,

156,235,0,209,135,0,

155,233,0,207,134,0,

154,231,0,206,134,0,

153,231,0,205,134,0,

153,229,0,204,132,0,

152,228,0,203,131,0,

151,227,0,201,131,0,

150,226,0,199,130,0,

150,225,0,199,129,0,

149,224,0,198,129,0,

147,222,0,198,127,0,

147,221,0,197,127,0,

147,220,0,195,127,0,

145,219,0,194,126,0,

145,218,0,193,125,0,

144,217,0,192,125,1,

143,216,0,192,124,0,

143,214,0,190,124,0,

142,214,0,189,123,0,

173,213,0,188,122,0,

172,211,0,187,121,1,

171,210,0,187,121,0,

170,209,0,185,120,0,

169,208,0,184,120,0,

167,207,0,184,119,0,

167,206,0,183,119,0,

166,205,0,182,118,0,

165,204,0,181,118,0,

164,203,0,179,117,0,

163,202,0,179,116,0,

163,201,0,178,115,0,

162,199,0,177,115,0,

161,199,0,176,115,0,

159,198,0,176,114,0,

159,197,0,175,145,0,

158,196,0,174,143,0,

157,195,0,173,143,0,

156,194,0,172,142,0,

156,193,0,171,141,0,

155,192,0,170,140,0,

154,191,0,169,140,0,

155,191,0,167,139,0,

183,190,0,167,138,0,

182,189,0,167,155,0,

181,188,0,166,154,0,

179,187,0,165,153,0,

179,186,0,165,153,0,

178,185,0,163,152,0,

177,184,0,163,151,0,

176,184,0,162,150,0,

175,182,0,161,149,0,

174,182,0,161,148,0,

173,181,0,159,147,0,

172,179,0,159,146,0,

171,179,0,158,146,0,

170,177,0,158,145,1,

169,177,0,157,144,0,

167,176,0,156,143,0,

167,175,0,155,143,0,

167,174,0,155,142,0,

166,174,0,153,141,1,

165,173,0,153,140,0,

163,172,0,152,140,0,

163,171,0,152,139,0,

162,171,1,151,139,0,

184,169,0,150,140,0,

182,167,0,149,139,0,

181,167,0,149,138,0,

179,167,0,147,137,0,

179,166,0,147,137,0,

178,166,0,147,135,0,

177,164,0,145,135,0,

176,164,0,145,135,0,

175,172,0,144,134,0,

174,277,0,143,133,0,

173,274,0,143,132,0,

172,273,0,142,132,0,

171,271,0,142,131,0,

170,269,0,141,130,0,

169,267,0,141,130,0,

167,265,0,140,129,1,

167,263,0,139,129,0,

167,263,0,138,127,1,

166,261,1,137,127,0,

165,259,0,137,126,0,

163,258,1,135,126,0,

163,255,0,135,125,0,

162,255,0,135,125,0,

161,253,0,135,124,0,

160,252,0,134,123,0,

159,251,0,133,123,0,

159,249,0,133,122,0,

158,248,0,132,121,0,

157,247,0,131,121,0,

156,245,0,131,120,0,

155,243,0,130,120,0,

155,242,0,130,119,0,

154,241,0,129,118,0,

153,240,0,128,118,0,

153,239,0,127,117,0,

152,237,0,127,116,0,

152,236,0,127,115,0,

150,235,0,126,115,0,

149,233,0,125,114,0,

149,231,0,125,114,0,

147,231,0,124,114,0,

147,230,0,124,113,0,

146,229,0,123,113,0,

145,227,0,123,112,0,

145,226,0,122,111,0,

143,225,0,121,111,0,

143,224,0,121,110,0,

143,223,0,120,110,0,

142,221,0,120,109,0,

141,220,0,119,109,0,

141,220,0,119,108,0,

140,218,0,118,108,0,

139,217,0,118,107,0,

138,216,0,117,107,0,

137,215,0,116,106,0,

137,217,0,116,106,0,

135,216,0,115,105,0,

135,216,0,115,103,1,

135,214,0,114,103,0,

134,213,0,114,103,0,

134,211,0,113,103,0,

133,211,0,113,103,0,

132,209,0,112,102,0,

131,207,0,112,102,0,

131,299,0,112,107,0,

130,304,0,111,107,0,

129,301,0,110,105,0,

129,299,0,110,105,0,

128,297,0,109,104,0,

127,295,0,150,103,0,

127,293,0,164,103,0,

126,291,0,163,103,0,

126,289,0,162,102,0,

125,287,0,161,102,0,

125,286,0,160,102,0,

124,285,0,159,101,0,

124,283,0,158,100,0,

123,281,0,158,99,0,

122,280,0,157,99,0,

121,278,0,156,99,0,

121,277,0,155,99,0,

120,275,0,154,98,0,

120,273,0,153,98,0,

120,271,0,152,97,0,

119,271,0,152,97,0,

118,269,0,151,96,0,

118,268,0,151,96,0,

117,267,0,150,95,0,

117,265,0,149,95,0,

116,263,0,148,94,0,

115,263,0,147,94,0,

115,261,0,147,94,0,

114,260,0,146,93,0,

114,259,0,145,93,0,

113,257,0,145,92,0,

113,255,0,143,92,0,

112,254,0,143,92,0,

112,253,0,143,91,0,

111,252,0,142,90,0,

111,250,0,141,90,0,

110,249,0,140,90,0,

110,248,0,140,89,0,

109,247,0,139,89,0,

108,245,0,138,89,0,

108,244,0,141,124,0,

108,243,0,156,127,0,

107,241,0,156,126,0,

107,240,0,155,125,0,

106,240,0,153,125,0,

105,238,0,153,124,0,

105,237,1,152,124,0,

103,236,0,152,123,0,

103,234,0,151,122,1,

103,233,0,150,121,0,

103,231,0,149,121,0,

103,231,1,148,120,0,

102,229,0,147,120,0,

102,228,0,147,119,0,

101,227,0,146,118,0,

101,226,0,145,117,0,

100,277,0,145,117,0,

155,287,0,143,116,0,

153,285,0,142,115,0,

152,283,0,142,115,0,

151,281,0,141,114,0,

150,280,0,140,114,0,

149,278,0,140,113,0,

148,275,0,139,112,0,

147,274,0,139,112,0,

146,273,0,138,112,0,

145,271,0,137,111,0,

145,270,0,135,110,0,

144,268,0,135,110,0,

143,267,0,135,109,0,

143,265,0,134,108,0,

142,263,0,134,108,0,

141,262,0,133,107,0,

140,261,0,132,107,0,

139,259,0,131,106,0,

139,258,0,131,105,0,

138,256,0,131,105,0,

137,255,0,130,104,0,

137,254,0,129,103,0,

135,252,0,128,103,0,

135,251,0,127,103,0,

134,249,0,127,102,0,

134,248,0,127,102,0,

133,247,0,126,101,0,

132,246,0,126,100,0,

131,244,0,125,100,0,

131,243,0,124,99,0,

130,241,0,123,99,0,

129,240,0,123,99,0,

129,239,0,122,98,0,

128,238,0,122,97,0,

127,237,0,121,97,0,

127,236,0,121,97,0,

126,235,0,120,96,0,

126,233,0,120,96,0,

125,231,0,119,96,0,

124,231,0,118,95,0,

124,230,0,118,94,0,

123,229,0,117,94,0,

123,227,0,117,94,0,

122,226,0,116,93,0,

121,225,0,115,92,0,

121,224,0,115,92,0,

121,223,0,115,92,0,

120,222,0,114,91,0,

119,221,0,114,91,0,

119,220,0,113,91,0,

118,219,0,113,90,0,

117,217,0,112,89,0,

117,217,0,111,89,0,

116,216,0,111,88,1,

115,215,0,110,88,0,

115,213,0,110,88,0,

115,212,0,109,88,0,

114,211,0,109,87,0,

113,210,0,108,87,0,

113,209,0,108,86,0,

112,208,0,108,86,0,

112,207,0,107,85,0,

111,206,0,107,85,0,

111,205,0,106,85,0,

139,205,0,105,84,0,

260,204,0,105,85,0,

257,203,0,105,85,0,

255,201,0,103,84,0,

254,201,0,103,83,0,

252,199,0,106,83,0,

251,199,0,145,83,0,

249,198,0,143,83,0,

248,197,0,143,82,0,

247,196,0,142,82,0,

245,195,0,142,81,0,

243,224,0,141,110,0,

242,222,0,140,153,0,

241,221,0,139,152,0,

240,219,0,139,150,0,

238,218,0,138,150,0,

237,216,0,137,149,0,

236,216,0,135,147,0,

234,215,0,135,147,0,

231,213,0,135,146,0,

231,211,0,134,145,0,

230,211,0,134,144,0,

229,209,0,133,143,0,

227,207,0,132,143,0,

226,273,0,131,142,0,

225,271,0,131,141,0,

224,269,0,130,140,0,

223,267,0,129,139,0,

222,266,0,129,139,0,

221,263,0,128,139,0,

219,263,0,127,137,0,

219,261,0,126,137,0,

217,260,0,126,135,0,

216,259,0,126,135,0,

215,257,0,125,134,0,

214,255,0,124,134,0,

213,254,0,123,133,0,

211,252,0,153,133,0,

211,251,0,167,132,0,

209,249,0,166,131,0,

208,248,0,165,130,0,

207,247,0,164,130,0,

206,246,0,163,129,0,

205,243,0,162,129,0,

204,243,0,161,127,0,

203,241,0,160,127,0,

202,240,0,159,126,0,

201,239,0,159,126,0,

199,238,0,158,125,0,

199,236,0,157,124,0,

198,235,0,156,124,0,

197,233,0,156,123,0,

195,231,0,155,123,1,

195,231,0,154,122,0,

194,230,0,153,121,0,

193,229,0,152,121,0,

192,227,0,152,120,0,

191,226,0,151,120,0,

190,225,0,150,119,0,

189,224,0,149,118,0,

188,223,0,148,117,0,

187,222,0,147,117,0,

187,283,0,147,116,0,

185,307,1,146,115,0,

185,305,0,145,115,0,

184,304,0,145,115,0,

183,302,0,143,114,0,

182,300,0,143,113,1,

181,297,0,142,113,0,

180,295,0,142,112,0,

179,295,0,193,112,0,

178,293,0,192,111,0,

177,291,0,190,112,0,

176,289,1,189,115,0,

176,287,0,188,115,0,

177,331,0,187,114,0,

252,327,0,186,113,0,

250,326,0,185,113,0,

248,323,0,184,112,0,

246,321,1,183,112,1,

245,319,0,182,111,0,

243,317,0,181,110,0,

242,316,0,179,110,0,

240,313,0,179,109,0,

239,312,0,178,109,1,

238,310,0,177,108,0,

236,308,0,176,108,0,

235,306,0,176,108,0,

233,304,0,174,141,0,

231,302,0,173,139,0,

231,301,0,173,139,1,

230,299,0,172,138,0,

229,297,1,171,137,0,

227,295,0,169,135,1,

226,357,0,169,159,0,

225,352,0,167,157,0,

224,349,0,167,156,0,

223,347,0,166,155,0,

221,345,0,166,155,0,

220,344,0,165,154,0,

219,341,0,163,153,1,

218,339,0,163,202,1,

216,336,0,162,199,0,

216,335,0,161,198,1,

214,332,0,161,197,0,

213,330,1,159,195,0,

212,327,0,159,195,0,

211,327,0,158,194,0,

210,325,0,157,192,1,

209,323,0,157,192,0,

207,321,1,156,190,0,

207,319,0,155,190,0,

205,317,0,154,188,0,

205,316,0,153,187,0,

204,313,0,153,186,0,

203,312,1,152,185,0,

201,310,0,152,184,1,

199,308,0,151,184,0,

199,306,0,150,182,0,

199,305,0,149,181,1,

201,303,0,148,180,1,

199,301,0,147,179,0,

199,300,1,147,178,1,

198,298,0,146,177,0,

196,295,0,145,176,0,

195,295,1,144,176,0,

194,293,0,143,174,0,

194,291,0,143,174,0,

192,290,0,143,173,0,

192,288,0,142,172,0,

191,287,0,141,171,1,

190,285,0,140,169,1,

189,284,0,140,169,0,

188,282,0,139,167,0,

187,280,0,139,167,0,

186,280,1,138,166,0,

185,278,0,137,166,0,

184,276,0,137,165,0,

184,275,0,135,163,1,

182,273,0,135,163,0,

189,271,0,135,162,0,

188,271,0,134,161,0,

187,269,0,133,160,0,

186,268,0,133,159,0,

185,267,0,131,159,0,

184,265,0,131,158,0,

184,263,0,131,158,0,

182,262,0,130,157,1,

181,261,0,129,156,0,

180,259,1,129,155,0,

188,277,0,129,154,0,

206,274,0,127,153,1,

205,273,0,127,153,0,

203,271,1,126,152,0,

202,269,0,126,152,0,

201,268,0,125,150,0,

199,267,0,125,150,0,

199,265,0,124,149,0,

198,263,0,123,148,0,

197,262,1,123,147,0,

195,260,0,122,146,0,

195,259,0,121,146,0,

193,257,0,121,145,0,

192,255,0,120,144,0,

192,255,0,120,143,0,

190,253,0,120,143,0,

189,252,0,119,142,1,

188,251,0,118,142,0,

187,249,1,118,141,0,

186,248,0,117,140,0,

185,247,0,117,140,0,

184,246,0,116,139,0,

184,244,1,115,138,0,

209,243,0,115,137,0,

207,241,0,115,137,0,

206,241,0,114,135,0,

204,240,0,113,135,0,

204,238,0,120,135,0,

203,237,1,120,134,1,

201,236,0,119,133,0,

199,235,0,118,133,0,

199,233,0,118,132,0,

198,231,0,117,131,0,

196,231,0,116,131,0,

195,230,0,115,130,0,

195,229,0,115,130,0,

193,227,0,114,129,1,

193,227,0,114,128,1,

192,226,0,113,127,0,

190,225,0,113,127,0,

189,224,0,112,126,1,

188,222,0,112,126,0,

187,221,0,111,125,0,

186,257,0,111,125,0,

185,255,0,110,124,1,

184,253,0,110,123,0,

184,252,0,109,123,0,

182,250,0,109,122,0,

182,249,0,108,122,0,

181,248,1,108,121,0,

179,246,0,107,120,0,

179,244,0,107,120,1,

178,243,0,106,120,0,

177,241,0,105,119,0,

176,240,0,105,118,0,

175,239,0,105,118,0,

174,238,0,103,117,0,

173,236,0,103,116,1,

173,235,0,103,115,0,

172,233,0,103,115,0,

171,231,0,102,115,1,

170,231,0,102,114,1,

169,230,1,101,114,0,

176,228,0,101,113,1,

177,227,0,100,113,0,

177,226,0,100,112,0,

175,225,0,99,112,0,

175,224,0,99,111,0,

174,223,0,99,111,0,

173,221,0,98,110,0,

172,221,0,98,109,0,

171,220,0,97,109,0,

170,219,0,97,108,0,

169,219,0,97,108,0,

167,220,0,96,107,0,

167,218,0,96,107,0,

167,217,0,96,107,0,

166,216,0,95,106,0,

165,215,0,95,106,0,

164,214,0,94,105,0,

163,213,1,94,105,0,

163,212,0,93,103,0,

162,211,0,93,103,1,

161,210,0,92,103,0,

160,209,0,92,103,0,

159,207,1,92,102,0,

159,207,0,91,102,0,

158,206,1,91,101,0,

158,205,0,90,101,0,

157,204,0,90,100,0,

156,203,0,89,100,1,

156,202,0,89,99,0,

155,201,0,89,99,0,

154,201,0,88,99,0,

153,199,0,88,99,0,

164,240,0,88,98,0,

164,263,0,88,97,0,

163,263,0,87,97,0,

162,260,0,87,96,0,

162,259,0,86,96,0,

161,258,0,86,96,0,

167,255,0,86,96,0,

167,255,0,85,95,1,

166,253,0,85,94,0,

165,252,0,84,94,0,

164,251,0,84,94,0,

163,249,0,83,93,0,

163,248,0,83,93,0,

162,247,0,83,92,0,

161,246,0,83,92,0,

160,244,0,82,92,0,

159,243,0,82,92,0,

159,242,0,82,91,0,

158,241,1,81,90,0,

157,240,0,81,90,0,

156,238,0,81,89,0,

156,237,0,80,89,0,

155,236,0,79,89,0,

191,235,0,79,88,0,

229,233,0,79,88,0,

227,291,0,79,88,0,

226,290,0,79,88,0,

225,287,0,78,87,0,

223,286,0,78,87,0,

222,285,0,78,86,0,

221,283,0,77,86,0,

220,281,0,77,85,0,

218,280,0,77,85,0,

217,279,0,77,85,0,

216,277,0,76,85,0,

215,275,0,76,84,0,

214,274,0,76,83,0,

213,273,0,75,83,0,

213,271,0,75,83,0,

211,270,0,74,83,0,

211,269,0,74,82,0,

210,267,0,74,82,0,

208,265,0,74,82,0,

207,263,0,73,81,0,

206,263,0,73,81,0,

206,262,0,71,80,0,

205,260,0,71,80,0,

204,259,0,71,79,0,

203,258,0,71,79,0,

201,256,0,71,79,0,

201,255,0,71,79,0,

199,254,0,71,79,0,

248,252,0,71,78,0,

246,251,0,70,78,0,

243,250,0,70,78,0,

242,249,0,70,77,0,

241,248,1,69,77,0,

240,247,0,70,76,0,

239,245,0,70,76,0,

237,244,0,69,76,0,

236,243,0,69,76,0,

280,241,0,69,76,0,

278,240,0,69,75,0,

277,239,0,68,75,0,

275,238,0,67,75,0,

273,237,0,67,74,0,

271,236,0,67,75,0,

270,235,0,67,74,0,

269,233,0,67,73,0,

268,231,0,66,73,0,

266,231,0,66,73,0,

265,230,0,66,73,0,

263,230,0,66,71,0,

262,228,0,65,71,0,

261,227,0,65,71,0,

259,226,0,65,71,0,

258,225,0,64,71,0,

257,224,0,64,71,0,

255,223,0,64,70,0,

254,222,0,63,70,0,

253,221,0,108,70,1,

252,220,0,106,70,0,

250,219,0,106,69,0,

249,217,0,105,69,0,

248,216,0,104,69,0,

246,216,0,103,68,1,

245,215,0,103,68,0,

243,213,0,103,67,0,

242,271,0,102,67,0,

241,269,0,101,67,0,

240,268,0,101,67,0,

239,266,0,101,67,0,

238,263,0,100,66,0,

236,263,0,99,66,0,

235,261,0,99,65,0,

234,259,1,99,65,0,

233,258,0,98,65,0,

231,257,0,97,65,0,

231,255,0,97,65,0,

230,254,0,96,64,0,

228,253,0,96,63,0,

227,252,0,96,63,0,

227,250,0,95,63,0,

225,249,0,95,63,0,

224,248,0,94,63,0,

224,247,0,94,62,0,

222,245,0,93,62,0,

221,244,0,93,62,0,

220,243,0,93,62,0,

219,242,0,92,61,0,

217,240,0,92,61,0,

217,240,0,91,61,0,

216,238,0,91,61,0,

215,237,0,91,60,0,

214,236,0,90,60,0,

213,235,0,89,60,1,

211,233,0,89,60,0,

211,231,0,89,59,0,

210,231,0,88,59,0,

209,230,0,88,60,0,

207,229,0,88,60,0,

207,227,0,87,59,0,

206,227,0,87,59,0,

205,225,0,86,59,0,

204,224,0,86,59,0,

204,224,1,86,58,0,

202,222,0,87,58,0,

201,221,0,86,58,0,

201,220,0,86,57,0,

199,220,0,85,57,0,

199,218,0,85,57,0,

198,217,0,85,57,0,

197,216,0,84,57,0,

196,216,0,84,56,0,

195,214,0,83,56,0,

194,213,0,83,56,0,

193,212,0,83,56,0,

193,211,0,82,56,0,

192,210,0,82,56,0,

191,209,0,82,55,0,

190,207,0,81,55,0,

189,207,0,81,54,0,

188,206,0,80,54,0,

188,271,0,80,54,0,

187,293,0,79,53,0,

186,291,0,79,53,0,

185,289,0,79,53,0,

184,287,0,79,53,0,

184,286,0,78,53,0,

183,284,0,78,53,0,

182,283,0,77,53,0,

181,281,0,77,52,0,

180,280,0,77,51,0,

179,279,0,76,51,0,

179,277,0,76,51,0,

178,275,0,76,51,0,

177,274,0,76,51,0,

177,272,0,75,51,0,

176,271,0,75,50,0,

175,270,0,74,50,0,

174,268,0,74,50,0,

173,267,0,73,50,0,

172,265,0,73,57,0,

172,263,0,73,94,0,

171,263,0,71,93,0,

170,262,0,71,92,0,

169,260,0,71,92,0,

169,259,0,71,91,1,

167,257,0,71,91,0,

167,256,0,71,90,1,

167,255,1,71,90,0,

166,254,0,70,89,0,

165,252,0,70,89,0,

165,251,0,70,88,0,

163,249,0,69,88,0,

163,249,0,69,88,0,

163,248,0,68,87,0,

162,247,0,68,87,0,

161,245,0,68,86,0,

175,243,0,67,85,0,

174,289,0,67,85,0,

173,287,0,67,85,0,

172,286,0,67,84,0,

171,285,0,66,83,0,

171,283,0,66,83,0,

170,281,0,66,83,0,

169,280,0,65,83,0,

167,278,0,65,82,0,

167,277,0,65,82,0,

167,275,0,65,82,0,

166,274,0,64,81,0,

177,273,0,63,80,0,

176,271,0,63,79,1,

175,269,0,63,79,0,

174,268,1,63,79,0,

173,267,0,63,79,0,

172,265,0,62,79,0,

172,263,0,62,78,0,

171,263,0,62,78,0,

170,261,0,62,77,0,

167,260,0,62,77,0,

167,259,0,61,77,0,

167,257,0,61,76,0,

166,255,0,61,76,0,

166,254,0,60,75,0,

165,254,0,60,75,0,

163,252,0,60,75,0,

163,251,0,60,74,0,

163,249,0,77,74,0,

162,248,0,77,73,0,

161,248,0,77,110,0,

159,246,0,77,109,0,

183,245,0,76,108,0,

229,243,0,76,107,0,

227,242,0,75,107,0,

226,241,0,75,106,0,

224,240,1,74,105,0,

223,238,0,74,105,0,

222,237,0,74,103,0,

221,236,0,73,103,0,

219,235,0,73,103,0,

218,234,0,73,103,0,

217,231,0,71,102,0,

216,231,0,71,102,0,

215,230,0,71,101,0,

214,229,0,71,100,0,

212,227,0,71,100,0,

211,227,0,70,99,0,

211,227,0,70,99,0,

209,226,0,70,98,0,

207,225,0,71,98,0,

