
5,5,3,10,38,3,

6,4,3,10,36,3,

5,5,4,11,37,3,

5,5,3,11,37,3,

5,4,3,10,36,3,

5,5,3,11,35,3,

5,5,3,10,36,3,

6,4,3,10,36,3,

5,4,3,10,35,3,

5,5,3,9,36,4,

5,5,3,10,35,3,

5,4,3,10,35,4,

5,5,3,11,35,3,

5,5,3,9,35,3,

5,4,3,10,35,3,

5,4,3,9,34,3,

5,5,3,9,34,3,

5,5,3,9,34,3,

5,5,3,9,35,3,

5,4,3,9,34,3,

5,5,3,9,34,3,

5,4,3,10,34,3,

5,4,4,10,38,3,

5,4,3,10,39,3,

5,5,3,9,38,3,

5,5,3,9,39,3,

5,5,3,9,38,3,

5,4,3,9,38,3,

5,4,3,9,37,3,

5,4,3,9,37,3,

5,5,3,9,37,3,

4,4,3,9,38,3,

4,5,3,9,36,3,

4,5,3,9,37,3,

5,4,3,14,36,3,

5,4,3,44,37,3,

4,5,3,43,35,3,

4,4,3,44,35,2,

5,4,3,43,35,3,

4,4,3,43,35,3,

4,4,3,42,35,3,

4,3,3,42,35,3,

5,3,3,43,35,3,

5,4,3,42,35,3,

5,4,3,42,35,3,

4,3,3,42,34,3,

4,4,3,41,35,3,

5,4,3,41,34,3,

4,3,3,41,35,3,

4,5,2,40,34,3,

4,4,3,39,34,3,

5,4,3,39,34,3,

4,4,3,39,34,3,

4,4,3,39,34,3,

4,4,3,39,33,3,

4,4,3,39,33,3,

3,4,3,39,33,3,

4,4,3,39,33,3,

4,4,3,39,32,3,

4,3,3,39,33,3,

3,4,3,39,31,3,

5,4,3,39,33,3,

4,4,3,38,33,3,

4,4,3,38,33,3,

5,4,3,38,32,3,

4,4,3,39,32,3,

4,4,3,38,33,3,

4,5,3,37,32,3,

4,4,3,38,33,3,

4,4,3,38,31,3,

4,3,3,37,31,3,

4,4,3,38,31,3,

4,4,3,37,31,3,

4,4,3,37,31,3,

4,5,3,36,31,3,

5,3,3,36,31,3,

5,4,3,37,31,3,

4,4,3,36,31,3,

4,4,3,35,31,3,

5,4,3,36,31,3,

5,4,3,36,31,3,

5,5,3,38,31,3,

5,4,3,51,32,3,

4,4,3,50,31,3,

5,4,3,54,31,3,

4,5,3,53,31,3,

4,4,3,54,31,3,

5,4,3,54,31,3,

4,5,3,54,31,3,

4,3,3,53,30,3,

4,4,3,53,30,3,

4,5,3,53,31,3,

4,4,3,52,30,3,

4,5,3,52,30,3,

5,4,3,52,31,3,

5,4,3,52,30,3,

5,4,3,51,31,3,

4,4,3,51,30,3,

5,4,3,51,31,3,

5,5,3,50,30,3,

4,5,3,51,30,4,

4,5,3,51,30,3,

4,5,3,50,30,3,

4,4,3,50,30,3,

5,4,3,50,30,3,

4,4,3,49,30,3,

5,4,3,49,29,3,

4,4,3,49,29,3,

4,4,4,48,29,3,

4,5,4,48,29,3,

4,7,3,48,29,3,

4,7,3,48,31,3,

4,9,3,48,31,3,

5,7,3,48,31,3,

5,7,3,48,31,3,

5,8,3,47,30,4,

6,7,3,48,30,3,

5,8,3,48,30,3,

6,7,3,46,30,3,

5,7,3,47,30,3,

5,8,3,46,30,3,

5,7,3,46,29,3,

4,7,3,46,29,3,

5,7,4,45,29,3,

4,7,4,46,29,3,

4,7,3,45,29,3,

5,7,3,45,29,3,

5,7,3,45,30,3,

4,7,3,45,29,4,

4,7,3,45,29,3,

5,7,3,45,29,3,

4,7,4,45,29,3,

5,7,4,44,29,3,

5,7,3,44,29,3,

4,7,3,44,28,3,

4,7,3,44,28,3,

5,7,3,44,28,3,

5,7,3,43,29,3,

5,7,3,44,28,3,

5,7,3,44,46,3,

5,7,3,44,67,3,

5,7,3,43,66,3,

4,7,3,43,66,3,

4,7,3,43,65,3,

4,7,3,43,65,3,

4,7,3,42,64,3,

4,7,3,43,65,4,

5,7,3,43,63,4,

3,7,3,42,63,3,

4,7,3,42,63,3,

4,7,4,41,63,3,

4,7,3,41,63,3,

4,7,3,41,62,3,

5,7,3,41,62,3,

6,7,3,42,62,3,

6,7,3,41,62,3,

6,7,4,40,61,3,

6,7,3,40,61,3,

6,7,3,40,61,3,

6,7,3,40,61,3,

6,7,3,39,61,3,

6,7,3,39,61,3,

6,7,3,39,61,3,

6,7,3,39,60,3,

6,7,3,39,60,3,

5,7,4,39,60,3,

5,6,3,39,59,3,

6,7,3,39,59,3,

6,7,3,39,59,3,

5,6,3,39,58,3,

6,7,3,39,58,3,

6,7,4,45,58,3,

5,7,3,48,58,3,

6,7,3,48,57,3,

5,6,3,47,57,3,

6,6,3,47,57,3,

6,7,3,46,57,3,

6,6,3,46,57,3,

5,7,3,46,56,3,

5,6,3,46,56,3,

6,6,3,46,56,3,

6,6,3,46,56,3,

6,6,3,45,56,3,

6,7,3,46,56,3,

6,9,3,45,56,3,

6,7,3,45,55,3,

6,9,3,46,55,3,

6,7,3,46,55,3,

7,7,3,46,55,3,

6,7,3,46,55,3,

7,7,4,46,54,3,

6,7,3,45,54,3,

6,7,3,45,54,3,

6,9,3,46,53,3,

10,9,3,45,53,3,

9,7,3,45,53,3,

9,8,3,44,53,3,

10,9,3,45,52,3,

13,7,3,44,52,3,

13,7,3,44,52,3,

13,7,3,44,52,3,

24,7,3,44,51,3,

25,7,3,44,51,3,

24,7,3,43,51,3,

25,7,3,43,51,4,

25,7,3,43,50,3,

24,7,3,43,51,3,

24,7,3,43,50,4,

24,7,3,43,50,3,

24,7,3,43,49,3,

24,7,4,43,50,3,

65,7,4,42,50,3,

81,9,3,41,49,4,

93,7,3,41,49,3,

92,7,3,41,48,3,

91,8,3,41,48,3,

91,7,3,41,48,3,

90,9,3,41,48,3,

90,9,3,40,48,3,

89,8,3,41,48,4,

89,9,3,41,48,3,

88,7,3,39,48,3,

89,7,3,39,47,3,

87,7,3,39,47,3,

88,9,3,39,47,3,

87,8,3,39,46,3,

87,7,3,39,63,3,

86,7,3,39,69,3,

85,7,3,39,69,3,

85,7,3,39,67,3,

85,7,3,39,68,3,

83,7,3,39,67,3,

84,7,3,38,67,3,

83,7,3,38,67,3,

83,7,3,38,67,3,

83,7,3,39,67,4,

82,7,3,38,66,3,

82,7,3,37,66,3,

82,7,3,37,65,2,

82,7,3,38,65,3,

81,7,4,37,65,3,

81,7,3,37,65,3,

80,7,3,37,65,3,

80,7,3,36,63,4,

80,7,3,37,63,3,

79,7,3,36,63,3,

79,7,3,37,63,4,

78,7,3,36,62,3,

79,7,3,36,63,4,

78,7,3,36,63,4,

78,7,3,35,62,3,

78,7,3,35,62,3,

78,7,4,43,62,3,

78,8,3,44,62,4,

77,13,3,43,61,3,

76,13,3,43,61,4,

76,13,3,42,61,3,

76,14,3,43,60,3,

75,13,3,42,60,3,

75,13,4,42,60,3,

74,13,3,41,59,3,

75,12,3,41,59,3,

73,12,3,41,59,4,

73,13,3,41,59,3,

74,13,3,41,58,3,

74,12,3,40,58,3,

72,12,3,41,57,3,

73,13,4,39,57,3,

71,13,3,39,57,3,

72,13,4,39,57,3,

71,12,3,39,57,3,

71,12,3,39,56,3,

71,12,3,39,57,4,

71,12,3,39,56,4,

71,12,4,39,56,3,

102,29,3,39,56,3,

162,95,4,39,56,3,

159,96,3,39,56,3,

159,95,3,39,55,3,

158,95,3,38,56,3,

156,94,3,38,54,4,

155,93,3,37,54,3,

154,93,3,38,54,3,

153,92,3,37,53,3,

153,92,3,38,53,3,

152,92,3,37,53,3,

152,91,3,37,53,4,

151,90,3,37,53,3,

150,90,3,37,52,3,

150,89,3,36,52,4,

148,89,3,37,51,3,

147,88,3,36,51,3,

147,88,3,36,51,3,

147,88,4,41,51,3,

145,88,3,41,51,4,

145,87,4,41,51,3,

144,87,3,39,50,3,

143,86,3,39,50,5,

143,85,4,39,49,3,

142,86,4,39,50,4,

142,86,4,39,49,3,

141,85,4,39,49,4,

141,84,3,39,50,3,

140,83,4,39,49,4,

139,83,4,39,49,3,

139,83,4,39,48,4,

138,83,3,38,49,4,

138,82,3,39,48,4,

137,82,5,38,48,3,

135,81,4,38,48,3,

135,81,3,38,47,3,

135,81,3,37,47,5,

135,80,4,37,47,4,

134,79,4,37,47,4,

134,79,3,37,46,4,

133,79,4,37,46,4,

131,79,5,36,46,4,

131,78,4,36,46,4,

131,79,3,36,46,4,

131,78,5,35,46,4,

130,77,4,36,46,5,

130,77,4,36,46,5,

128,77,4,36,46,4,

128,77,3,35,45,4,

127,76,4,35,45,4,

127,76,4,35,45,3,

126,75,5,35,44,4,

126,75,4,35,44,5,

126,75,5,35,45,5,

124,75,5,35,48,4,

124,74,5,35,52,4,

124,73,5,35,52,4,

123,73,5,35,51,5,

123,73,4,34,51,4,

122,72,5,34,51,5,

121,71,5,34,50,4,

121,71,5,35,51,5,

120,71,5,33,50,4,

120,71,4,33,50,4,

119,71,4,33,50,4,

119,71,5,33,50,5,

118,70,4,33,49,5,

118,70,4,33,49,5,

118,70,5,33,49,4,

117,69,5,33,49,4,

116,69,5,31,48,4,

116,68,5,32,48,4,

115,68,5,32,48,4,

115,68,4,31,47,5,

114,67,5,32,47,5,

114,67,5,32,47,5,

114,67,5,31,47,4,

113,67,5,31,46,5,

113,67,5,31,46,5,

112,66,5,31,46,5,

112,67,5,31,46,4,

111,66,4,30,46,4,

110,65,4,30,46,5,

110,65,5,30,45,5,

110,65,5,30,45,5,

109,65,5,30,45,4,

109,63,5,30,44,5,

108,65,5,30,45,4,

107,63,5,30,45,4,

107,63,5,29,44,5,

107,63,5,29,44,5,

106,63,5,30,44,5,

106,63,5,29,44,5,

105,62,5,29,44,5,

105,62,5,29,43,4,

104,62,5,29,43,5,

103,62,5,28,43,5,

103,61,5,28,43,4,

103,60,4,28,43,5,

103,61,4,28,42,5,

103,60,5,28,41,5,

102,60,4,29,42,5,

101,60,5,28,42,5,

102,60,5,71,46,5,

101,60,5,118,63,4,

101,59,5,117,61,4,

99,58,5,117,61,5,

99,59,5,115,61,4,

99,58,5,115,60,5,

99,58,5,114,60,5,

99,57,4,113,60,5,

97,57,5,113,60,4,

97,58,5,112,59,4,

97,57,4,112,59,5,

97,57,5,112,58,4,

96,57,5,111,59,5,

96,56,4,110,60,4,

96,56,4,110,59,5,

95,56,4,109,59,5,

95,56,4,109,59,5,

95,56,5,109,58,4,

94,55,5,108,58,4,

93,54,5,108,57,5,

93,54,4,107,57,5,

93,54,5,106,57,5,

92,54,4,105,57,4,

92,53,5,105,57,5,

91,53,5,105,56,5,

91,53,5,105,57,5,

91,53,5,103,56,5,

90,53,4,103,56,5,

90,53,5,103,56,4,

89,52,5,103,55,5,

89,52,5,103,55,5,

89,52,4,102,55,5,

89,51,5,101,55,5,

88,51,5,101,54,4,

88,51,4,101,54,4,

88,51,5,100,53,4,

87,50,5,99,53,5,

87,50,4,99,53,4,

87,50,5,99,53,4,

87,50,5,98,53,4,

86,50,6,98,52,5,

85,50,5,97,52,4,

85,50,4,97,51,5,

85,50,5,96,52,4,

84,49,5,97,51,4,

84,49,5,97,51,5,

83,49,4,95,51,4,

83,49,4,95,51,4,

83,48,5,95,50,4,

83,48,5,95,50,5,

82,48,5,93,49,4,

82,47,4,94,50,5,

82,48,4,93,51,5,

81,47,5,92,50,6,

81,47,4,92,49,4,

81,47,5,92,49,5,

81,46,4,92,49,4,

79,47,4,91,49,5,

79,46,4,91,49,4,

80,46,4,91,48,4,

79,46,5,90,48,5,

78,45,5,90,48,5,

78,46,5,90,48,4,

78,45,5,89,48,4,

77,46,4,89,53,5,

78,45,4,88,52,4,

78,44,4,88,52,5,

77,44,4,88,51,4,

77,45,4,88,51,4,

76,44,5,87,51,4,

76,44,4,86,51,4,

76,44,5,86,51,5,

76,44,5,86,51,4,

76,44,4,85,50,4,

75,44,5,85,50,5,

75,43,4,84,49,5,

75,43,4,85,50,4,

73,43,4,84,49,4,

73,43,5,84,49,5,

73,42,5,84,49,4,

74,42,4,83,49,4,

73,41,5,83,48,5,

72,41,4,82,48,4,

71,42,5,82,48,4,

71,41,5,82,48,4,

71,41,4,82,48,4,

71,42,5,81,47,5,

71,41,5,81,48,5,

71,41,4,80,47,5,

70,40,4,80,47,5,

70,39,4,80,47,5,

71,39,4,79,46,4,

71,39,5,79,46,4,

69,39,5,79,46,4,

69,39,4,79,45,5,

69,39,5,79,45,5,

69,39,5,78,46,5,

69,39,5,77,46,4,

69,39,5,78,45,5,

68,39,5,77,45,5,

67,38,4,77,45,3,

67,39,4,77,44,4,

67,38,5,76,44,4,

67,38,5,77,76,4,

67,39,4,93,89,4,

67,38,4,101,88,4,

66,37,4,99,88,5,

65,37,4,99,88,4,

66,38,4,99,87,4,

66,37,5,99,87,4,

65,37,5,98,86,5,

65,37,5,99,85,5,

64,36,4,98,85,4,

63,37,4,97,85,5,

63,35,5,97,85,5,

63,36,4,96,83,4,

63,36,4,96,83,3,

63,36,4,95,83,4,

63,35,4,96,83,4,

63,35,4,94,82,4,

62,35,3,94,82,5,

62,35,5,94,82,4,

61,35,4,94,81,4,

62,35,4,93,81,4,

62,35,5,92,81,5,

62,35,5,92,81,4,

61,34,4,92,81,5,

61,34,5,92,79,5,

60,34,5,91,79,5,

60,34,4,91,79,4,

60,33,4,90,78,4,

60,34,3,90,78,4,

60,34,3,89,78,4,

60,33,4,89,78,5,

59,33,4,89,77,3,

59,34,4,89,77,4,

59,33,5,88,76,4,

59,32,4,88,76,5,

59,33,4,88,76,5,

58,32,4,87,76,4,

59,32,5,87,75,4,

57,32,4,86,75,4,

57,32,4,86,74,4,

58,31,4,86,75,4,

57,32,4,85,73,4,

57,31,5,143,74,4,

56,31,4,153,73,4,

56,31,5,153,73,5,

57,31,4,152,73,4,

56,31,4,151,72,5,

56,31,5,150,71,4,

56,31,4,149,71,4,

57,31,5,148,71,4,

56,94,5,148,71,4,

56,130,4,147,71,4,

56,129,5,146,80,4,

56,127,4,152,121,5,

55,127,4,150,119,4,

55,126,4,149,118,4,

55,126,4,149,117,4,

55,125,5,148,117,4,

54,124,4,147,115,4,

54,123,5,147,115,4,

53,122,4,145,114,3,

54,122,4,145,114,4,

53,121,4,143,113,4,

53,121,5,143,113,4,

52,120,4,143,113,4,

51,120,4,142,112,5,

52,118,4,142,111,5,

51,118,4,141,110,5,

51,117,4,140,110,4,

51,117,3,139,110,5,

51,116,4,138,109,4,

50,115,4,138,108,4,

51,115,4,137,108,3,

50,114,5,135,108,4,

51,114,4,135,106,4,

50,113,4,135,106,4,

49,113,4,135,105,5,

49,112,4,134,105,4,

49,111,4,133,105,4,

49,111,4,132,103,5,

48,110,3,131,103,4,

48,110,3,131,103,4,

48,109,4,131,103,4,

48,109,4,130,102,4,

48,108,4,129,101,5,

48,108,4,129,101,5,

47,107,5,129,100,3,

48,107,3,127,99,4,

46,106,4,127,99,4,

46,105,4,126,99,4,

46,105,3,126,99,4,

46,103,4,126,97,3,

46,103,4,125,97,3,

46,103,4,125,98,4,

46,103,4,124,96,4,

46,102,4,124,96,4,

46,102,3,123,95,4,

45,102,4,123,96,5,

45,101,3,122,95,4,

45,100,4,121,94,5,

44,100,4,120,93,4,

45,99,5,120,94,5,

44,99,3,120,93,5,

44,99,5,119,93,3,

44,98,4,119,92,3,

44,97,3,118,92,4,

44,98,4,117,92,4,

44,97,5,117,91,4,

43,96,3,116,91,5,

43,96,5,116,90,5,

43,96,3,115,90,4,

43,95,4,115,89,5,

42,95,4,115,89,4,

43,95,4,114,89,4,

42,94,4,113,88,4,

42,93,4,113,88,4,

41,93,4,113,88,3,

42,93,4,112,88,4,

41,93,4,112,87,3,

41,92,4,111,86,4,

39,92,4,111,86,4,

40,91,4,111,86,4,

41,91,4,110,86,4,

39,91,3,109,85,3,

40,89,4,109,84,4,

39,90,4,109,85,4,

39,89,4,108,84,3,

39,89,4,108,83,3,

39,88,3,107,83,3,

39,88,3,107,83,4,

39,88,4,106,82,3,

39,88,4,106,82,4,

39,87,4,106,82,5,

39,87,4,105,81,3,

39,85,3,103,81,4,

39,85,4,103,81,3,

38,85,4,103,81,4,

39,85,4,103,79,4,

38,84,4,103,79,4,

38,84,4,103,79,4,

38,83,4,103,79,5,

37,83,4,102,79,4,

37,83,5,101,78,5,

37,83,4,101,78,3,

36,83,3,101,78,4,

37,82,4,100,77,4,

36,81,4,100,77,4,

36,82,5,99,77,3,

36,81,4,99,76,4,

37,81,3,99,76,4,

36,80,4,98,76,4,

36,79,4,98,75,5,

35,80,4,97,75,4,

35,79,4,97,75,4,

36,79,3,97,75,5,

35,78,3,96,74,3,

35,79,5,96,74,4,

35,79,3,95,74,3,

35,78,4,95,73,4,

35,77,3,95,73,4,

34,78,3,95,72,4,

34,77,5,94,73,3,

34,76,3,94,71,5,

35,77,4,94,71,4,

35,76,4,93,71,4,

34,76,3,92,71,3,

34,75,4,92,71,3,

35,75,3,92,71,3,

34,75,4,92,70,3,

34,75,4,97,70,3,

34,75,4,97,70,4,

34,74,4,96,69,4,

34,73,3,96,70,3,

34,73,3,94,93,4,

35,73,4,94,92,3,

34,73,5,94,92,3,

34,71,4,94,91,3,

33,71,4,94,91,4,

33,71,4,93,91,4,

33,71,3,92,91,3,

34,71,4,92,90,3,

32,71,3,92,89,4,

33,70,3,92,89,4,

33,70,3,91,88,4,

33,70,4,90,88,4,

33,69,4,90,88,4,

33,69,4,90,87,3,

32,70,3,90,87,4,

33,69,4,89,86,3,

31,69,3,89,86,3,

31,69,3,88,85,3,

31,68,3,89,85,3,

31,67,4,88,85,4,

31,67,4,88,85,5,

32,67,4,87,84,3,

31,67,4,87,83,4,

34,66,3,87,83,3,

35,67,4,86,83,4,

35,66,4,86,82,3,

35,66,3,86,107,4,

35,66,3,103,139,4,

35,65,4,103,138,4,

35,65,3,103,135,4,

34,65,4,102,135,4,

34,64,3,101,135,4,

35,64,4,101,135,5,

39,63,4,101,133,4,

39,63,4,100,132,4,

39,63,4,100,131,4,

39,63,4,99,131,3,

38,63,4,99,131,3,

38,63,3,99,130,4,

38,62,3,97,129,4,

38,62,4,97,129,4,

38,62,4,97,129,4,

37,61,3,96,127,4,

37,61,4,96,127,3,

37,61,3,95,127,4,

37,61,4,96,126,5,

44,60,4,95,126,3,

44,60,5,94,125,4,

44,60,3,94,124,4,

44,59,4,94,124,4,

43,60,3,93,123,4,

42,60,4,93,122,4,

43,59,5,93,123,3,

42,59,4,93,121,3,

42,58,3,92,121,3,

43,58,4,92,120,4,

41,57,4,91,120,3,

42,58,3,91,119,3,

41,57,3,91,119,3,

41,57,3,90,118,4,

41,56,3,103,118,4,

41,57,5,103,118,4,

41,56,4,102,116,4,

41,56,3,101,116,4,

39,56,3,100,115,3,

39,56,4,100,115,3,

39,56,4,99,115,3,

39,56,3,99,114,3,

39,56,4,99,113,4,

39,56,3,98,113,4,

38,55,4,97,112,3,

39,55,4,97,112,4,

39,55,3,97,111,3,

39,55,3,96,111,4,

39,55,4,96,110,4,

38,54,4,96,110,5,

39,54,4,96,110,4,

39,54,4,95,110,3,

38,54,4,94,109,3,

39,54,3,94,108,3,

38,52,3,93,108,4,

38,53,4,93,108,4,

38,52,4,93,107,4,

39,52,4,93,106,4,

38,52,3,92,106,4,

38,51,3,91,105,3,

38,51,3,91,105,4,

38,51,4,91,105,3,

38,51,3,90,103,3,

38,51,3,89,104,3,

37,51,3,89,103,3,

37,51,3,89,103,4,

37,51,4,89,103,4,

37,50,4,88,103,4,

37,50,3,88,102,4,

65,49,3,87,101,4,

65,49,4,87,101,3,

65,49,3,87,100,4,

64,49,5,87,101,3,

63,50,3,85,100,4,

63,53,4,85,100,4,

63,53,4,86,111,4,

63,52,3,85,111,3,

62,51,3,85,110,3,

62,51,4,84,110,3,

61,51,4,83,109,4,

62,51,4,83,108,4,

61,51,3,83,108,3,

61,51,4,82,107,4,

60,50,4,82,106,4,

61,51,4,82,158,4,

60,50,4,82,246,5,

60,50,4,81,286,5,

60,50,3,81,284,3,

60,49,4,81,282,4,

59,49,4,80,281,4,

59,49,4,81,278,3,

57,49,3,79,278,3,

58,48,4,79,275,4,

57,48,4,79,275,4,

58,48,3,78,273,4,

57,48,4,78,271,4,

57,48,3,79,271,3,

57,48,5,78,269,4,

56,48,5,139,267,4,

56,47,4,141,266,3,

56,46,3,140,263,5,

55,46,4,139,263,4,

56,46,3,139,262,3,

55,46,4,137,260,4,

55,46,4,137,259,4,

59,46,4,135,258,3,

59,45,5,135,257,4,

58,45,4,135,255,4,

58,45,3,134,254,4,

58,45,4,134,253,4,

57,44,3,133,252,3,

57,45,4,132,249,4,

57,44,3,131,248,4,

56,44,4,131,248,3,

56,44,3,131,247,3,

56,44,3,130,245,4,

56,43,4,129,244,3,

56,43,4,128,243,4,

59,43,3,128,242,4,

58,43,4,127,240,4,

58,43,4,127,240,3,

58,44,3,127,238,4,

57,44,3,125,237,3,

57,45,4,125,236,3,

56,44,3,124,235,5,

57,44,4,125,233,3,

56,44,4,124,233,3,

56,44,4,123,231,4,

56,43,3,122,231,4,

56,43,4,121,230,3,

55,43,3,121,228,4,

55,42,4,121,227,4,

55,42,4,120,226,3,

54,43,3,120,225,4,

54,42,3,119,224,4,

54,41,5,119,223,4,

54,42,5,118,222,3,

53,42,5,117,221,5,

54,41,4,117,220,4,

53,41,4,116,220,4,

53,41,5,117,219,3,

56,41,5,115,217,4,

56,41,4,115,216,4,

55,41,4,114,216,4,

55,39,4,114,215,4,

55,39,5,114,214,4,

54,39,4,113,212,4,

53,39,4,112,211,4,

53,39,4,112,210,4,

53,39,5,112,209,4,

53,39,4,111,208,5,

53,39,4,110,207,4,

53,39,4,110,207,4,

57,38,4,110,206,3,

60,38,3,109,205,4,

60,39,4,109,204,4,

59,38,4,108,203,4,

60,38,4,108,202,4,

59,37,5,107,201,4,

59,38,5,107,200,5,

58,37,4,107,199,4,

59,37,4,107,199,4,

58,37,5,105,198,4,

58,37,4,105,197,4,

57,37,4,105,196,5,

62,37,4,103,195,4,

67,36,4,103,194,5,

66,36,4,103,194,5,

67,36,3,102,192,4,

66,36,4,102,192,4,

66,36,4,102,191,5,

64,35,5,101,190,4,

65,35,4,101,189,5,

64,35,5,100,189,5,

65,35,4,126,187,5,

63,35,4,125,187,5,

63,34,4,124,186,4,

63,34,4,123,185,4,

63,34,5,123,184,5,

62,34,4,122,184,4,

62,34,4,121,184,4,

62,34,5,120,182,4,

62,34,4,121,181,4,

61,34,4,120,181,4,

61,34,4,119,180,4,

61,33,5,119,179,4,

60,34,4,118,178,5,

60,33,5,117,178,4,

59,33,4,117,177,5,

59,33,5,117,176,4,

59,33,5,116,175,4,

59,33,4,115,174,4,

58,33,4,114,174,5,

58,32,4,115,173,4,

57,31,5,114,173,4,

57,31,4,113,172,5,

57,31,5,113,171,4,

57,32,4,112,170,5,

57,31,4,112,170,4,

56,31,5,111,169,4,

56,31,4,110,167,5,

56,31,4,110,167,4,

58,31,4,109,167,4,

57,31,4,110,166,3,

57,31,4,108,165,4,

57,31,5,108,165,5,

57,31,5,108,164,4,

57,31,4,107,163,4,

57,31,4,107,163,5,

56,31,4,107,162,3,

56,31,5,105,161,5,

56,30,4,106,160,5,

55,30,5,105,159,4,

55,30,4,105,159,4,

55,30,4,103,159,4,

54,29,5,103,158,4,

54,30,5,103,157,4,

53,30,4,102,157,5,

53,29,5,102,155,5,

53,30,3,102,155,5,

53,29,5,102,154,4,

52,29,4,100,154,4,

53,29,4,100,153,4,

51,29,4,99,153,4,

65,29,5,99,152,4,

65,29,5,99,152,5,

65,28,3,98,150,3,

64,28,4,97,150,5,

63,29,4,97,149,4,

64,28,3,97,149,4,

63,28,4,97,148,5,

63,28,4,97,148,4,

63,27,4,96,147,4,

62,28,4,96,146,3,

62,28,4,95,146,4,

63,27,5,95,145,5,

100,28,4,94,144,5,

99,27,4,94,144,5,

98,27,4,94,143,4,

97,27,3,93,143,4,

97,27,5,93,142,4,

96,28,5,92,142,3,

96,27,4,93,141,4,

95,27,4,92,141,5,

95,27,4,91,140,4,

94,27,4,91,140,4,

94,27,4,91,140,4,

94,27,5,89,139,4,

93,27,5,89,138,4,

93,27,4,90,137,4,

92,27,4,89,137,4,

92,27,5,89,136,4,

91,26,3,88,136,4,

91,50,4,88,135,4,

90,58,4,88,135,4,

90,57,5,134,134,4,

89,56,4,133,134,4,

89,57,4,132,133,5,

89,56,4,131,132,5,

89,56,4,130,131,4,

88,55,4,130,131,3,

87,54,4,129,131,4,

87,55,4,128,131,4,

87,54,4,127,130,4,

87,54,4,127,129,4,

86,54,4,126,129,5,

85,54,4,126,128,4,

85,53,3,125,128,4,

85,53,4,125,127,4,

84,53,3,124,127,5,

83,52,3,124,126,5,

83,52,3,123,125,4,

83,52,4,122,126,4,

82,51,4,121,125,4,

82,51,4,121,124,5,

82,51,4,121,125,4,

82,50,4,120,123,4,

81,51,3,120,123,4,

81,50,4,118,122,4,

79,50,3,118,122,3,

80,49,4,118,122,3,

79,49,3,117,121,4,

79,49,4,117,120,5,

79,50,4,117,120,4,

78,49,4,116,120,4,

78,48,4,115,120,4,

78,49,5,115,119,4,

77,48,4,114,118,4,

77,48,4,114,117,4,

77,48,4,113,117,4,

76,47,4,113,116,4,

76,47,3,113,117,3,

76,46,4,112,115,4,

75,46,3,111,115,3,

75,46,3,110,115,4,

75,46,4,110,114,3,

94,45,4,109,114,4,

93,46,4,109,113,4,

93,45,4,109,113,4,

92,45,4,108,112,4,

92,45,4,108,113,5,

91,106,5,107,111,4,

91,103,4,107,112,5,

90,103,4,106,111,3,

89,103,4,106,111,4,

89,102,4,105,109,4,

88,102,5,105,109,3,

88,102,4,103,108,3,

88,100,4,103,108,4,

88,100,3,103,108,3,

86,99,5,103,107,3,

86,99,4,102,108,4,

86,98,4,102,112,3,

85,98,4,102,111,5,

85,97,4,101,111,4,

84,96,3,101,110,3,

84,96,3,99,110,4,

84,96,4,99,109,3,

83,96,4,99,108,3,

83,95,4,98,108,4,

83,94,3,99,108,4,

82,94,4,98,107,4,

82,93,3,97,107,4,

81,93,4,97,106,5,

81,92,4,97,106,3,

81,93,5,97,106,3,

81,92,4,96,105,4,

79,92,4,96,104,3,

79,91,4,95,103,4,

79,91,4,95,103,4,

79,90,4,94,103,4,

78,89,4,94,103,5,

78,89,3,93,103,3,

78,88,4,93,103,3,

77,89,3,95,102,4,

77,89,4,95,101,3,

77,88,3,94,101,4,

76,88,4,94,100,4,

76,87,3,94,100,4,

76,87,5,93,100,5,

76,86,4,92,100,5,

75,86,3,93,99,4,

75,86,4,92,99,3,

74,85,4,92,99,3,

74,84,3,91,98,3,

74,84,4,91,97,5,

73,84,4,91,97,4,

73,83,4,90,97,3,

71,83,4,89,96,4,

71,82,3,90,96,3,

71,82,4,89,96,3,

71,82,4,89,96,4,

71,83,3,88,95,4,

71,82,3,89,95,3,

71,81,4,88,95,4,

71,81,3,88,95,4,

71,80,3,88,94,3,

70,80,4,88,93,4,

70,79,4,86,94,4,

70,79,4,87,93,3,

69,78,4,86,92,3,

69,78,3,86,93,4,

69,78,4,85,93,4,

69,79,5,85,92,3,

67,78,4,84,91,4,

68,77,3,83,91,3,

67,77,3,84,90,4,

67,77,4,83,90,3,

67,76,4,83,89,4,

67,76,4,83,90,3,

67,76,4,82,89,3,

66,76,4,83,89,4,

66,75,3,82,89,4,

65,75,3,81,88,3,

65,75,3,81,88,4,

65,74,3,81,88,3,

64,73,4,80,88,4,

64,74,4,80,88,4,

64,73,4,80,87,3,

63,73,4,79,87,3,

63,72,4,79,87,3,

63,71,3,79,86,4,

63,71,3,79,85,5,

65,71,4,78,85,3,

65,71,4,79,85,4,

65,71,4,78,85,3,

64,71,4,78,84,3,

64,70,4,78,84,4,

64,70,3,77,84,3,

63,70,4,77,83,3,

63,70,4,77,83,3,

62,69,3,77,83,4,

63,69,4,76,82,4,

62,69,4,76,82,4,

62,68,3,76,82,4,

62,68,4,75,82,3,

62,67,4,75,81,4,

61,67,4,74,81,4,

61,67,3,74,81,3,

61,67,3,73,81,4,

60,67,4,73,80,4,

61,66,4,73,79,3,

60,66,4,73,79,4,

60,66,4,73,80,4,

60,66,3,73,79,3,

59,66,4,73,79,4,

59,65,3,71,79,3,

58,64,4,71,78,3,

59,64,4,71,78,4,

59,64,4,71,78,3,

76,63,3,71,78,4,

75,63,3,70,77,3,

75,63,3,70,77,4,

75,63,4,70,77,4,

75,62,4,70,77,4,

75,62,4,70,76,4,

73,63,3,69,76,4,

73,62,3,69,76,3,

73,62,4,69,76,3,

73,61,3,69,76,4,

72,62,4,69,75,4,

71,61,3,68,75,4,

71,60,3,68,74,3,

71,61,4,67,74,4,

71,61,3,67,73,4,

71,59,4,67,73,4,

71,60,3,66,73,3,

70,60,4,66,73,3,

70,60,4,66,73,3,

69,59,3,66,73,5,

69,59,3,65,71,4,

70,59,3,65,71,3,

69,58,4,65,71,3,

68,57,4,65,71,4,

69,58,3,65,71,4,

67,58,3,64,71,3,

68,57,3,64,70,4,

67,57,4,65,71,3,

67,56,3,63,70,4,

67,57,4,63,70,3,

66,56,3,63,70,3,

66,56,4,63,69,3,

66,56,3,63,70,3,

66,56,4,62,69,3,

65,56,4,62,69,3,

64,56,3,62,68,4,

64,56,4,62,69,4,

63,55,3,62,68,3,

74,55,4,61,67,3,

73,54,4,62,68,4,

73,54,3,62,67,3,

73,54,3,61,67,4,

72,53,4,60,66,4,

71,53,4,60,66,5,

71,54,4,60,66,3,

71,53,4,60,66,4,

71,53,4,60,65,3,

70,53,4,59,65,3,

70,53,4,59,65,3,

70,52,3,59,66,3,

70,52,3,59,65,4,

70,51,4,59,65,3,

69,51,3,59,64,4,

68,51,4,58,64,4,

68,51,4,59,63,4,

69,51,3,58,63,3,

67,50,3,58,63,3,

67,51,3,58,63,4,

67,51,3,57,62,4,

67,51,3,57,63,3,

66,51,3,58,62,4,

66,51,4,57,62,4,

66,51,4,56,62,3,

65,51,4,56,62,3,

65,50,4,56,61,4,

65,50,3,56,62,4,

64,50,4,56,61,3,

64,51,4,56,61,4,

63,49,3,56,61,4,

64,49,4,56,60,4,

64,49,3,71,75,4,

63,49,3,90,73,3,

63,49,4,90,73,4,

63,48,3,89,71,4,

63,48,4,89,71,4,

62,48,3,88,71,4,

62,48,3,88,71,3,

62,48,4,88,71,4,

62,47,5,88,70,4,

61,47,4,86,70,4,

61,47,3,86,70,3,

60,47,3,86,70,3,

60,47,3,86,69,3,

60,46,5,86,69,4,

60,46,3,84,68,3,

60,46,3,84,68,3,

59,46,4,83,68,4,

59,45,4,83,67,4,

59,45,4,83,67,3,

59,45,3,83,67,4,

59,45,3,82,67,3,

58,45,4,82,67,4,

59,45,4,82,66,3,

58,45,4,81,66,3,

57,44,4,81,66,3,

57,44,3,80,65,4,

57,44,4,80,66,4,

56,43,4,81,67,3,

56,44,4,80,66,4,

56,44,3,79,65,4,

56,44,3,79,65,3,

57,43,3,79,64,4,

56,43,4,78,64,3,

56,43,3,78,63,3,

55,43,4,78,63,3,

56,42,3,78,63,4,

56,42,5,77,63,3,

56,41,4,77,63,3,

55,41,3,76,63,4,

54,41,4,76,62,3,

54,41,3,76,62,3,

55,41,3,76,62,3,

54,41,4,76,61,3,

54,41,3,75,62,4,

54,41,4,75,61,3,

54,41,3,74,60,4,

53,39,4,75,62,4,

98,39,4,74,60,4,

97,39,3,73,61,4,

96,39,4,73,60,3,

96,39,3,73,60,3,

96,39,4,72,60,4,

95,39,4,73,60,5,

95,58,4,71,59,4,

94,57,3,71,59,4,

94,57,3,71,59,3,

93,57,3,71,58,4,

92,56,4,71,59,4,

92,57,3,71,58,4,

92,56,3,70,57,4,

96,56,5,70,58,4,

94,56,4,69,57,3,

94,55,3,69,57,4,

93,56,3,69,57,3,

93,54,4,69,57,3,

92,55,4,69,57,4,

92,54,3,68,56,4,

92,54,3,68,56,4,

92,54,4,67,56,3,

91,53,3,67,56,4,

91,54,3,89,55,4,

90,53,3,89,56,4,

90,52,3,88,55,3,

89,52,3,87,55,3,

89,53,5,88,55,4,

88,52,4,87,54,4,

88,51,4,86,54,4,

88,51,3,86,54,4,

88,51,3,86,62,3,

88,51,3,85,62,3,

87,50,3,85,62,3,

87,50,3,84,61,3,

86,50,5,84,61,3,

86,50,4,83,60,4,

86,50,3,83,61,4,

85,50,3,83,60,4,

84,49,5,83,60,4,

83,49,3,82,59,3,

83,48,4,83,60,4,

83,48,3,81,59,4,

82,49,3,81,58,4,

82,48,4,81,59,4,

82,48,4,80,59,4,

81,48,3,79,59,3,

81,48,4,79,58,5,

81,47,3,80,58,4,

80,47,3,79,57,3,

80,46,3,79,57,3,

79,47,3,78,57,3,

79,46,3,78,57,3,

79,46,4,78,57,3,

79,46,3,78,57,5,

79,46,4,77,56,4,

79,45,3,76,56,3,

78,45,4,77,56,3,

78,45,3,76,56,3,

77,44,3,76,56,4,

77,45,3,76,55,4,

77,44,4,75,55,3,

76,44,4,75,55,3,

76,45,3,75,54,3,

76,44,3,73,54,4,

75,44,4,75,55,4,

76,44,3,73,55,4,

75,43,4,73,53,3,

74,43,3,73,54,4,

74,43,4,73,53,4,

74,42,3,71,53,4,

73,43,3,73,53,3,

73,43,3,71,53,3,

73,42,3,71,52,3,

73,42,3,71,52,3,

71,41,3,71,51,4,

71,41,4,71,52,4,

71,41,4,70,52,3,

71,41,3,70,51,4,

71,41,4,69,51,3,

71,41,3,69,51,4,

70,39,4,69,51,4,

71,40,3,69,51,4,

70,40,3,69,51,3,

69,56,4,68,54,4,

69,54,3,69,54,4,

69,55,3,67,54,3,

68,54,3,67,53,4,

69,54,3,67,54,4,

68,53,3,67,53,3,

68,53,3,67,52,3,

67,53,4,66,53,3,

67,53,4,66,52,4,

67,52,4,66,51,3,

67,53,3,65,51,3,

67,52,4,66,51,4,

66,51,3,65,51,3,

66,51,3,64,51,3,

66,51,4,64,51,3,

65,51,4,63,51,3,

66,51,4,63,50,3,

65,50,5,63,51,4,

63,50,3,63,51,4,

65,51,4,63,49,3,

63,49,5,63,49,4,

63,50,3,62,49,3,

63,49,4,62,49,3,

63,49,3,63,49,3,

63,49,4,62,49,3,

63,49,4,61,49,3,

62,48,3,61,49,3,

62,48,3,61,49,3,

62,48,3,60,48,3,

61,48,3,60,48,4,

61,48,3,60,48,3,

61,47,4,60,48,3,

60,47,4,60,47,3,

61,48,4,60,47,3,

60,47,3,59,47,4,

60,47,4,60,47,3,

60,46,3,59,47,3,

60,46,3,59,47,4,

59,46,3,58,46,3,

59,45,3,58,49,4,

59,46,3,58,49,3,

58,45,4,58,49,3,

58,45,4,58,49,4,

57,45,4,57,49,4,

58,45,4,57,48,4,

57,45,3,56,48,3,

57,45,3,56,48,3,

57,44,3,56,48,4,

57,43,3,56,47,3,

56,43,3,56,47,3,

56,43,3,56,47,4,

56,44,3,56,48,3,

56,43,4,56,79,3,

56,42,3,56,90,4,

56,43,4,56,89,3,

56,43,3,54,89,3,

56,42,4,54,88,3,

54,43,4,54,88,3,

54,42,4,54,88,3,

54,41,4,54,87,4,

54,41,4,54,87,4,

54,41,4,54,86,4,

53,41,3,53,86,3,

53,41,4,53,86,3,

53,41,4,53,85,3,

53,41,4,52,85,5,

52,41,3,52,85,3,

52,41,3,52,84,4,

52,41,4,52,83,3,

53,41,4,52,83,3,

52,40,4,51,83,3,

51,39,3,51,82,3,

51,39,3,51,82,3,

51,39,3,51,82,4,

51,39,3,51,82,4,

51,39,3,51,81,3,

50,39,4,51,81,3,

49,39,3,50,80,4,

50,39,3,49,80,3,

51,39,4,50,79,3,

50,39,4,50,79,3,

49,39,5,49,79,3,

49,38,3,49,79,4,

49,39,3,48,78,3,

49,39,4,49,78,4,

49,38,4,49,77,4,

49,38,4,48,78,3,

48,38,3,49,77,4,

49,38,3,48,77,3,

48,37,3,47,76,4,

47,37,3,48,77,4,

47,37,3,48,76,4,

47,38,4,48,75,4,

47,37,3,47,76,4,

47,37,5,48,74,3,

46,36,4,48,74,4,

46,37,3,47,74,4,

46,36,4,47,73,4,

46,36,3,46,73,4,

46,35,4,46,73,4,

46,35,3,46,73,3,

46,35,4,47,71,3,

45,35,4,45,71,4,

46,35,4,46,71,3,

45,35,3,45,71,5,

45,34,3,45,71,3,

45,34,5,45,71,4,

44,34,4,45,71,4,

44,35,3,45,70,3,

44,34,4,44,70,3,

44,34,4,45,70,3,

44,34,3,45,70,3,

56,34,3,44,69,4,

56,33,3,44,68,4,

56,34,4,43,69,4,

56,33,3,44,69,3,

56,33,3,43,68,4,

55,34,3,43,67,4,

54,33,3,43,67,3,

54,34,4,43,67,4,

54,33,3,43,67,3,

54,32,3,43,67,3,

53,33,4,42,67,4,

54,33,3,42,66,4,

53,31,3,42,66,4,

53,33,3,42,65,4,

53,31,3,42,66,3,

52,31,3,41,65,4,

52,31,4,41,65,4,

51,31,4,41,65,4,

51,31,4,41,63,3,

51,32,5,41,63,3,

51,31,4,41,63,4,

51,31,4,41,63,3,

51,31,3,39,63,4,

50,31,4,39,63,3,

51,31,3,40,62,3,

49,31,4,39,62,3,

49,31,3,39,62,4,

50,30,3,39,61,4,

49,30,3,39,61,3,

50,29,3,39,62,4,

49,30,4,39,61,4,

49,30,4,68,64,3,

49,34,3,68,66,3,

48,35,4,67,66,4,

48,35,3,67,65,3,

48,34,3,66,65,4,

47,35,4,66,65,3,

47,34,3,66,64,3,

48,34,4,66,64,3,

48,33,4,65,63,4,

65,34,4,65,63,4,

65,33,3,65,63,3,

64,34,4,64,63,3,

65,33,3,63,62,3,

63,33,4,63,64,3,

63,33,3,63,81,4,

63,33,4,63,79,3,

62,33,3,62,79,4,

62,33,3,63,79,3,

62,33,3,62,79,3,

62,31,4,62,78,3,

62,31,4,62,78,4,

61,33,4,62,78,4,

61,32,3,61,77,4,

61,32,4,61,77,4,

60,31,3,60,77,3,

60,31,3,60,76,4,

60,32,3,60,76,4,

60,31,4,60,76,4,

60,32,4,59,75,3,

59,31,4,59,74,3,

59,32,4,59,75,3,

59,31,3,59,75,3,

58,31,4,58,73,3,

57,31,3,58,73,3,

81,31,4,58,73,3,

93,31,3,58,71,3,

92,31,3,57,72,4,

91,31,4,57,71,3,

91,30,4,57,71,3,

91,31,3,56,71,3,

90,30,3,56,71,3,

89,31,3,56,71,3,

89,30,4,56,71,3,

88,31,3,56,70,3,

88,30,3,56,70,3,

88,31,4,55,69,3,

88,30,3,55,70,3,

87,30,3,55,69,4,

86,30,3,55,68,4,

86,30,4,54,68,3,

86,29,3,54,68,3,

85,30,3,54,67,4,

85,29,3,53,67,4,

84,31,4,54,67,4,

84,41,3,53,67,3,

83,41,4,53,67,3,

83,41,3,53,66,4,

82,39,3,52,66,3,

83,39,3,52,65,3,

83,39,3,52,65,4,

82,39,4,53,65,3,

82,39,3,51,65,3,

81,39,3,51,65,4,

81,39,3,51,63,3,

80,39,4,50,63,3,

80,39,3,51,63,4,

81,39,4,51,65,3,

79,39,4,50,65,5,

79,39,3,50,65,3,

79,38,3,50,65,4,

79,38,3,50,64,4,

78,38,3,49,65,3,

78,38,4,49,63,3,

78,37,4,49,63,4,

77,38,4,49,63,3,

76,37,3,49,63,3,

77,37,4,48,62,3,

76,38,3,48,62,3,

76,37,4,48,62,3,

75,37,3,48,62,3,

75,48,3,48,62,3,

75,48,3,48,61,4,

75,48,3,48,61,3,

75,47,3,48,60,4,

73,46,3,47,61,4,

73,46,3,48,60,3,

73,46,3,47,60,4,

73,46,4,46,60,3,

71,46,4,46,59,3,

71,46,3,46,59,5,

71,46,4,46,59,4,

71,45,3,46,59,3,

71,45,4,46,59,3,

71,44,3,45,58,3,

71,44,3,45,59,3,

71,44,3,45,57,4,

70,44,3,45,57,3,

69,44,5,45,57,3,

69,44,3,44,57,3,

70,44,4,44,57,4,

69,43,3,45,57,3,

68,43,4,44,56,4,

69,43,3,44,56,4,

68,43,4,43,56,3,

67,43,4,44,56,3,

67,63,4,44,56,3,

67,65,4,43,56,3,

67,65,4,43,55,4,

67,64,4,43,55,3,

66,63,4,43,55,3,

66,63,4,42,55,3,

66,63,3,43,54,3,

66,63,4,42,53,4,

66,63,4,42,53,3,

65,62,3,41,53,3,

65,62,4,41,53,3,

64,62,3,41,53,4,

63,61,4,41,53,3,

64,62,4,41,52,4,

63,62,3,40,53,4,

63,61,3,41,51,4,

63,60,3,40,51,4,

62,60,4,40,51,4,

62,60,3,39,52,4,

62,59,3,39,51,3,

62,60,3,39,51,3,

62,59,3,39,51,4,

66,59,3,39,50,4,

66,58,4,39,51,4,

65,57,5,50,50,3,

65,58,3,60,49,3,

65,57,4,59,50,3,

64,58,3,59,49,4,

64,57,3,58,49,4,

63,57,4,57,50,3,

63,57,4,57,48,3,

63,56,3,58,49,4,

63,56,4,57,48,3,

63,56,4,56,48,4,

63,56,4,57,48,4,

62,56,5,57,48,3,

62,56,4,56,47,4,

62,55,4,56,48,4,

61,55,4,56,47,3,

61,54,3,56,48,4,

61,54,4,55,47,4,

61,54,3,55,47,4,

61,53,4,55,46,4,

60,53,3,55,46,4,

60,53,4,54,46,3,

60,52,3,54,45,4,

60,52,3,53,46,4,

60,53,4,54,46,4,

65,53,3,53,46,3,

65,51,3,53,45,4,

63,51,3,52,45,3,

64,51,3,52,45,4,

64,51,3,52,54,4,

63,51,4,52,56,3,

63,51,3,52,56,4,

63,51,4,52,56,4,

63,50,3,51,55,4,

63,49,3,51,54,3,

62,50,4,50,54,4,

62,49,3,50,54,3,

62,49,4,50,53,3,

61,49,3,50,53,4,

61,49,3,50,54,4,

60,49,4,51,53,4,

60,48,4,49,53,4,

60,48,4,49,52,3,

60,48,4,49,52,4,

59,48,3,49,52,4,

59,47,3,49,51,4,

59,48,4,49,51,3,

59,47,3,48,51,4,

59,47,3,48,51,4,

58,47,4,48,51,3,

58,46,3,48,51,4,

58,46,3,47,51,4,

58,46,4,47,50,5,

57,46,3,47,49,3,

57,46,4,47,49,3,

57,45,4,47,50,4,

57,46,4,47,49,3,

57,45,4,46,49,3,

56,45,3,46,49,3,

56,45,3,46,49,4,

56,45,4,45,48,3,

56,44,3,45,48,3,

56,44,4,45,48,4,

55,44,3,44,48,4,

55,43,4,45,48,3,

54,44,3,45,48,4,

54,43,3,45,48,4,

54,44,4,45,47,3,

54,43,5,44,47,4,

54,43,3,44,46,4,

53,42,3,43,46,4,

53,42,4,44,46,3,

53,43,3,44,46,3,

52,42,4,43,46,3,

52,41,3,42,45,3,

53,41,3,43,45,3,

51,41,3,42,45,3,

53,41,3,42,44,4,

52,41,3,42,44,3,

53,41,4,41,44,4,

52,41,3,41,45,3,

52,41,3,41,44,4,

53,39,3,41,57,3,

51,39,3,53,58,3,

51,39,4,52,58,5,

51,39,5,52,57,4,

51,39,3,52,57,3,

51,39,4,51,57,4,

51,39,3,51,57,4,

51,39,3,50,56,3,

51,39,5,51,57,4,

50,39,4,50,56,5,

50,39,3,51,56,3,

50,38,3,50,56,3,

50,38,3,50,55,3,

49,38,4,50,55,3,

49,38,4,49,54,4,

49,38,3,49,54,3,

48,38,4,48,54,3,

49,37,3,48,53,4,

48,37,3,49,54,4,

49,37,3,48,53,3,

48,36,3,48,53,3,

48,37,3,48,52,3,

48,36,3,48,53,3,

47,36,4,47,52,4,

47,36,4,47,52,3,

47,36,3,46,52,3,

47,35,5,46,51,4,

46,35,3,47,51,3,

47,35,4,46,51,4,

47,35,4,46,51,4,

46,35,4,46,51,4,

46,35,4,45,50,3,

46,35,3,45,51,4,

45,34,4,45,50,4,

46,34,3,45,50,4,

45,34,3,45,50,3,

46,34,4,45,49,4,

45,34,4,45,50,3,

45,33,3,45,49,3,

44,34,3,44,49,4,

45,34,3,44,53,4,

44,33,3,43,53,4,

44,33,4,47,53,3,

44,33,4,47,53,5,

44,33,4,47,52,3,

44,33,4,46,51,4,

43,32,4,47,51,3,

43,32,4,46,51,3,

43,31,4,46,51,4,

43,33,3,46,50,4,

43,32,4,46,51,3,

42,32,4,46,50,3,

43,32,4,45,50,4,

42,38,3,45,50,4,

41,38,3,44,49,3,

41,38,3,45,50,3,

42,37,3,44,50,3,

41,38,3,44,49,3,

41,37,3,44,49,3,

41,37,3,44,49,4,

46,37,3,44,48,4,

54,36,3,43,48,4,

54,37,3,44,48,4,

54,37,4,43,47,3,

54,36,3,43,47,3,

53,35,4,42,47,4,

52,35,3,43,47,3,

53,36,4,42,47,4,

52,35,4,43,46,3,

52,35,3,41,47,3,

52,35,3,42,46,4,

51,35,4,41,46,3,

51,35,4,41,46,4,

51,35,4,41,45,4,

51,34,4,41,45,3,

51,35,3,41,45,4,

50,34,4,41,46,4,

50,35,4,39,45,3,

50,33,3,39,45,4,

50,34,3,39,49,4,

49,34,4,89,50,4,

49,37,4,102,49,5,

48,37,4,102,49,3,

49,37,4,101,48,4,

49,36,3,99,48,3,

48,36,3,99,48,4,

48,36,4,99,47,4,

48,35,3,98,48,3,

48,35,3,97,48,4,

47,36,4,97,47,4,

48,35,4,97,46,4,

48,35,4,119,105,3,

47,41,4,145,129,3,

47,43,3,144,128,4,

46,43,4,143,127,3,

46,41,3,143,127,3,

46,41,3,143,126,3,

47,41,3,141,125,4,

49,41,4,140,124,4,

50,40,3,140,124,3,

51,39,4,139,123,3,

50,39,3,139,123,3,

50,39,3,137,121,4,

49,39,4,137,121,4,

49,39,3,135,121,4,

49,39,4,135,120,3,

49,39,4,135,120,4,

48,39,4,135,118,3,

48,39,3,134,118,4,

48,39,4,133,118,5,

48,38,5,133,117,4,

48,38,3,131,117,4,

48,39,3,131,115,3,

47,37,3,131,115,4,

47,38,4,130,115,4,

46,37,4,129,114,4,

47,37,3,129,114,4,

46,37,3,128,113,3,

46,37,4,127,113,4,

46,37,3,127,112,3,

45,36,3,126,112,3,

45,37,4,126,111,4,

45,37,3,125,110,4,

45,36,4,125,110,3,

45,35,4,125,109,3,

44,35,4,124,109,4,

44,35,3,123,108,4,

44,34,3,123,108,3,

44,35,4,122,107,4,

43,35,4,121,107,4,

44,35,4,121,107,4,

43,34,3,120,105,4,

43,34,3,120,105,3,

42,34,3,120,105,3,

42,34,3,119,103,3,

42,34,3,118,103,3,

43,34,3,117,103,3,

41,33,4,118,103,4,

41,33,3,116,103,3,

41,32,3,116,102,3,

41,32,4,115,101,3,

41,31,4,115,102,3,

41,32,3,115,101,3,

41,31,4,114,101,4,

39,32,4,113,100,4,

39,31,3,113,99,3,

39,31,3,112,99,3,

39,31,3,112,99,3,

39,31,4,112,97,3,

39,31,3,111,97,4,

39,43,4,111,98,4,

39,42,3,111,97,4,

39,43,4,109,96,4,

39,42,3,110,96,3,

39,41,3,109,96,3,

38,43,4,108,95,3,

39,41,4,108,94,3,

38,41,4,108,94,4,

38,41,3,107,93,3,

38,40,4,107,94,4,

38,40,3,106,93,3,

38,41,4,105,93,3,

38,41,3,106,92,4,

37,39,3,105,92,3,

37,39,3,103,91,4,

36,39,4,103,91,4,

36,39,4,103,90,4,

36,39,4,103,89,3,

36,39,3,103,89,3,

37,39,4,102,89,3,

36,39,4,102,90,3,

36,38,3,102,89,3,

36,39,4,102,88,4,

36,39,3,101,88,4,

35,38,3,100,88,3,

36,38,4,100,88,4,

35,38,3,100,87,3,

34,37,3,99,86,3,

35,37,3,99,86,3,

35,36,4,98,86,3,

35,36,3,97,85,3,

34,36,3,97,84,4,

34,37,4,97,85,4,

39,35,3,97,85,3,

43,36,4,97,84,4,

43,35,3,96,83,4,

44,35,3,95,83,3,

43,35,3,95,83,3,

43,35,4,95,83,3,

42,35,3,94,82,3,

42,35,3,94,81,3,

43,35,3,94,81,4,

42,35,4,93,81,3,

41,34,3,93,81,4,

41,34,3,93,81,3,

41,34,4,92,79,3,

40,34,4,92,79,3,

40,33,3,91,79,4,

39,34,3,91,79,3,

39,33,4,91,79,3,

41,33,4,91,79,3,

39,33,3,91,79,3,

39,34,3,89,78,3,

39,33,3,90,77,4,

39,34,3,89,77,3,

39,33,3,89,78,4,

39,33,3,88,76,3,

39,33,4,88,76,3,

39,32,3,88,76,3,

38,32,4,88,76,3,

38,32,3,87,76,4,

39,32,4,87,75,3,

38,33,3,87,75,3,

38,32,4,86,75,4,

37,33,3,86,74,4,

38,34,4,86,74,4,

37,33,3,85,74,3,

37,34,4,84,73,4,

37,33,3,84,73,3,

36,33,4,83,73,3,

36,33,4,83,73,4,

36,32,4,83,71,4,

37,32,4,83,73,4,

71,32,3,83,71,4,

70,31,4,83,71,3,

71,32,3,82,71,3,

70,31,3,82,71,4,

70,31,4,82,70,4,

69,31,3,81,70,3,

67,33,4,81,70,4,

69,31,4,81,70,3,

67,32,3,80,69,3,

67,32,3,79,70,4,

67,31,4,79,69,3,

67,31,4,79,69,3,

66,31,4,79,68,3,

66,31,4,79,67,4,

66,30,3,78,68,3,

65,31,3,78,68,4,

65,31,3,78,68,4,

65,30,3,77,67,4,

65,30,4,77,67,4,

64,30,4,78,66,4,

65,30,3,76,66,3,

63,30,4,77,65,4,

63,29,4,76,66,3,

63,30,3,77,66,4,

63,29,3,76,66,3,

62,29,5,76,65,4,

62,29,4,75,65,4,

62,29,4,74,64,4,

62,29,4,75,64,3,

61,28,3,74,64,3,

62,29,3,74,64,3,

61,30,3,74,65,4,

61,30,4,73,63,3,

61,30,4,73,64,5,

60,30,3,73,63,3,

60,30,3,71,63,4,

60,30,3,71,63,3,

59,29,3,71,63,3,

59,30,3,71,63,3,

59,30,4,71,62,3,

58,29,4,71,63,4,

59,29,4,71,62,3,

57,29,3,71,62,3,

58,28,4,70,62,4,

57,29,3,70,62,4,

57,29,3,70,61,4,

57,30,3,70,61,4,

57,29,4,70,61,3,

56,29,4,69,60,3,

57,29,4,68,61,3,

56,28,4,69,61,3,

56,29,3,67,60,3,

56,28,3,67,59,3,

56,28,4,68,60,4,

55,27,3,67,59,3,

56,28,4,67,59,3,

54,28,4,67,58,3,

55,28,4,67,59,3,

53,28,4,66,58,3,

54,27,3,66,57,3,

