
54,35,0,80,61,0,

54,35,0,79,61,0,

53,35,0,79,60,0,

53,34,0,79,60,0,

53,34,0,79,60,0,

53,34,0,79,60,0,

52,34,0,79,59,0,

52,34,0,78,59,0,

52,34,0,78,59,0,

51,33,0,78,59,0,

51,33,0,77,58,0,

51,33,0,77,58,0,

51,33,0,76,57,0,

51,33,0,76,57,0,

50,32,0,76,57,0,

50,32,0,76,57,0,

50,32,0,75,57,0,

50,32,0,102,57,0,

50,31,0,131,56,0,

50,31,0,131,56,0,

50,31,0,130,56,0,

50,31,0,129,56,0,

49,31,0,128,55,0,

49,31,0,127,56,0,

49,31,0,127,54,0,

49,31,0,127,54,0,

48,31,0,126,54,0,

48,30,0,125,54,0,

48,30,0,125,54,0,

48,30,0,124,53,0,

48,30,0,123,53,0,

49,30,0,123,53,0,

49,30,0,123,52,0,

48,30,0,121,52,0,

48,29,0,121,51,0,

48,29,0,120,52,0,

48,29,0,120,51,0,

48,29,0,120,51,0,

47,29,0,119,51,0,

47,29,0,119,50,0,

46,28,0,118,51,0,

46,28,0,118,50,0,

46,28,0,117,50,0,

47,28,0,117,49,0,

47,28,0,116,50,0,

47,27,0,115,49,0,

46,27,0,115,49,0,

46,27,0,114,49,0,

46,27,0,114,48,0,

45,27,0,113,48,0,

45,27,0,113,48,0,

45,27,0,112,48,0,

45,26,0,112,48,0,

44,27,0,111,47,0,

44,26,0,110,47,0,

44,26,0,110,47,0,

44,26,0,110,47,0,

44,26,0,109,46,0,

43,25,0,109,46,0,

43,26,0,108,46,0,

43,25,0,108,46,0,

43,25,0,108,46,0,

43,25,0,107,45,0,

42,25,0,106,45,0,

42,25,0,106,45,0,

42,24,0,105,45,0,

41,25,0,105,45,0,

41,24,0,105,44,0,

41,24,0,103,44,0,

41,24,0,103,44,0,

41,24,0,103,44,0,

41,24,0,103,44,0,

39,24,1,103,43,0,

39,24,0,102,43,0,

39,24,0,101,43,0,

39,24,0,101,43,0,

39,23,0,100,43,0,

39,23,0,100,42,0,

39,23,0,99,42,0,

39,23,0,99,41,0,

39,23,0,99,41,0,

39,22,0,99,41,0,

39,23,0,98,41,0,

38,22,0,98,41,0,

38,22,0,97,41,0,

38,22,0,97,41,0,

37,22,0,96,39,0,

38,22,0,96,39,0,

37,22,0,96,39,0,

37,22,0,95,39,0,

37,22,0,95,39,0,

37,21,0,94,39,0,

36,21,0,94,39,0,

36,21,0,94,39,0,

39,21,0,93,39,0,

38,20,0,93,39,0,

38,21,0,93,39,0,

38,21,0,92,39,0,

38,20,0,92,38,0,

38,20,0,92,38,0,

37,20,0,91,38,0,

37,20,0,91,38,0,

37,20,0,91,38,0,

37,19,0,90,37,0,

37,20,0,89,37,0,

36,19,0,89,37,0,

36,19,0,89,36,0,

36,19,0,89,37,0,

35,19,0,88,36,0,

35,19,0,88,36,0,

35,19,0,88,36,0,

35,19,0,88,63,0,

35,19,0,87,65,0,

35,19,0,87,64,0,

35,19,0,86,63,0,

35,19,0,86,63,0,

35,18,0,86,63,0,

34,18,0,85,63,0,

34,18,0,85,62,0,

34,18,0,84,62,0,

34,18,0,84,62,0,

34,18,0,83,61,0,

33,18,0,83,61,0,

33,18,0,83,61,0,

33,18,0,83,60,0,

33,17,0,82,60,0,

33,18,0,82,60,0,

33,17,0,82,60,0,

32,17,0,81,60,0,

32,17,0,81,59,0,

32,17,0,81,59,1,

31,17,0,80,59,0,

31,17,0,80,58,0,

31,17,0,79,58,0,

31,16,0,79,58,0,

31,16,0,79,57,0,

31,16,0,79,57,0,

31,16,0,78,57,0,

31,16,0,78,57,0,

31,16,0,78,56,0,

31,16,0,78,56,0,

30,16,0,77,56,0,

30,16,0,77,56,0,

30,15,0,77,56,0,

30,16,0,76,55,0,

30,15,0,76,55,0,

30,15,0,76,55,0,

29,15,0,76,55,0,

29,15,0,75,54,0,

29,15,0,75,54,0,

29,15,0,74,54,0,

29,15,0,74,54,0,

29,15,0,74,53,0,

29,15,0,73,53,0,

28,15,0,73,53,0,

28,14,0,73,52,0,

28,14,0,73,52,0,

28,14,0,71,52,0,

28,14,0,71,51,0,

28,14,0,71,51,0,

28,14,0,71,51,0,

28,14,0,71,51,0,

27,14,0,71,51,0,

27,14,0,71,50,0,

27,14,0,70,50,0,

27,14,0,70,50,0,

27,14,0,70,50,0,

27,14,0,70,49,0,

27,13,0,69,49,0,

27,13,0,69,49,0,

26,13,0,69,49,0,

26,13,0,69,48,0,

27,13,0,68,48,0,

26,13,0,68,48,0,

27,13,0,67,48,0,

26,13,0,67,48,0,

26,13,0,67,48,0,

26,13,0,67,47,0,

26,13,0,66,47,0,

26,13,0,66,47,0,

25,13,0,66,47,0,

25,12,0,66,46,0,

25,13,0,65,46,0,

25,13,0,65,46,0,

25,12,0,65,46,0,

25,12,0,64,46,0,

36,12,0,64,46,0,

35,12,0,64,45,0,

35,12,0,63,45,0,

35,12,0,63,45,0,

35,12,0,63,44,0,

35,12,0,63,44,0,

34,12,0,63,44,1,

34,12,0,62,44,0,

34,12,0,62,44,0,

34,12,0,62,43,0,

48,26,1,62,44,0,

86,51,0,62,43,0,

88,71,0,61,43,0,

103,80,0,61,43,0,

102,85,0,61,43,0,

101,84,0,60,42,0,

101,83,0,60,42,0,

100,83,0,60,42,0,

99,83,0,60,41,0,

99,82,0,60,41,0,

98,81,0,59,41,0,

98,81,0,59,41,0,

97,80,0,59,41,0,

97,80,0,59,39,0,

96,79,0,59,39,0,

96,79,0,58,39,0,

96,79,0,58,39,0,

95,79,0,57,39,0,

95,78,0,57,39,0,

94,78,0,57,39,0,

94,78,0,57,39,0,

93,77,0,57,39,0,

93,77,0,56,39,0,

93,76,0,56,39,0,

92,76,0,56,39,0,

92,76,0,56,38,0,

91,75,0,56,38,0,

91,75,0,58,38,0,

90,75,0,58,38,0,

90,74,0,57,38,0,

89,74,0,57,37,0,

89,74,0,57,37,0,

89,73,0,57,37,0,

88,73,0,56,37,0,

88,73,0,56,37,0,

88,71,0,56,36,0,

88,71,0,56,36,0,

87,71,0,56,36,0,

86,71,0,55,36,0,

86,71,0,55,35,0,

86,70,0,55,35,0,

86,70,0,85,35,0,

85,70,0,84,35,0,

85,70,0,83,35,0,

84,69,0,83,86,0,

84,69,0,82,85,0,

84,69,0,82,84,0,

83,68,0,82,83,0,

83,68,0,81,83,0,

82,67,0,81,83,0,

82,68,0,80,82,0,

82,67,0,80,82,0,

81,67,0,79,81,0,

81,123,0,79,80,0,

81,132,0,79,80,0,

80,131,0,79,79,0,

80,130,0,78,79,0,

79,129,0,78,79,1,

79,128,0,78,79,0,

79,127,0,77,78,0,

79,127,0,77,78,0,

78,126,0,77,77,0,

78,126,0,76,77,0,

78,125,0,76,77,0,

77,124,0,76,76,0,

77,124,0,75,76,0,

81,123,0,75,76,0,

81,123,0,75,76,0,

81,122,0,74,74,0,

80,121,0,74,75,0,

79,121,0,73,74,1,

79,120,0,73,74,0,

79,120,0,73,73,0,

79,120,0,71,73,0,

78,119,1,71,73,0,

78,118,0,71,71,0,

78,117,0,71,71,0,

77,117,0,71,71,0,

77,116,0,71,71,0,

76,116,0,71,71,0,

76,115,0,70,71,0,

76,115,0,70,70,0,

76,114,0,70,70,0,

75,113,0,69,70,0,

75,113,0,69,69,0,

74,113,0,69,69,0,

74,112,0,68,69,0,

73,112,0,68,68,0,

73,111,0,67,68,0,

73,110,0,67,68,0,

73,110,0,115,67,0,

71,110,0,114,67,0,

71,109,0,114,67,0,

71,109,0,113,67,0,

71,108,0,112,66,0,

71,107,0,112,66,0,

71,107,0,111,65,0,

71,106,0,110,65,0,

70,106,0,110,65,0,

70,105,0,110,96,0,

70,105,0,109,95,0,

69,104,0,108,94,0,

69,103,0,108,94,0,

69,103,0,107,93,0,

68,103,0,107,93,0,

68,102,0,106,92,0,

67,102,0,106,91,0,

67,101,0,105,91,0,

67,101,0,105,92,0,

67,101,0,103,107,0,

66,100,0,103,107,0,

66,102,0,103,105,0,

66,127,0,103,105,0,

65,126,0,102,104,0,

65,125,0,101,103,0,

64,125,0,101,103,0,

64,131,0,100,103,0,

64,130,0,100,102,0,

63,129,0,99,102,0,

63,128,0,99,101,0,

63,127,0,99,101,0,

63,127,0,98,101,0,

62,126,0,98,100,0,

62,126,1,97,99,0,

62,125,0,97,99,0,

61,124,0,96,99,0,

61,124,0,96,98,0,

61,123,0,96,98,0,

61,122,0,96,97,0,

60,122,0,95,97,0,

60,121,0,94,96,0,

60,121,0,94,96,0,

60,120,0,94,96,0,

59,120,0,93,95,0,

59,119,1,92,95,0,

59,119,0,92,94,0,

59,118,0,92,94,0,

58,117,0,93,93,0,

58,117,0,92,93,0,

57,117,0,92,93,0,

57,116,0,92,92,0,

57,115,0,91,96,0,

57,115,1,91,150,0,

57,114,0,90,148,0,

56,114,0,89,147,0,

56,113,0,89,146,0,

56,112,0,89,145,0,

56,112,0,88,144,0,

55,112,0,88,143,0,

55,111,0,88,143,0,

56,110,0,88,142,0,

67,110,0,87,141,0,

66,109,0,86,140,0,

66,108,0,86,140,0,

65,108,0,85,139,0,

65,108,0,85,139,0,

65,107,0,85,137,0,

64,107,0,84,137,0,

64,106,0,84,136,0,

63,106,0,83,135,0,

63,105,0,83,135,0,

63,103,0,83,134,1,

63,103,0,82,134,0,

62,103,0,82,133,0,

62,103,0,82,132,0,

62,103,0,81,131,0,

61,102,1,81,131,0,

61,102,0,80,131,0,

61,101,0,80,130,0,

60,101,0,79,129,0,

60,100,0,79,129,0,

60,100,0,79,128,0,

60,99,0,79,127,0,

59,99,0,78,127,0,

59,98,0,78,126,0,

59,98,0,78,126,0,

59,97,0,78,125,0,

59,97,0,77,125,0,

58,97,0,77,124,0,

58,96,0,76,124,0,

57,96,0,76,123,0,

57,126,0,76,122,0,

57,134,0,75,121,0,

57,133,0,75,121,0,

56,132,0,75,121,0,

56,131,0,75,120,0,

74,131,0,74,120,0,

75,130,0,73,119,0,

75,129,0,73,118,0,

74,129,0,73,118,0,

73,127,0,73,118,0,

73,127,0,71,117,0,

73,127,0,71,116,0,

71,126,0,71,115,0,

71,126,0,71,115,0,

71,125,0,71,114,0,

71,124,0,76,114,0,

71,124,0,75,113,0,

70,123,0,75,113,0,

70,122,0,74,112,0,

70,121,0,73,112,0,

69,121,0,73,112,0,

69,121,0,73,111,1,

69,120,0,73,110,0,

68,141,0,73,110,0,

68,140,0,71,110,0,

67,139,0,71,109,0,

67,138,0,71,108,0,

67,137,0,71,108,0,

67,137,0,71,108,0,

66,135,0,71,107,0,

66,135,0,70,107,0,

66,135,0,70,105,0,

65,134,0,70,105,0,

65,133,0,69,105,0,

65,132,0,69,105,0,

64,165,1,69,103,0,

63,286,0,69,103,0,

63,310,0,68,103,0,

63,307,0,67,103,0,

107,306,0,67,102,0,

110,304,0,74,102,0,

109,302,0,145,101,0,

108,300,0,143,101,0,

108,298,0,143,100,0,

107,295,0,142,99,0,

107,295,0,141,99,0,

106,293,0,141,99,0,

105,291,0,140,98,0,

105,289,0,139,98,0,

103,287,0,138,98,1,

103,286,0,137,97,0,

110,284,0,137,96,0,

109,283,0,135,96,0,

109,281,0,135,113,0,

108,280,0,135,112,0,

107,279,0,134,111,0,

107,277,0,133,110,0,

106,275,0,132,110,0,

105,273,0,131,109,0,

105,272,0,131,108,0,

103,271,0,130,108,0,

103,269,0,130,107,0,

103,268,0,129,107,0,

102,267,0,128,106,0,

102,265,0,127,105,0,

101,263,0,127,105,0,

101,262,0,126,103,0,

100,260,0,126,103,0,

99,259,0,125,103,0,

99,258,0,124,103,0,

99,255,0,124,102,0,

98,255,0,123,102,0,

98,254,0,123,101,0,

97,253,0,122,101,0,

120,251,0,121,100,0,

119,250,0,121,99,0,

119,249,0,120,99,0,

118,248,0,120,99,0,

117,247,0,119,98,0,

116,245,0,119,97,0,

115,244,0,118,97,0,

115,243,0,118,97,0,

114,241,0,117,97,0,

114,240,0,116,96,0,

113,239,0,116,95,0,

113,238,0,115,95,0,

112,237,0,115,94,0,

111,236,0,114,94,0,

111,234,0,114,93,0,

110,233,0,113,93,0,

110,231,0,113,92,1,

109,231,0,112,92,0,

108,230,0,112,91,0,

108,229,0,111,91,0,

108,227,1,110,91,0,

108,227,0,110,91,0,

107,225,0,133,90,0,

107,225,0,132,89,0,

106,224,0,131,89,1,

105,222,0,131,89,0,

105,221,0,130,88,1,

104,220,0,129,88,0,

103,219,0,128,88,0,

103,218,0,127,88,1,

103,217,0,127,87,0,

103,216,0,126,86,0,

102,215,1,126,86,1,

101,214,0,125,85,1,

101,213,1,125,85,0,

100,211,1,124,84,0,

99,211,1,123,84,0,

99,210,1,122,83,1,

99,209,0,122,83,1,

98,207,0,121,83,1,

98,207,0,121,82,1,

98,206,1,121,82,1,

97,205,1,120,82,1,

96,204,1,120,82,1,

96,204,1,119,81,1,

96,203,1,119,81,1,

95,202,1,118,80,1,

94,199,0,117,79,1,

94,199,1,117,79,0,

94,199,0,116,79,0,

93,198,0,115,79,1,

93,197,1,115,79,0,

92,196,0,115,78,1,

92,195,1,114,78,1,

92,195,1,113,78,1,

91,194,1,113,77,1,

91,193,1,112,77,1,

91,192,1,112,76,1,

90,192,1,111,76,1,

89,190,0,111,76,1,

89,190,1,110,75,0,

88,189,1,110,75,1,

88,188,1,109,75,1,

88,188,1,109,75,1,

88,186,1,109,74,1,

87,185,1,108,74,1,

86,185,1,108,73,1,

86,184,1,107,73,1,

86,184,1,106,73,0,

85,182,1,106,73,1,

85,181,0,105,71,1,

84,181,1,105,71,1,

84,180,1,103,92,1,

83,179,1,103,92,0,

83,179,0,103,91,1,

83,177,1,103,90,1,

82,177,0,103,90,1,

82,176,1,103,89,1,

81,176,1,102,89,1,

81,174,0,101,88,1,

81,174,1,101,88,1,

80,173,1,101,88,1,

79,173,1,99,88,1,

79,172,1,99,87,1,

79,171,1,99,86,1,

79,171,1,99,86,1,

79,170,1,98,86,0,

79,169,1,98,85,1,

78,167,1,97,84,1,

78,167,1,97,84,1,

77,167,0,98,84,1,

77,167,1,162,83,1,

77,166,1,159,83,1,

76,164,1,159,83,1,

76,163,1,158,82,0,

76,163,0,157,81,1,

76,163,1,156,81,0,

75,162,1,156,81,1,

75,161,1,154,81,1,

74,160,0,153,80,1,

74,159,1,153,79,0,

73,159,1,152,79,0,

73,158,1,152,79,0,

73,158,1,151,78,0,

73,157,1,150,78,1,

71,156,1,149,78,1,

71,156,1,149,78,1,

71,155,0,147,77,1,

71,155,1,147,77,1,

71,153,1,146,76,1,

71,153,1,145,76,1,

70,153,0,145,76,1,

70,152,1,144,76,1,

69,152,1,143,75,0,

69,153,1,143,75,0,

83,157,1,142,74,1,

83,156,0,141,74,0,

83,155,1,141,73,0,

82,155,1,140,73,1,

82,153,0,140,73,1,

81,153,0,139,71,1,

81,152,1,139,71,0,

81,152,0,137,71,1,

79,151,0,137,71,1,

79,150,1,136,71,1,

79,149,0,135,71,1,

79,149,1,135,71,0,

79,148,1,135,70,1,

78,147,1,134,70,0,

78,147,0,134,70,0,

78,146,0,133,69,1,

77,145,0,132,69,1,

77,145,0,131,68,0,

76,144,1,131,68,0,

76,143,0,130,68,0,

76,143,0,130,67,1,

75,143,1,129,67,1,

75,142,0,128,67,1,

75,141,0,127,67,0,

74,141,0,127,67,0,

73,140,0,127,66,0,

73,140,0,126,66,0,

73,139,1,126,65,1,

71,139,0,125,65,1,

71,137,0,125,65,1,

71,137,0,124,64,0,

71,135,0,123,64,1,

71,135,0,123,77,1,

71,135,1,123,76,0,

71,135,0,122,76,1,

70,135,0,121,76,0,

70,134,0,120,76,0,

69,133,0,120,75,1,

126,133,0,120,75,0,

124,132,0,120,74,0,

123,131,1,119,73,0,

123,131,0,118,73,0,

122,130,1,117,73,0,

121,130,0,117,71,0,

121,129,0,116,71,0,

120,129,0,115,71,0,

120,128,0,115,71,1,

119,127,0,115,71,0,

118,127,0,114,70,0,

117,126,0,114,70,1,

117,126,1,113,70,0,

116,125,0,113,70,0,

115,135,0,112,70,0,

115,134,0,112,70,0,

114,133,0,111,69,0,

114,133,0,111,69,1,

113,131,1,110,68,0,

113,131,0,110,68,0,

112,131,0,109,68,0,

112,130,1,109,67,0,

111,129,0,108,67,1,

110,128,0,108,67,0,

110,127,0,107,70,0,

109,127,0,107,69,0,

109,127,0,106,69,0,

108,126,0,105,69,0,

108,125,0,105,68,0,

107,125,0,104,68,0,

107,124,0,103,67,0,

106,124,0,103,67,0,

110,123,0,103,67,0,

109,123,1,103,66,0,

109,122,0,102,66,0,

108,121,0,102,65,0,

108,121,0,101,65,0,

107,120,0,101,65,0,

106,120,0,100,65,0,

105,120,0,100,64,0,

105,119,0,99,64,0,

103,119,1,99,63,0,

105,118,0,99,63,0,

103,192,0,98,63,0,

103,189,0,98,63,0,

103,188,0,97,62,0,

103,187,0,97,62,0,

103,185,0,96,62,0,

102,185,0,96,62,0,

102,184,0,96,61,0,

101,183,0,96,61,0,

101,182,0,95,61,0,

100,181,0,98,61,0,

100,180,0,135,60,0,

99,179,0,135,60,0,

99,178,0,134,61,0,

99,177,0,134,61,0,

98,176,0,133,60,0,

98,176,0,132,60,0,

97,175,0,131,112,0,

96,174,0,131,112,0,

96,173,0,130,112,0,

96,172,0,129,111,0,

96,171,0,129,110,1,

95,170,0,128,109,0,

94,169,0,128,109,0,

94,167,0,127,109,0,

93,167,0,127,108,1,

93,167,0,126,107,0,

93,166,0,126,107,0,

92,165,0,125,106,0,

92,164,0,124,131,1,

91,163,0,124,159,0,

91,163,0,123,159,0,

90,161,0,123,158,0,

89,161,0,122,157,0,

89,159,0,121,156,0,

89,159,0,121,155,0,

88,158,0,120,154,1,

88,158,0,120,153,0,

88,157,0,119,152,0,

87,156,0,119,152,0,

87,176,0,118,151,0,

86,174,0,117,150,0,

86,173,0,116,149,0,

86,172,0,116,148,0,

85,171,0,115,147,0,

84,170,0,115,147,0,

84,169,0,118,146,0,

83,167,0,117,145,0,

83,167,0,116,144,0,

83,167,0,116,143,0,

82,166,0,115,143,0,

82,165,1,115,142,0,

82,164,0,114,141,0,

81,163,0,114,141,0,

81,162,0,113,140,0,

80,161,0,113,140,0,

112,160,0,112,139,0,

111,159,0,112,138,0,

110,229,0,111,137,0,

110,228,0,110,135,0,

109,227,0,110,135,0,

108,225,0,109,135,0,

108,224,0,109,135,0,

107,223,0,108,137,0,

106,221,0,107,136,0,

106,220,0,107,135,0,

105,219,0,107,135,0,

105,217,0,106,135,0,

103,216,0,105,134,0,

103,215,0,105,132,0,

109,214,0,104,132,0,

108,213,0,103,131,0,

107,211,0,103,131,0,

107,210,0,103,130,0,

106,209,0,102,129,0,

105,207,0,102,128,0,

105,207,0,101,128,0,

103,206,0,101,127,0,

103,204,0,100,126,0,

103,204,0,99,126,0,

105,203,0,99,125,0,

103,201,0,99,125,0,

103,207,0,98,124,0,

103,206,0,98,124,0,

102,205,0,98,123,0,

102,204,0,97,122,0,

101,203,0,97,122,0,

101,202,0,96,121,0,

100,199,0,96,120,0,

99,199,0,96,120,0,

99,199,0,95,120,0,

99,198,0,94,119,0,

98,197,0,94,119,0,

98,196,0,94,118,0,

98,195,0,93,117,0,

97,194,0,93,117,0,

96,193,0,92,116,0,

96,192,0,92,115,0,

96,192,0,92,115,0,

95,190,0,92,115,0,

94,189,0,91,114,0,

94,188,0,91,114,0,

94,188,0,90,113,0,

93,187,0,89,113,0,

93,186,0,89,112,0,

92,185,0,89,112,0,

92,184,0,89,111,0,

92,184,0,88,113,0,

91,183,0,88,113,0,

91,182,0,88,112,0,

90,181,0,88,112,0,

89,180,0,87,111,0,

89,179,0,86,110,0,

89,179,0,86,110,0,

89,177,0,86,109,0,

88,177,0,85,109,0,

88,176,0,85,108,0,

88,175,0,84,108,0,

87,174,0,84,108,0,

87,173,0,83,107,0,

86,173,0,83,107,0,

86,172,0,83,106,0,

85,171,0,83,105,0,

85,171,0,82,105,0,

84,169,0,82,103,0,

84,169,0,82,104,0,

83,167,0,82,103,0,

83,167,0,81,103,0,

83,167,0,81,103,0,

83,166,0,81,102,0,

82,165,0,80,102,0,

82,164,0,79,101,0,

82,163,0,79,101,0,

81,163,0,79,100,0,

81,162,0,79,99,0,

80,161,0,78,99,0,

80,161,0,78,99,1,

83,159,0,78,99,0,

82,159,0,78,98,0,

82,159,0,78,98,0,

82,158,0,77,97,0,

82,157,0,77,97,0,

81,156,0,77,97,0,

81,156,0,76,96,0,

80,156,0,76,96,0,

79,155,0,76,96,1,

79,154,0,75,95,0,

79,153,0,75,94,0,

79,153,0,75,94,0,

78,152,0,114,94,1,

105,152,0,113,93,0,

112,226,0,112,93,0,

111,274,0,111,92,0,

110,271,0,111,92,0,

110,270,0,110,92,0,

109,268,0,110,91,0,

108,266,0,109,91,0,

108,265,0,108,90,1,

107,263,0,108,90,0,

107,262,0,107,89,0,

106,260,0,107,89,0,

105,259,0,106,89,0,

105,257,0,105,88,0,

103,255,0,105,88,0,

103,254,0,103,88,1,

103,253,0,103,137,0,

103,251,0,103,135,0,

102,251,0,103,135,0,

101,249,0,102,134,0,

101,248,0,102,133,0,

100,246,0,101,132,0,

100,244,0,101,131,1,

99,243,0,100,131,0,

99,242,0,99,130,1,

98,241,0,99,130,0,

98,240,0,99,129,0,

97,239,0,98,128,0,

97,238,0,98,127,0,

96,236,0,98,127,0,

96,235,0,97,126,0,

96,233,0,97,125,0,

95,231,0,96,125,0,

95,231,0,96,124,0,

94,231,0,96,124,0,

94,230,0,98,124,0,

93,228,0,98,123,0,

113,227,0,97,122,0,

112,226,0,97,121,0,

111,225,0,96,121,0,

111,224,0,96,120,0,

110,223,0,96,120,0,

109,222,0,95,120,0,

109,221,0,94,118,0,

108,220,0,94,118,0,

108,219,0,93,117,0,

107,217,0,93,116,0,

107,216,0,93,116,0,

106,216,0,92,115,0,

105,214,0,92,115,0,

105,213,0,92,114,0,

103,211,0,91,114,0,

103,211,0,90,113,0,

103,210,0,90,113,0,

103,209,0,89,112,0,

102,207,0,89,112,0,

102,207,0,88,111,0,

101,206,0,88,110,0,

100,205,0,88,110,0,

132,204,1,88,110,0,

131,203,0,87,109,0,

130,203,0,87,108,0,

130,201,0,86,108,0,

129,199,0,86,107,0,

128,199,0,85,107,0,

127,198,0,85,106,0,

127,198,0,84,105,0,

126,196,0,84,105,0,

125,195,1,83,105,0,

125,195,0,83,103,0,

124,193,0,83,103,0,

123,193,1,82,103,0,

123,207,0,82,103,0,

122,207,0,81,103,0,

121,206,0,81,102,0,

121,204,0,81,101,0,

120,204,0,80,101,0,

120,203,0,79,100,0,

120,201,0,79,100,0,

119,199,0,79,99,0,

214,250,0,79,99,0,

214,247,0,78,98,0,

212,246,1,78,98,0,

211,243,0,78,97,0,

210,243,1,77,97,0,

209,242,0,77,96,0,

207,240,0,76,96,0,

206,239,0,76,96,0,

205,237,1,76,95,0,

204,236,0,76,95,0,

203,235,0,76,94,0,

202,234,0,76,94,0,

201,233,0,143,93,0,

199,231,0,142,93,0,

199,230,0,140,92,0,

198,229,0,140,92,0,

197,227,0,139,92,0,

196,227,0,138,91,0,

195,225,0,137,91,0,

194,224,0,137,90,0,

193,224,0,135,90,0,

192,222,0,135,89,1,

191,221,0,135,89,0,

190,220,0,135,89,0,

189,219,0,134,88,0,

188,217,0,133,88,0,

187,216,0,132,88,1,

185,216,1,132,87,0,

185,214,0,131,86,0,

184,213,0,131,87,1,

183,211,0,130,86,0,

182,210,1,129,85,0,

181,210,0,129,85,0,

180,209,0,127,84,0,

179,207,0,127,84,0,

179,207,0,127,83,0,

178,206,0,126,83,0,

177,205,0,125,83,0,

176,204,0,125,83,0,

175,203,0,124,82,0,

174,201,0,124,82,0,

173,201,1,123,81,0,

173,199,0,122,81,0,

172,199,0,122,80,0,

171,198,0,121,81,0,

170,197,0,121,80,0,

169,195,0,120,79,1,

168,195,0,120,79,0,

167,193,0,119,79,0,

167,195,0,119,78,0,

166,235,0,118,78,1,

165,233,0,118,78,0,

165,231,1,117,77,0,

163,231,0,116,77,0,

163,229,0,115,77,0,

162,227,0,115,76,0,

161,227,0,115,76,0,

160,225,0,114,76,0,

159,224,0,114,75,0,

159,223,0,113,75,0,

158,222,1,113,75,0,

158,221,0,112,75,0,

157,220,0,111,74,0,

156,219,0,111,73,1,

156,217,1,110,73,0,

155,216,0,110,73,0,

154,216,0,110,72,0,

153,214,1,109,71,0,

152,213,0,109,71,0,

152,211,0,108,71,0,

151,211,1,108,71,0,

151,209,0,107,71,0,

150,208,0,107,71,0,

149,207,0,106,70,1,

148,206,0,105,70,1,

147,205,1,105,70,0,

147,204,0,103,69,0,

146,203,0,103,69,0,

145,202,0,133,69,1,

145,201,0,143,68,1,

144,199,0,142,67,1,

143,199,1,141,67,1,

143,198,0,140,67,0,

142,197,1,140,67,0,

141,196,1,139,67,1,

141,195,1,138,66,1,

140,194,1,137,66,0,

139,193,1,137,66,1,

139,192,1,135,65,1,

138,192,1,135,65,0,

137,190,0,135,65,0,

137,190,0,134,64,1,

135,189,1,133,64,0,

135,188,0,132,63,1,

135,187,0,131,63,0,

134,186,0,131,63,1,

134,185,1,131,63,1,

133,184,1,130,63,1,

133,184,1,129,62,0,

132,182,0,129,62,0,

131,182,1,127,62,1,

130,180,1,127,61,0,

130,179,0,127,61,1,

129,179,1,126,61,0,

129,179,1,125,61,0,

128,177,0,125,60,1,

127,177,0,124,60,1,

127,176,1,124,60,1,

127,175,0,123,59,1,

126,174,0,122,59,0,

125,174,0,122,59,0,

125,173,0,121,59,1,

124,172,1,120,59,1,

124,171,0,120,58,1,

123,170,1,120,58,0,

123,169,0,119,57,1,

122,167,0,118,57,1,

121,167,1,118,57,0,

121,167,0,117,57,1,

121,166,0,117,56,0,

120,166,1,115,56,0,

120,165,1,115,56,0,

119,164,1,115,56,1,

118,163,0,114,56,0,

118,220,0,114,55,0,

207,217,0,113,55,0,

205,216,0,113,55,0,

204,215,0,112,55,0,

202,214,0,112,55,1,

201,212,0,111,54,0,

199,211,0,111,54,0,

199,210,1,110,54,0,

198,209,0,109,53,0,

197,207,0,109,53,0,

196,207,1,109,53,0,

195,206,0,117,52,0,

193,205,1,117,52,0,

193,204,0,115,52,0,

192,203,1,115,52,0,

191,201,0,115,52,1,

189,199,0,114,51,0,

189,199,1,114,51,0,

188,198,0,113,51,0,

187,198,0,112,50,0,

185,197,0,112,51,0,

185,196,0,115,50,0,

184,195,0,115,50,1,

183,194,0,114,50,1,

182,193,0,113,49,0,

181,192,0,113,49,0,

180,191,0,112,49,1,

179,190,0,112,53,0,

178,189,0,111,52,0,

177,188,0,110,52,1,

176,188,0,110,52,0,

176,187,0,110,51,0,

175,185,0,109,51,0,

174,184,0,109,51,0,

173,184,0,108,51,0,

172,229,1,108,51,0,

171,253,0,107,50,0,

171,251,0,107,50,0,

169,249,0,105,50,0,

169,248,0,105,49,0,

167,247,0,105,49,0,

167,246,1,104,49,0,

167,243,0,103,49,0,

166,243,0,103,48,0,

165,241,0,103,48,0,

163,240,0,103,48,0,

163,239,1,102,48,1,

163,238,0,102,48,0,

161,237,0,101,47,0,

161,236,0,100,47,0,

160,234,0,100,47,0,

159,231,0,99,47,0,

159,231,0,99,46,0,

158,230,0,99,46,1,

157,229,0,99,46,0,

156,228,0,98,46,0,

156,227,0,98,46,0,

155,225,1,97,45,1,

155,225,1,97,45,0,

153,224,0,96,45,0,

153,222,0,96,45,0,

152,222,0,96,45,0,

152,220,0,95,45,0,

151,219,0,95,45,0,

151,218,0,94,45,0,

150,217,0,94,45,0,

149,216,0,93,44,0,

148,215,0,93,44,0,

147,214,0,93,44,0,

147,213,0,92,43,0,

146,212,0,92,44,0,

153,211,1,91,43,0,

152,210,0,91,43,0,

152,209,0,91,43,0,

150,207,0,90,54,0,

150,207,0,89,54,0,

149,206,0,89,53,0,

148,204,0,89,53,0,

147,204,0,88,53,0,

147,203,0,88,53,0,

146,202,0,88,52,0,

145,201,0,87,52,1,

145,199,0,87,52,0,

144,199,1,87,51,0,

143,199,1,86,51,0,

143,198,0,86,51,0,

142,197,0,85,51,0,

142,195,0,85,51,0,

141,195,0,85,50,0,

140,194,1,84,50,0,

140,193,0,84,50,0,

139,192,0,83,49,0,

139,192,1,83,50,0,

138,190,1,83,49,0,

137,189,0,82,49,0,

135,188,0,82,48,0,

135,188,0,81,48,0,

135,187,0,81,48,0,

135,186,0,81,48,0,

134,185,0,81,48,0,

134,184,0,81,47,0,

133,184,0,80,47,1,

132,183,0,79,47,0,

131,182,0,79,46,0,

131,181,0,79,46,0,

131,180,0,79,46,0,

131,179,0,78,46,0,

130,178,0,78,46,0,

129,177,0,77,46,0,

129,177,0,77,46,0,

128,176,0,77,46,0,

127,175,0,77,46,0,

127,174,0,76,46,0,

127,174,0,76,46,1,

126,173,0,120,45,0,

126,172,0,119,45,0,

125,171,1,118,45,0,

124,171,0,117,45,0,

124,169,0,116,44,1,

123,169,0,115,44,0,

123,167,0,115,44,0,

122,167,0,114,44,0,

121,167,0,114,43,1,

121,166,1,113,43,1,

120,165,0,113,43,0,

120,164,0,112,43,0,

120,163,0,112,43,0,

119,163,0,111,42,0,

118,162,1,110,42,0,

118,161,0,110,41,0,

117,160,1,109,64,0,

116,159,1,109,64,0,

116,159,0,108,63,0,

115,158,0,108,63,0,

115,158,0,107,62,0,

114,156,0,106,62,0,

114,156,0,106,62,0,

113,155,0,105,62,0,

113,155,0,105,61,0,

112,154,0,103,61,0,

112,153,0,103,60,0,

111,153,0,103,60,0,

111,152,0,103,60,0,

110,151,0,102,60,0,

110,151,0,102,59,0,

109,150,0,101,59,0,

109,150,0,101,58,0,

108,149,1,101,58,0,

108,148,0,100,58,0,

149,147,0,99,57,0,

147,147,0,99,57,0,

147,146,0,98,57,0,

146,145,1,98,57,0,

145,145,0,97,65,0,

145,143,0,97,65,0,

143,143,0,96,65,0,

143,143,0,96,64,0,

142,142,0,96,64,0,

142,142,0,96,63,0,

141,141,0,95,63,0,

140,140,0,94,63,0,

152,140,0,95,63,0,

184,139,0,94,62,0,

183,139,0,93,62,0,

182,138,0,93,61,0,

180,137,0,93,61,0,

179,137,0,93,62,0,

179,135,0,92,61,0,

177,135,0,92,61,0,

177,166,0,91,60,0,

176,195,0,91,60,0,

174,194,0,91,59,0,

174,193,0,90,59,0,

173,192,0,89,59,0,

173,190,0,89,59,0,

171,190,0,88,58,0,

171,189,0,88,58,0,

169,188,0,88,58,0,

169,187,0,88,58,0,

167,185,0,88,57,0,

167,185,0,86,57,0,

167,184,0,86,57,0,

166,184,0,86,56,0,

165,182,0,85,56,0,

164,181,0,85,56,1,

163,180,0,85,56,0,

162,179,0,84,56,0,

162,179,0,83,56,0,

161,178,0,83,55,0,

167,177,0,83,55,0,

167,176,0,83,54,0,

166,175,0,82,54,0,

165,174,0,82,53,0,

164,174,0,82,54,0,

163,172,0,81,53,0,

162,172,0,81,53,0,

162,171,0,81,53,0,

161,170,0,80,52,0,

159,169,0,79,52,0,

159,167,0,79,51,0,

159,167,0,79,51,0,

158,167,0,79,51,0,

157,166,0,79,51,0,

156,165,0,78,51,0,

155,164,0,77,50,0,

155,164,0,78,50,0,

154,163,0,77,50,1,

153,162,0,77,50,0,

153,161,0,76,49,0,

152,161,0,76,49,0,

152,159,0,76,49,0,

151,159,0,75,49,0,

150,159,0,75,48,0,

149,158,0,75,48,0,

149,157,0,75,48,0,

147,156,0,74,48,0,

147,156,0,73,48,0,

146,155,0,73,48,0,

145,154,0,73,47,0,

145,153,0,73,47,0,

144,153,0,71,46,0,

143,152,0,71,46,0,

143,152,0,71,46,0,

142,151,0,71,46,0,

141,150,0,71,46,0,

141,149,0,71,46,0,

140,148,0,71,45,0,

140,147,0,70,45,0,

139,147,0,70,45,0,

139,147,0,73,45,0,

137,145,0,73,45,0,

137,145,0,71,44,0,

135,144,0,71,44,0,

135,167,0,71,44,0,

135,166,0,71,44,0,

135,165,0,71,44,0,

134,163,0,71,43,0,

134,163,0,70,43,0,

133,162,0,70,43,0,

132,161,0,70,42,0,

131,161,0,69,43,0,

131,159,0,69,42,0,

131,159,0,69,42,0,

130,158,1,68,41,0,

129,157,0,68,41,0,

129,156,0,68,41,0,

128,156,0,67,54,0,

127,155,0,67,54,0,

127,154,0,67,54,0,

126,153,0,66,53,0,

126,153,0,66,53,0,

125,152,0,66,52,0,

125,152,0,65,53,0,

124,151,0,65,52,0,

124,150,0,65,52,0,

123,149,0,65,51,0,

122,148,0,65,51,0,

121,147,0,64,51,0,

121,147,0,63,50,0,

121,146,0,63,50,0,

121,145,0,63,50,0,

120,145,0,63,50,0,

120,143,0,63,49,0,

119,143,0,62,49,0,

118,143,0,62,49,0,

118,142,0,62,48,0,

117,141,0,61,48,0,

117,141,0,62,48,0,

116,140,0,61,48,0,

115,140,0,61,48,0,

115,139,0,61,47,1,

115,138,0,60,47,0,

114,137,0,60,47,0,

113,137,0,60,47,0,

113,135,0,59,46,0,

112,135,0,60,46,0,

112,135,0,59,46,0,

112,135,0,59,45,0,

111,134,0,59,45,0,

111,133,0,58,45,0,

110,133,0,58,44,0,

110,132,0,57,44,1,

109,131,0,57,44,1,

109,131,0,57,44,0,

108,131,0,57,44,0,

108,130,0,57,44,0,

107,130,0,56,44,0,

107,129,0,56,44,0,

107,129,0,56,43,0,

106,127,0,56,43,0,

105,127,0,56,43,1,

105,127,0,56,42,0,

104,126,0,55,43,0,

103,126,0,55,42,0,

103,125,1,55,42,0,

103,124,0,54,41,0,

103,124,0,54,41,0,

102,124,0,54,41,0,

102,169,0,53,41,0,

102,167,0,53,41,0,

101,167,0,53,40,1,

101,167,0,53,39,0,

100,165,0,53,40,0,

99,164,0,53,39,0,

99,163,0,52,39,0,

99,163,0,52,39,0,

99,162,0,51,39,0,

98,161,0,51,39,0,

98,160,0,51,39,0,

97,159,0,51,39,0,

97,159,0,51,39,0,

97,158,0,51,39,0,

96,157,0,51,39,0,

96,157,0,51,38,0,

96,156,0,50,38,0,

95,156,0,50,38,0,

95,155,0,50,38,0,

94,153,0,50,38,0,

94,153,0,49,37,0,

94,152,0,49,37,0,

93,152,0,49,37,0,

93,151,0,49,37,0,

92,150,0,48,37,0,

92,149,0,48,37,0,

92,149,0,48,37,0,

91,148,0,58,36,0,

91,147,0,57,36,0,

90,147,0,57,36,0,

90,146,0,57,35,0,

90,145,0,57,35,0,

89,145,0,56,39,0,

89,143,0,56,39,0,

89,143,0,56,39,0,

88,143,0,56,39,0,

88,142,0,55,39,0,

88,141,0,55,39,0,

88,141,0,54,38,0,

88,140,0,55,38,0,

87,140,0,54,38,0,

86,139,0,54,38,0,

86,138,0,54,37,0,

86,138,0,53,37,0,

85,137,0,53,37,0,

85,135,0,53,37,0,

84,135,0,52,37,0,

84,135,0,52,36,0,

83,135,0,52,36,0,

83,134,0,51,36,0,

83,134,0,51,36,0,

83,133,0,51,35,0,

82,132,0,51,35,0,

82,131,0,51,35,0,

82,131,0,51,35,0,

81,130,0,50,35,0,

81,130,0,50,35,0,

81,129,0,50,35,0,

80,129,0,50,34,0,

80,128,0,49,34,0,

79,127,0,49,34,0,

79,127,0,48,34,0,

79,126,0,49,34,0,

79,126,0,48,33,0,

78,125,0,48,34,0,

78,125,0,48,33,0,

78,124,0,48,33,0,

77,124,0,48,33,0,

77,123,0,48,33,0,

77,123,0,47,32,0,

76,122,0,47,32,0,

76,122,0,47,32,0,

76,121,0,47,32,0,

76,121,0,46,31,0,

75,120,0,46,31,0,

75,120,0,46,31,1,

75,119,0,46,31,0,

74,119,0,46,31,0,

74,123,0,46,31,0,

73,180,0,45,31,0,

78,179,0,45,44,0,

78,177,0,45,44,0,

137,177,0,45,44,0,

157,176,0,45,43,0,

156,175,0,44,43,0,

155,174,0,44,43,0,

153,173,0,44,42,0,

153,172,0,44,42,0,

152,171,0,44,42,0,

152,170,0,44,42,0,

151,203,0,43,41,0,

149,212,0,43,41,1,

149,211,0,43,41,0,

148,210,0,43,41,0,

147,209,0,43,40,0,

147,207,0,42,39,0,

146,207,0,42,39,0,

145,206,0,42,39,0,

145,205,0,41,39,0,

143,204,0,41,39,0,

143,202,0,41,39,0,

142,201,0,41,39,0,

142,199,0,41,39,0,

141,199,0,41,38,0,

140,199,0,41,38,0,

140,197,0,40,38,0,

139,196,0,39,38,0,

138,195,0,39,38,0,

137,194,0,39,38,0,

137,193,0,39,37,0,

135,192,0,39,37,0,

135,192,0,39,37,0,

135,191,0,42,36,0,

134,190,0,59,36,0,

134,189,0,59,35,0,

133,188,0,58,35,0,

132,187,0,57,38,1,

131,186,0,57,38,0,

131,185,0,57,37,0,

131,184,0,57,37,0,

130,184,1,57,37,0,

129,183,0,56,37,0,

129,182,0,56,36,0,

127,181,0,56,36,0,

127,179,0,56,36,0,

127,179,0,55,36,0,

126,178,0,55,35,0,

126,177,0,55,35,0,

125,177,0,54,35,0,

125,176,0,54,35,0,

124,175,0,54,35,0,

124,174,0,54,35,0,

123,173,0,53,35,0,

122,173,0,53,35,0,

121,174,0,53,35,0,

121,173,0,52,35,1,

121,172,0,52,35,0,

120,172,0,52,35,0,

120,171,0,51,34,0,

119,169,0,51,34,0,

118,169,0,51,34,0,

118,167,0,51,37,0,

117,167,0,50,76,0,

117,167,0,50,75,0,

116,166,0,50,75,0,

115,165,0,50,75,1,

115,164,0,50,74,0,

115,163,0,49,73,0,

114,163,0,49,73,0,

113,162,0,48,71,0,

113,161,0,48,71,0,

113,161,0,48,71,0,

112,164,0,48,71,0,

117,173,0,48,71,0,

118,172,0,48,71,0,

117,171,0,48,70,0,

116,170,0,47,70,0,

115,169,0,47,69,0,

115,167,0,47,69,0,

115,167,0,46,69,1,

114,167,0,48,68,0,

113,166,0,48,68,0,

113,165,0,48,67,0,

113,163,0,48,67,0,

124,163,0,48,67,0,

123,162,0,47,66,0,

123,162,0,47,66,0,

122,161,0,47,66,0,

121,159,0,46,65,0,

120,159,0,46,65,0,

120,159,0,46,65,0,

120,158,0,46,65,0,

119,157,0,112,64,0,

118,156,0,111,63,0,

117,156,0,110,63,0,

117,155,0,109,63,0,

116,154,0,108,63,0,

115,153,0,108,63,0,

115,153,0,108,63,0,

114,152,0,107,63,0,

114,151,0,106,63,0,

113,150,0,105,63,0,

113,149,0,105,62,0,

112,149,0,103,62,0,

112,148,0,103,62,0,

111,147,0,103,61,0,

111,147,0,103,61,0,

110,146,0,102,61,0,

109,145,0,102,60,0,

109,145,0,101,60,0,

108,143,0,100,60,0,

108,143,0,100,59,0,

107,143,0,99,59,0,

107,142,0,99,59,0,

107,142,0,103,58,0,

106,227,0,108,58,0,

105,225,0,108,57,0,

105,224,0,107,57,0,

105,222,0,106,57,0,

103,221,0,105,57,0,

103,220,0,105,57,0,

103,218,0,103,56,0,

103,217,0,103,56,0,

102,216,0,103,56,0,

102,215,0,103,56,0,

101,214,0,102,55,0,

100,213,0,102,54,0,

99,211,0,101,54,0,

99,211,0,101,54,0,

99,209,0,100,54,0,

99,208,0,99,54,0,

98,207,0,99,53,0,

112,206,0,99,53,0,

111,205,0,98,53,0,

110,204,0,98,52,0,

110,203,0,97,53,0,

109,202,0,97,51,0,

108,201,0,97,51,0,

108,201,0,96,51,0,

107,199,0,96,51,0,

107,199,0,95,51,0,

106,198,0,95,51,0,

105,196,0,94,50,0,

105,195,0,94,50,0,

105,195,0,93,50,0,

103,194,0,93,50,0,

103,193,0,92,49,0,

103,192,0,92,49,0,

103,191,0,91,49,0,

102,190,0,91,49,0,

101,189,0,92,48,0,

101,188,0,92,48,0,

101,188,0,91,48,0,

100,186,0,91,48,1,

99,185,0,90,47,0,

99,185,0,90,47,0,

99,184,0,89,47,0,

98,183,0,89,47,0,

98,182,0,89,47,0,

97,182,0,88,47,0,

97,181,0,88,46,0,

97,179,0,88,46,0,

96,179,0,88,46,0,

96,178,0,86,45,0,

95,177,0,86,45,0,

95,176,0,86,45,0,

94,176,0,86,45,0,

94,175,0,85,45,0,

94,174,0,85,44,0,

93,174,0,84,44,0,

93,173,0,83,44,0,

92,172,0,83,44,0,

92,172,0,83,44,0,

92,171,0,83,43,0,

91,170,0,83,43,0,

91,169,0,82,43,0,

91,169,0,82,43,0,

90,167,0,82,43,0,

159,167,0,81,42,0,

167,166,0,81,42,0,

165,166,0,80,42,0,

165,165,0,79,41,0,

163,164,0,79,41,0,

163,163,0,79,41,0,

162,163,0,79,41,0,

161,162,0,78,41,0,

159,161,0,89,40,0,

159,159,0,89,39,0,

158,159,0,88,40,0,

158,159,0,88,39,0,

157,158,0,88,39,0,

156,157,0,88,39,0,

155,157,0,87,39,0,

155,156,0,86,39,0,

154,155,0,86,39,1,

153,155,0,85,39,0,

152,154,0,85,38,0,

152,153,0,84,38,0,

151,153,1,86,38,0,

150,152,0,86,38,0,

149,151,0,85,38,0,

148,150,0,85,37,0,

147,150,0,83,37,0,

147,149,0,83,37,0,

146,148,0,83,37,0,

145,147,0,83,36,0,

144,147,0,82,37,0,

143,147,0,82,36,0,

143,146,0,82,36,0,

143,145,0,81,35,0,

142,144,0,81,35,0,

141,143,0,81,35,0,

141,143,0,79,35,0,

146,143,0,80,35,0,

181,142,0,79,91,1,

179,141,0,79,89,0,

178,140,0,79,89,0,

177,140,0,78,88,0,

176,161,0,78,88,0,

175,161,0,78,87,0,

174,159,0,77,87,0,

173,159,0,77,86,0,

172,158,0,76,86,0,

183,157,0,76,85,0,

182,156,0,76,84,0,

180,156,0,76,84,0,

179,155,0,75,83,0,

179,154,0,75,83,0,

178,153,0,74,83,0,

177,153,0,74,82,0,

176,152,0,73,82,0,

175,151,0,73,81,0,

174,150,0,73,81,0,

173,150,0,73,81,0,

172,149,0,72,80,0,

171,147,0,71,79,0,

171,147,0,71,79,0,

169,147,0,71,79,0,

169,146,0,71,79,0,

167,145,0,71,78,0,

167,144,0,71,78,0,

166,143,0,70,77,0,

166,143,0,70,77,0,

165,143,0,70,77,0,

164,142,0,69,76,0,

163,141,0,69,76,0,

163,140,0,68,76,1,

162,140,0,68,75,0,

161,139,0,67,75,0,

160,139,0,67,74,0,

159,137,0,67,74,0,

158,137,0,67,74,0,

158,137,0,67,73,0,

157,135,0,67,73,0,

156,135,0,66,73,0,

156,135,0,66,71,0,

155,134,0,65,71,0,

154,134,0,65,71,0,

153,133,0,65,71,0,

153,132,0,64,71,0,

152,131,0,64,71,0,

152,131,0,63,70,0,

151,131,0,63,70,0,

150,130,0,63,70,0,

149,130,0,63,69,0,

148,129,0,63,69,0,

147,128,0,62,68,0,

147,127,0,62,68,0,

147,127,0,63,67,0,

146,127,0,63,67,0,

145,126,0,62,67,0,

144,126,0,63,67,0,

143,125,0,62,66,0,

143,125,0,62,66,0,

143,124,0,62,66,0,

142,141,0,61,66,0,

141,233,0,61,65,0,

141,231,0,61,65,0,

140,230,0,60,64,0,

139,229,0,60,64,0,

139,227,0,60,63,0,

138,226,0,59,63,0,

137,225,0,60,63,0,

137,224,0,59,63,0,

135,223,0,59,63,0,

135,221,0,58,62,0,

135,221,0,58,62,0,

135,219,0,58,62,0,

134,218,0,57,61,0,

133,217,0,57,61,0,

132,216,0,57,61,0,

131,215,0,57,61,0,

131,214,0,56,60,0,

131,213,0,56,60,0,

130,211,0,56,60,0,

129,211,0,56,59,0,

129,209,0,56,59,0,

128,208,0,56,59,0,

127,207,0,55,59,0,

127,207,0,55,58,0,

127,206,0,55,58,0,

126,205,0,54,58,0,

126,203,0,54,57,0,

125,202,0,56,57,0,

124,201,0,55,57,0,

124,199,0,55,56,0,

123,199,0,55,56,0,

123,199,0,54,56,0,

122,198,0,54,56,0,

121,196,0,54,56,0,

121,195,0,53,56,0,

120,195,0,53,56,0,

120,194,0,53,55,0,

120,193,0,53,55,0,

119,192,0,52,55,0,

119,191,1,52,55,0,

118,190,0,51,54,0,

117,189,0,52,53,0,

117,189,0,51,53,0,

116,188,0,51,62,0,

115,187,0,51,103,0,

115,185,0,51,103,0,

115,185,0,50,102,0,

114,184,0,51,101,0,

114,184,0,50,101,0,

113,182,0,103,100,0,

112,181,0,117,99,0,

112,180,0,115,99,0,

112,179,0,115,98,0,

111,178,0,114,97,0,

111,178,0,113,97,0,

110,177,0,112,96,0,

110,176,0,112,96,0,

109,175,0,112,96,0,

109,174,0,111,95,0,

108,174,0,110,95,0,

108,173,0,110,94,0,

107,172,0,109,94,0,

107,171,0,109,93,0,

106,170,0,108,92,0,

106,169,0,108,92,0,

105,167,0,107,91,0,

103,167,0,106,91,0,

103,167,0,106,91,0,

103,166,0,105,90,0,

103,165,0,105,89,0,

103,165,0,103,89,0,

102,163,0,103,89,0,

102,163,0,103,88,0,

101,163,0,103,88,0,

101,161,0,102,87,0,

100,161,0,102,88,0,

100,159,0,101,87,0,

99,159,0,101,86,0,

99,159,0,100,85,0,

99,158,0,99,85,0,

98,157,0,99,85,0,

97,157,0,99,85,0,

97,156,0,99,83,0,

97,155,0,98,84,0,

96,155,0,97,83,0,

96,154,0,97,83,0,

96,153,0,97,83,1,

96,153,0,96,82,0,

95,152,0,96,82,0,

94,151,0,96,81,0,

94,151,0,95,81,0,

94,150,0,94,81,0,

93,149,0,94,80,0,

93,149,0,94,79,0,

92,148,0,93,79,0,

92,147,0,93,79,0,

92,147,0,93,79,0,

91,176,0,92,79,0,

91,176,0,92,78,0,

91,174,0,91,78,0,

133,174,0,91,77,0,

159,173,0,90,77,0,

158,172,0,90,77,0,

157,171,0,89,76,0,

156,171,0,89,76,0,

155,169,0,89,75,0,

155,167,0,89,75,0,

153,167,0,88,75,0,

153,167,0,88,74,0,

152,166,0,88,74,0,

152,165,0,87,73,0,

150,165,0,86,73,0,

150,163,0,86,73,0,

149,163,0,86,73,0,

186,162,0,85,71,0,

