
24,11,0,56,53,0,

24,11,0,56,53,0,

24,11,0,56,52,0,

24,11,0,56,52,0,

24,10,0,59,52,0,

24,11,0,62,51,0,

24,10,0,62,51,0,

24,10,0,61,51,0,

24,10,0,61,51,0,

24,10,0,61,51,0,

24,10,0,60,50,0,

24,10,0,60,50,0,

23,10,0,60,50,0,

23,10,0,60,50,0,

23,10,0,60,49,0,

23,9,0,59,49,0,

22,9,0,59,49,0,

22,10,0,58,49,1,

22,10,0,58,49,0,

22,9,0,89,48,0,

22,9,0,101,48,0,

22,9,0,101,48,0,

22,9,0,100,48,0,

22,9,0,99,47,0,

21,9,0,99,47,0,

21,9,0,98,47,0,

22,9,0,98,46,0,

21,9,0,98,47,0,

21,9,0,97,46,0,

21,9,0,97,46,0,

21,9,0,96,46,0,

21,9,0,96,46,0,

21,9,0,95,46,0,

20,9,0,95,45,0,

20,8,0,95,45,0,

21,9,0,94,45,0,

21,9,0,94,44,0,

21,7,0,93,44,0,

21,8,0,93,44,0,

21,7,0,93,44,0,

20,7,0,92,44,0,

20,7,0,92,44,0,

20,7,0,91,44,0,

20,7,0,91,44,0,

20,7,0,91,43,0,

19,7,0,90,43,0,

20,7,0,89,43,0,

19,7,0,89,42,0,

19,7,0,89,42,0,

19,7,0,89,42,0,

19,7,0,88,42,0,

19,7,0,88,41,0,

19,7,0,88,41,0,

19,7,0,87,41,0,

19,7,0,87,41,0,

18,7,0,87,41,0,

18,7,0,86,40,0,

19,7,0,86,39,0,

19,7,0,85,39,0,

18,7,0,85,39,0,

18,7,0,85,39,0,

18,7,0,84,39,0,

18,7,0,83,39,0,

18,7,0,83,39,0,

18,7,0,83,39,0,

18,7,0,83,41,0,

17,7,0,83,39,0,

18,7,0,82,39,0,

17,6,0,82,39,0,

17,7,0,82,39,0,

17,7,0,81,39,0,

17,6,0,81,39,0,

17,6,0,80,39,0,

17,6,0,80,39,0,

17,7,0,79,39,0,

17,6,0,79,39,0,

17,6,0,79,38,0,

20,6,0,79,38,0,

20,6,0,79,38,0,

19,6,0,78,38,0,

19,7,0,78,38,0,

19,6,0,78,38,0,

19,6,0,77,38,0,

19,6,0,77,37,0,

19,6,0,77,37,0,

19,6,0,76,37,0,

19,6,0,76,37,0,

19,6,0,76,36,0,

19,6,0,76,36,0,

19,6,0,75,36,0,

19,6,0,75,36,0,

19,6,0,75,36,0,

19,6,0,75,35,0,

19,6,0,74,35,0,

19,6,0,74,35,0,

19,6,0,73,35,0,

19,5,0,73,35,0,

19,5,0,73,35,0,

19,5,0,71,35,0,

19,6,0,73,34,0,

18,5,0,71,34,0,

19,5,0,71,34,0,

19,5,0,71,34,0,

20,5,0,71,34,0,

21,5,0,71,33,0,

20,5,0,71,33,0,

20,5,0,70,33,0,

20,5,0,70,33,0,

20,5,0,70,33,0,

20,5,0,69,33,0,

20,5,0,69,33,0,

20,5,0,69,33,0,

19,5,0,69,32,0,

19,5,0,68,32,0,

19,5,1,68,32,0,

19,5,0,67,31,0,

19,5,0,67,31,0,

19,5,0,67,31,0,

19,5,0,67,31,0,

19,5,0,67,31,0,

19,5,0,66,31,0,

19,5,0,66,31,0,

18,5,0,66,31,0,

19,5,0,66,31,0,

19,5,0,65,31,0,

18,5,0,65,31,0,

18,5,0,65,31,0,

18,5,0,65,30,0,

18,5,0,64,30,0,

18,5,0,64,30,0,

18,5,0,63,30,0,

18,5,0,63,30,0,

18,4,0,63,30,0,

17,5,0,63,30,0,

17,6,0,63,29,0,

17,5,0,63,29,0,

17,6,0,62,29,0,

17,5,0,62,29,0,

17,6,0,62,29,0,

17,5,0,61,29,0,

17,5,0,61,29,0,

17,5,0,61,28,0,

16,5,0,61,28,0,

16,5,0,60,28,0,

16,5,0,60,28,0,

16,5,0,60,28,0,

17,5,0,60,28,0,

16,5,0,60,28,0,

17,5,0,59,28,0,

16,5,0,59,27,0,

16,5,0,59,27,0,

16,5,0,59,27,0,

16,5,0,59,27,0,

15,5,0,58,27,0,

15,5,0,58,27,0,

16,5,0,58,27,0,

15,5,0,57,26,0,

15,5,0,57,26,0,

15,5,0,64,26,0,

15,5,0,63,26,0,

15,5,0,63,26,0,

15,4,0,63,26,0,

16,5,0,63,26,0,

15,4,0,63,25,0,

15,5,0,62,26,0,

15,4,0,62,25,0,

15,5,0,62,25,0,

15,4,0,61,25,0,

15,4,0,61,25,0,

15,4,0,61,25,0,

15,4,0,61,25,0,

15,4,0,60,24,0,

15,4,0,61,24,0,

20,5,0,61,24,0,

20,5,0,60,24,0,

20,5,0,60,24,0,

20,5,0,60,24,0,

20,5,0,60,24,0,

20,5,0,59,24,0,

19,5,0,59,24,0,

19,5,0,59,24,0,

19,4,0,59,24,0,

19,5,0,58,23,0,

19,5,0,58,23,0,

19,5,0,57,23,0,

19,4,0,57,24,0,

21,5,0,57,23,0,

24,5,0,57,23,0,

23,5,0,57,23,0,

24,5,0,56,23,0,

23,5,0,56,22,0,

23,5,0,56,22,0,

24,5,0,56,22,0,

23,5,0,56,22,0,

22,5,0,56,22,0,

23,5,0,56,22,0,

22,5,0,55,22,0,

22,5,0,55,22,0,

22,5,0,55,21,0,

22,5,0,54,22,0,

22,4,0,54,21,0,

22,4,0,54,21,0,

21,4,0,54,21,0,

21,4,0,53,21,0,

21,5,0,53,21,0,

21,5,0,53,21,0,

21,4,0,53,21,0,

21,4,0,52,21,0,

21,4,0,52,21,0,

21,4,0,52,21,0,

21,4,0,51,21,0,

20,4,0,53,20,0,

20,4,0,54,20,0,

20,4,0,53,20,0,

20,4,0,53,20,0,

20,4,0,53,19,0,

20,4,0,52,19,0,

20,4,0,52,19,0,

19,4,0,52,25,0,

20,4,0,52,25,0,

19,4,0,51,25,0,

19,4,0,51,24,0,

19,3,0,51,24,0,

19,4,0,51,24,0,

19,4,0,51,24,0,

19,4,0,50,24,0,

19,4,0,50,24,0,

19,4,0,50,24,0,

19,3,0,50,24,0,

21,3,0,50,37,0,

20,4,0,50,43,0,

20,4,0,49,43,0,

20,4,0,49,42,0,

19,4,0,49,41,0,

20,4,0,49,42,0,

20,4,0,48,41,0,

19,4,0,48,41,0,

19,4,0,48,41,0,

19,4,0,48,41,0,

19,4,0,48,41,0,

19,4,0,48,40,0,

19,4,0,47,39,0,

19,3,0,47,40,0,

19,3,0,47,39,0,

19,4,0,47,39,0,

19,4,0,47,39,0,

19,4,0,46,39,0,

19,3,0,46,39,0,

19,3,0,46,39,0,

19,4,0,46,39,0,

19,3,0,45,38,0,

18,3,0,46,38,0,

18,3,0,45,38,0,

18,3,0,45,38,0,

18,3,0,45,38,0,

18,3,0,45,38,0,

18,4,0,45,37,0,

18,3,0,44,37,0,

17,3,0,44,37,0,

18,3,0,44,37,0,

17,3,0,44,37,0,

17,3,0,44,36,0,

17,3,0,43,36,0,

17,3,0,44,36,0,

17,3,0,43,36,0,

17,4,0,43,35,0,

17,3,0,43,36,0,

16,3,0,42,35,0,

16,3,0,42,35,0,

17,9,0,42,35,0,

16,43,0,42,35,0,

19,43,0,41,34,0,

19,43,0,42,34,0,

19,42,0,41,34,0,

19,41,0,41,34,0,

19,41,0,41,34,0,

19,41,0,41,34,0,

19,41,0,41,33,0,

19,41,0,39,33,0,

18,40,0,39,33,0,

18,39,0,39,33,0,

19,39,0,39,33,0,

27,45,0,57,33,0,

32,51,0,57,32,0,

31,51,0,56,32,0,

31,51,0,56,32,0,

31,51,0,56,31,0,

31,50,0,56,31,0,

31,50,0,55,31,0,

31,50,0,54,31,0,

31,49,0,54,31,0,

30,49,0,54,31,0,

30,49,0,54,31,0,

30,48,0,53,31,0,

30,48,0,53,31,0,

30,48,0,53,31,0,

30,48,0,53,31,0,

30,47,0,52,30,0,

29,47,0,52,30,0,

29,47,0,52,30,0,

29,47,0,52,30,0,

29,46,0,51,30,0,

29,46,0,51,29,0,

28,46,0,51,30,0,

29,46,0,51,29,0,

28,45,0,51,29,0,

28,45,0,50,29,0,

28,45,0,50,29,0,

28,45,0,50,29,0,

28,45,0,49,28,0,

28,44,0,49,28,0,

28,44,0,49,28,0,

27,44,0,49,28,0,

27,44,0,48,28,0,

27,44,0,48,28,0,

27,43,0,48,28,0,

27,43,0,48,27,0,

27,43,0,48,28,0,

26,43,0,47,28,0,

26,42,0,48,27,0,

27,42,0,77,27,0,

26,42,0,76,27,0,

26,42,0,76,27,0,

25,41,0,76,27,0,

25,41,0,75,26,0,

25,41,0,75,26,0,

25,41,0,74,26,0,

25,41,0,73,25,0,

25,40,0,73,26,0,

25,40,0,73,25,0,

24,39,0,72,26,0,

25,39,0,71,25,0,

25,39,0,71,25,0,

24,39,0,71,25,0,

24,39,0,71,25,0,

24,39,0,71,25,0,

24,39,0,71,24,0,

24,39,0,71,24,0,

24,39,0,70,24,0,

24,39,0,70,24,0,

24,39,0,69,24,0,

24,39,0,69,24,0,

23,39,0,69,24,0,

23,38,0,69,24,0,

23,38,0,68,24,0,

23,38,0,68,24,0,

23,38,0,67,24,0,

23,38,0,67,24,0,

26,37,0,67,23,0,

26,37,0,66,24,0,

26,37,0,66,23,0,

26,37,0,66,23,0,

26,36,0,66,23,0,

25,36,0,65,23,0,

25,36,0,65,22,0,

25,35,0,65,22,0,

25,35,0,65,22,0,

25,35,0,64,22,0,

25,35,0,63,22,0,

25,35,0,67,22,0,

24,35,0,79,22,0,

24,35,0,79,21,0,

24,35,0,79,21,0,

24,35,0,78,21,0,

24,34,0,78,21,0,

24,34,0,78,21,0,

24,34,0,77,21,0,

24,34,0,77,21,0,

24,34,0,77,21,0,

24,33,0,76,20,0,

24,33,0,76,21,0,

23,33,0,75,20,0,

23,33,0,75,20,0,

23,33,0,125,21,0,

25,33,0,125,21,0,

25,33,0,124,21,0,

25,32,0,123,21,0,

25,32,0,123,21,0,

24,32,0,121,21,0,

24,31,0,121,21,0,

24,32,0,121,21,0,

24,31,0,120,21,0,

24,31,0,120,21,0,

24,31,0,119,20,0,

24,31,0,118,19,0,

24,31,0,118,20,0,

24,31,0,117,19,0,

24,31,0,117,19,0,

24,31,0,115,56,0,

24,30,0,115,56,0,

24,30,0,115,55,0,

22,30,0,114,55,0,

23,30,0,114,54,0,

23,30,0,113,54,0,

23,30,0,113,54,0,

22,29,0,112,54,0,

22,29,0,112,53,0,

25,29,0,111,53,0,

25,29,0,111,52,0,

28,29,0,110,52,0,

30,28,0,110,52,0,

30,29,0,109,51,0,

29,29,0,109,51,0,

29,29,0,108,51,0,

29,29,0,108,51,1,

29,29,0,107,51,0,

29,28,0,107,50,0,

28,28,0,107,50,0,

28,28,0,106,50,0,

28,28,0,105,49,0,

71,34,0,105,49,0,

81,35,0,103,49,0,

80,35,0,103,63,0,

79,35,0,103,96,0,

79,35,0,103,94,0,

79,35,0,103,94,0,

78,34,0,102,93,0,

77,34,0,102,92,0,

78,34,0,101,92,0,

77,34,0,101,91,0,

77,33,0,101,91,0,

76,33,0,100,91,0,

76,33,0,99,90,0,

76,33,0,99,90,0,

75,33,0,99,89,0,

75,33,0,98,89,0,

74,33,0,98,88,0,

74,33,0,97,88,0,

73,32,0,97,88,0,

73,31,0,97,87,0,

73,32,0,96,87,0,

71,31,0,96,86,0,

71,31,0,96,86,0,

71,31,0,95,86,0,

71,31,0,94,85,0,

71,31,0,94,84,0,

71,31,0,94,84,1,

86,31,0,93,84,0,

85,31,0,93,83,0,

85,31,0,93,83,0,

84,31,0,92,83,0,

83,31,0,92,82,0,

83,31,0,92,82,0,

83,30,0,91,82,0,

83,30,0,91,81,0,

82,30,0,90,81,0,

82,30,0,90,80,0,

81,30,0,89,80,0,

81,30,0,89,79,0,

80,30,0,89,79,0,

80,29,0,88,79,0,

79,29,0,88,79,0,

79,29,0,88,79,0,

79,29,0,88,78,0,

79,28,0,87,77,0,

78,29,0,87,77,0,

78,29,0,86,77,0,

78,29,0,86,76,0,

77,29,0,85,76,0,

77,28,0,86,76,0,

77,28,0,85,76,0,

76,28,0,84,75,0,

76,28,0,103,75,0,

76,28,0,103,74,0,

75,27,0,103,74,0,

75,27,0,102,74,1,

74,27,0,101,73,0,

74,27,0,101,73,0,

73,27,0,101,73,0,

73,27,0,99,73,0,

73,27,0,99,71,1,

73,27,0,99,71,0,

72,26,0,99,71,0,

71,123,0,98,71,0,

101,131,1,98,71,0,

113,130,0,97,71,0,

112,129,0,97,96,0,

111,127,0,96,96,0,

110,127,0,96,95,1,

110,127,0,96,94,1,

109,126,1,95,94,0,

108,125,0,94,93,0,

108,125,0,94,93,0,

107,124,0,93,92,0,

107,123,0,93,92,0,

106,122,0,93,92,0,

106,121,0,92,91,0,

105,121,0,92,91,0,

105,121,0,91,90,0,

103,120,0,91,89,0,

103,120,0,90,89,0,

103,119,0,89,89,1,

103,118,0,89,89,0,

103,118,0,89,88,0,

103,117,0,89,87,0,

102,116,0,88,87,0,

102,115,0,88,86,0,

102,115,0,88,86,0,

100,115,0,88,86,0,

100,114,0,87,85,0,

99,114,0,86,85,1,

99,113,0,86,84,0,

99,112,0,85,83,0,

98,112,0,85,83,0,

98,111,0,85,83,0,

97,111,0,85,83,0,

97,110,0,83,82,0,

97,110,0,83,82,0,

96,110,0,84,82,0,

96,109,0,84,81,0,

95,108,0,84,81,0,

95,108,0,84,80,0,

96,112,0,83,101,0,

103,112,0,83,101,0,

102,112,0,83,107,0,

101,111,0,82,107,0,

100,110,0,81,106,0,

99,110,0,81,105,0,

99,109,0,81,103,0,

99,108,0,81,103,1,

99,108,0,79,103,0,

99,107,0,79,103,0,

98,107,0,79,102,0,

97,106,0,79,102,0,

97,106,0,79,101,0,

96,105,1,78,101,1,

96,105,0,78,100,0,

96,103,0,78,99,0,

95,103,0,77,99,0,

94,103,0,77,99,0,

94,103,0,77,98,1,

94,130,0,77,98,1,

167,150,0,88,97,0,

165,148,0,99,97,0,

164,147,0,99,96,0,

163,146,0,99,96,0,

162,145,0,98,96,0,

161,144,1,98,95,0,

160,143,0,97,94,0,

159,143,0,97,94,0,

159,142,0,96,101,0,

157,141,0,96,106,0,

157,141,0,95,105,0,

156,140,0,94,105,0,

155,139,0,94,103,0,

154,139,0,94,103,0,

153,138,1,93,108,0,

153,137,0,92,112,0,

152,135,0,92,111,0,

152,135,0,92,111,1,

151,135,0,91,110,0,

150,134,0,91,110,0,

149,134,0,90,109,0,

148,133,0,89,108,0,

147,132,1,89,108,0,

147,131,0,89,107,0,

146,131,0,89,107,0,

145,130,0,89,106,0,

144,129,0,88,105,1,

143,129,0,88,138,1,

143,127,0,87,135,0,

142,127,0,86,135,0,

142,127,0,86,135,0,

141,126,1,86,134,0,

140,125,1,85,133,0,

139,125,0,85,132,0,

139,124,0,85,131,0,

138,124,0,85,131,0,

137,123,0,85,130,0,

137,123,0,83,129,0,

135,121,1,83,129,0,

135,121,1,83,127,0,

135,120,0,82,127,0,

134,120,0,82,127,0,

133,119,0,82,126,1,

133,119,0,81,125,0,

132,118,0,81,125,0,

131,118,0,80,124,0,

131,117,0,79,124,0,

130,116,0,79,123,0,

129,116,0,79,122,0,

163,115,0,79,121,0,

162,115,0,78,121,0,

161,114,0,78,120,0,

159,116,0,78,120,0,

159,115,0,78,119,0,

158,115,0,77,118,0,

157,114,0,77,118,0,

157,113,1,76,117,0,

156,113,0,76,117,1,

155,112,0,75,116,0,

154,112,0,76,115,0,

153,111,0,75,115,0,

152,110,0,75,115,0,

195,159,0,74,114,1,

244,193,0,73,114,0,

242,192,0,73,113,0,

241,190,0,73,112,0,

239,189,0,73,112,0,

238,188,0,71,112,0,

236,187,0,71,111,0,

235,185,1,71,110,0,

233,185,0,71,110,0,

231,184,0,71,109,0,

231,183,0,71,109,0,

230,182,0,71,108,0,

228,180,1,70,108,1,

227,179,0,70,107,0,

226,179,0,69,107,0,

225,177,0,69,106,0,

224,177,0,69,105,0,

276,248,0,68,105,0,

313,303,0,68,105,0,

311,301,0,68,103,1,

309,299,0,67,103,0,

307,297,0,67,103,1,

305,295,0,66,103,0,

304,293,0,66,102,0,

301,291,0,66,102,0,

300,290,0,66,101,0,

298,287,1,66,101,0,

295,287,0,65,100,0,

294,285,0,65,99,0,

293,284,0,66,99,0,

291,281,0,71,98,0,

290,280,0,70,98,0,

288,279,0,70,101,0,

287,277,1,69,100,0,

285,275,0,69,99,0,

284,274,1,68,99,1,

283,273,0,68,99,0,

281,271,0,67,98,1,

280,270,0,67,98,0,

278,269,0,67,97,0,

277,267,0,67,97,0,

275,266,0,79,96,0,

274,263,0,79,96,0,

272,263,0,78,96,0,

271,262,0,78,95,0,

270,261,1,77,95,0,

269,259,0,77,94,0,

268,258,0,77,94,1,

266,257,0,76,94,0,

265,255,0,76,93,0,

263,254,0,76,93,0,

262,253,0,75,92,1,

261,252,0,75,92,0,

259,251,0,74,91,1,

259,249,1,74,91,0,

312,248,0,73,90,1,

309,248,1,73,127,1,

307,246,1,73,156,1,

305,244,0,71,154,1,

304,243,1,71,153,1,

302,242,1,71,152,1,

300,241,1,71,152,1,

298,240,1,71,151,1,

295,238,1,70,150,1,

295,238,1,70,149,1,

293,236,1,70,148,1,

291,235,1,70,147,1,

290,234,1,69,147,1,

288,231,1,69,181,1,

287,231,1,68,179,1,

285,230,1,68,177,1,

284,230,1,68,176,1,

282,228,1,67,176,1,

280,227,1,67,175,1,

279,226,2,67,174,1,

277,225,1,66,172,1,

276,224,1,66,172,2,

275,223,1,66,171,2,

273,222,1,65,170,2,

271,221,2,65,169,2,

270,220,2,65,167,2,

269,219,2,65,167,2,

268,217,2,63,166,2,

266,216,1,63,166,2,

265,216,2,63,165,1,

263,214,2,63,163,2,

262,213,2,63,163,2,

260,212,2,62,162,2,

259,211,2,63,161,2,

258,210,2,62,160,2,

257,209,2,62,159,2,

255,208,2,62,159,2,

254,207,2,61,158,2,

253,206,2,61,157,2,

252,205,2,61,156,2,

250,204,2,60,156,2,

248,203,2,60,155,2,

248,202,2,119,154,2,

246,201,2,117,153,2,

245,199,2,116,153,2,

243,199,2,115,152,2,

243,238,2,115,151,2,

241,237,2,114,150,2,

240,236,2,113,149,2,

239,234,2,113,149,2,

238,233,2,112,148,2,

236,231,2,112,147,2,

235,230,2,111,146,2,

234,229,2,110,145,2,

233,227,2,110,145,2,

231,226,2,109,143,2,

231,225,2,108,143,2,

229,224,2,108,142,2,

228,222,2,107,142,2,

227,221,2,107,141,2,

226,220,2,106,140,2,

225,219,2,105,140,2,

224,217,2,105,139,2,

223,216,2,105,138,2,

221,216,2,103,137,2,

220,214,2,103,137,2,

220,213,2,103,135,2,

218,211,2,102,135,2,

217,253,2,102,135,2,

216,251,1,101,134,2,

215,249,2,101,134,2,

214,248,2,100,133,2,

213,246,2,99,132,2,

211,245,2,99,131,2,

211,243,2,99,131,2,

210,242,2,98,130,2,

209,240,1,98,129,2,

207,239,2,97,129,2,

207,238,2,97,128,2,

206,237,2,96,127,2,

205,236,2,96,127,2,

204,234,2,95,126,1,

204,233,1,94,126,2,

202,231,2,95,125,2,

201,231,2,94,125,2,

199,229,2,94,124,2,

199,228,1,102,124,2,

199,227,2,151,123,2,

235,226,1,149,123,2,

231,224,2,148,122,2,

231,223,2,147,121,2,

230,222,2,147,121,1,

248,225,2,145,120,2,

278,234,2,145,120,2,

276,233,1,144,119,2,

275,231,1,143,119,2,

273,230,2,142,118,2,

271,229,1,142,117,2,

270,227,2,141,117,2,

268,226,2,140,115,2,

267,225,2,140,115,2,

265,224,2,139,115,2,

263,222,2,138,114,2,

262,221,2,137,114,2,

261,220,1,137,113,1,

259,219,2,135,113,2,

257,217,1,135,112,1,

255,216,1,135,112,2,

254,216,1,134,111,2,

253,215,1,133,110,1,

252,213,1,132,110,2,

251,211,2,131,109,1,

249,211,1,131,109,2,

248,209,1,130,108,2,

246,208,1,130,108,1,

245,207,1,129,107,1,

243,207,1,128,107,2,

242,205,2,132,107,1,

241,204,1,131,106,1,

240,203,1,131,105,1,

239,202,1,131,105,1,

237,201,1,129,103,1,

236,199,1,129,103,1,

235,199,1,128,103,1,

233,198,1,127,103,1,

231,197,1,127,103,1,

231,196,1,126,102,1,

230,195,1,126,101,1,

228,194,1,125,101,1,

227,193,1,124,100,1,

226,192,1,124,99,1,

225,191,1,123,99,1,

224,190,1,122,99,1,

223,207,1,121,98,1,

222,263,1,121,99,1,

221,261,1,121,98,1,

220,259,1,120,97,1,

219,257,1,120,97,1,

217,255,1,119,97,1,

216,255,1,118,96,1,

216,253,1,118,96,1,

215,252,1,117,95,1,

213,250,1,117,95,1,

212,248,1,116,96,2,

211,248,1,115,96,1,

210,246,1,115,95,1,

209,245,1,115,94,2,

207,243,1,114,94,1,

207,242,1,113,93,1,

206,241,1,113,93,1,

205,239,1,112,93,1,

204,238,1,112,92,1,

203,237,1,111,92,1,

202,236,1,111,92,1,

201,235,1,110,91,1,

199,233,1,110,90,1,

199,231,1,109,90,1,

199,231,1,109,90,1,

198,230,1,108,89,1,

197,229,1,108,89,1,

195,227,1,107,88,1,

195,226,1,107,88,1,

194,225,1,106,88,1,

193,224,1,106,88,1,

192,223,1,105,87,1,

192,221,1,105,87,1,

190,221,1,105,86,1,

190,220,1,103,86,1,

189,219,1,103,85,1,

188,217,1,103,85,1,

187,216,1,103,84,1,

186,215,1,102,84,1,

185,214,1,165,115,1,

184,213,1,190,115,1,

184,211,1,188,114,1,

183,211,1,187,113,1,

182,209,1,186,113,1,

181,209,1,185,112,1,

180,207,1,184,112,1,

271,295,1,183,111,1,

277,291,1,182,110,1,

275,290,1,180,110,1,

273,287,1,179,109,0,

271,286,1,179,109,1,

270,284,1,178,108,1,

268,283,1,177,107,1,

267,281,1,176,107,1,

265,280,1,175,106,1,

263,278,1,174,105,1,

262,275,1,173,105,1,

260,275,1,172,103,1,

259,273,0,171,103,0,

257,271,1,170,103,1,

255,270,1,169,103,1,

254,268,0,167,102,1,

253,267,1,167,101,1,

252,265,1,167,101,1,

250,263,1,166,100,1,

249,262,1,165,99,1,

248,261,1,164,99,1,

247,259,1,163,98,1,

245,258,1,163,98,1,

243,256,1,162,98,1,

242,255,1,161,97,1,

241,254,0,160,97,1,

240,252,1,159,96,1,

239,252,1,159,96,1,

238,250,1,158,96,1,

236,249,1,157,95,1,

235,248,1,157,119,1,

233,247,1,156,141,1,

231,245,1,155,140,1,

231,243,1,154,139,1,

230,242,1,153,138,1,

229,241,1,153,137,0,

227,240,0,152,137,0,

226,239,1,152,135,1,

226,237,1,150,135,1,

224,236,1,150,134,1,

223,235,1,149,133,1,

222,233,1,148,133,1,

221,231,0,147,131,0,

220,231,1,147,131,1,

219,230,0,146,131,0,

217,229,0,145,130,1,

216,227,1,144,129,1,

215,226,0,144,128,1,

214,225,1,143,128,1,

213,224,0,142,127,1,

211,223,1,142,127,1,

211,222,1,141,126,1,

210,220,1,140,125,1,

243,220,1,140,125,0,

241,219,0,139,124,1,

239,217,1,139,135,0,

238,216,0,138,134,1,

236,215,1,137,133,1,

235,214,1,136,132,1,

233,213,1,135,131,1,

231,211,1,135,131,1,

231,211,1,135,130,1,

280,209,1,134,129,1,

277,208,0,133,129,1,

275,207,0,133,127,1,

273,207,0,132,127,1,

271,205,1,131,126,0,

270,205,1,131,126,1,

269,203,1,130,125,1,

268,203,1,160,135,1,

265,201,1,159,134,0,

263,199,0,158,133,0,

263,199,1,158,133,0,

261,199,0,156,131,0,

259,222,1,156,131,0,

258,247,1,155,131,1,

255,244,1,154,129,0,

255,243,1,153,129,1,

254,242,0,152,128,1,

252,240,1,152,127,1,

251,239,1,151,127,1,

249,237,1,150,126,1,

248,236,1,149,125,0,

247,235,0,148,125,0,

248,268,0,147,124,1,

247,291,0,147,123,0,

245,289,0,146,123,0,

244,287,1,145,122,1,

243,286,1,145,121,0,

241,284,0,143,121,0,

240,283,1,143,120,0,

239,281,0,142,120,1,

237,279,0,141,119,0,

236,277,1,141,118,1,

235,275,0,140,118,0,

233,274,1,140,117,0,

233,272,1,139,117,0,

231,271,0,138,115,0,

230,270,1,137,115,0,

229,268,1,135,115,1,

227,266,0,135,114,0,

227,265,1,135,113,0,

225,263,1,135,113,1,

224,262,0,134,112,1,

223,261,1,133,112,1,

222,259,0,133,111,0,

221,258,0,132,110,1,

220,257,0,131,110,0,

219,255,1,131,109,0,

217,257,0,130,109,1,

216,255,1,129,108,0,

215,254,0,129,108,1,

214,252,0,127,107,0,

213,251,1,127,107,1,

211,249,0,127,106,0,

211,248,0,126,106,1,

209,248,1,126,105,0,

209,246,0,125,103,1,

207,244,0,124,103,0,

207,243,0,124,103,0,

206,242,0,123,103,1,

205,241,1,123,103,0,

204,239,0,122,102,0,

203,238,0,121,102,0,

202,236,1,121,101,0,

201,236,0,120,100,0,

199,235,0,120,99,0,

199,233,0,120,99,1,

198,231,0,119,99,0,

197,231,1,118,98,0,

196,230,0,118,98,1,

195,228,1,117,97,0,

195,227,0,117,97,0,

194,226,0,116,96,0,

193,225,0,115,96,0,

192,224,0,115,96,0,

191,223,0,115,95,0,

190,222,0,114,96,1,

189,221,0,113,96,0,

188,220,1,113,96,0,

216,219,0,112,95,1,

235,217,1,112,94,1,

233,216,1,111,94,1,

231,216,0,111,93,1,

230,215,1,110,93,0,

229,214,0,110,93,0,

227,213,0,110,92,0,

227,211,0,109,92,1,

225,210,1,109,92,0,

224,209,0,108,91,0,

223,207,0,108,90,0,

222,207,0,107,90,0,

221,206,0,107,90,0,

220,205,0,106,89,1,

218,204,0,105,89,1,

217,203,0,105,88,0,

216,202,0,105,88,0,

215,201,0,103,88,0,

214,199,1,103,87,1,

213,199,0,103,87,1,

211,199,0,103,86,0,

210,197,0,102,86,1,

209,197,0,102,86,0,

207,196,0,102,84,0,

207,203,1,101,84,0,

206,201,0,101,84,0,

205,199,0,99,83,0,

204,199,0,99,83,0,

203,198,0,99,83,1,

202,198,0,99,83,0,

201,196,1,99,82,0,

199,195,0,98,82,0,

199,194,0,98,81,1,

198,194,1,97,81,0,

198,193,0,97,80,1,

196,192,0,96,82,0,

195,191,0,96,82,0,

195,190,0,96,81,0,

193,189,0,95,81,0,

193,188,0,95,81,0,

192,188,0,94,80,0,

191,187,0,94,79,0,

190,185,1,94,79,1,

189,185,0,94,79,0,

188,184,0,93,78,0,

187,184,0,92,78,0,

187,183,0,92,78,0,

186,182,1,91,78,0,

185,181,0,91,77,0,

184,180,0,91,77,0,

184,179,0,90,76,0,

182,178,0,90,76,0,

182,178,0,92,76,0,

181,177,0,91,76,0,

180,176,0,91,75,1,

179,176,0,90,75,0,

218,175,0,89,74,0,

227,174,0,89,74,0,

226,173,0,89,74,0,

225,172,0,88,73,0,

224,172,0,88,73,0,

222,171,0,88,73,0,

221,170,0,88,73,0,

220,169,0,88,71,0,

219,169,0,87,71,0,

218,167,0,86,71,0,

217,167,0,86,71,0,

216,167,0,86,79,0,

215,166,0,85,88,1,

214,165,0,85,88,0,

212,164,1,84,87,0,

211,164,0,83,86,0,

210,163,0,83,86,0,

209,170,0,83,86,0,

208,257,0,83,85,0,

207,255,0,82,84,0,

206,253,0,82,84,0,

205,252,0,82,83,0,

204,250,1,81,83,0,

204,249,0,81,83,0,

203,248,0,81,82,0,

201,246,0,80,82,0,

200,244,0,80,81,0,

199,243,0,79,81,0,

199,242,0,79,80,0,

198,241,0,79,80,0,

197,240,0,79,79,0,

195,238,0,78,79,0,

195,301,0,78,79,0,

194,299,0,78,79,0,

193,297,0,77,113,0,

192,295,0,77,112,0,

263,293,0,77,112,0,

261,291,1,77,111,0,

259,290,0,76,110,0,

257,287,0,76,110,0,

255,287,0,75,109,0,

255,285,0,76,108,0,

253,283,0,76,107,0,

252,281,0,75,107,0,

250,280,1,75,106,0,

249,279,0,75,106,0,

248,277,1,74,105,0,

246,275,1,74,105,0,

245,274,0,73,103,0,

243,272,0,73,103,0,

242,271,0,73,103,0,

241,269,0,71,103,0,

240,268,0,71,102,0,

238,267,0,71,102,0,

237,265,0,71,101,0,

236,263,0,71,100,0,

235,263,0,71,100,0,

233,262,0,71,100,0,

231,260,0,70,99,0,

231,259,0,70,99,0,

230,257,1,70,98,0,

229,255,0,69,98,0,

227,255,0,69,97,0,

227,253,0,69,97,0,

226,269,0,69,96,0,

224,276,0,68,96,0,

224,274,0,68,96,0,

222,273,0,68,95,0,

221,271,0,67,95,0,

220,269,0,67,94,0,

219,268,0,67,94,0,

218,267,1,66,93,0,

217,265,0,66,93,0,

216,263,0,66,92,0,

215,263,0,66,92,0,

214,261,0,65,92,0,

213,259,0,67,91,0,

211,258,0,91,90,0,

211,274,0,90,90,0,

210,347,0,90,89,0,

209,344,0,89,89,0,

207,341,0,89,89,1,

207,339,0,88,88,0,

206,338,0,88,88,0,

205,335,0,88,88,0,

204,334,1,88,87,0,

203,332,0,87,86,0,

203,329,0,86,86,0,

201,327,0,86,86,1,

199,326,1,85,85,0,

199,325,0,85,85,0,

199,323,0,84,85,0,

198,321,0,84,84,0,

197,319,0,83,84,0,

196,318,0,83,83,0,

195,316,1,83,83,0,

194,314,0,82,83,0,

193,313,0,82,82,0,

192,311,0,81,82,0,

192,310,0,81,82,0,

191,307,0,81,81,1,

190,306,0,80,81,0,

189,305,0,79,81,0,

188,303,0,79,80,0,

187,302,0,79,79,0,

186,300,0,79,79,0,

185,299,1,78,79,0,

185,297,0,78,79,0,

184,295,0,77,78,0,

183,294,0,77,78,0,

182,292,0,77,78,0,

182,291,0,77,77,0,

181,289,1,77,77,0,

179,287,0,77,77,0,

179,287,0,76,76,0,

178,285,0,76,76,0,

177,284,0,76,76,0,

177,282,0,75,75,0,

176,281,0,75,75,0,

176,280,0,75,75,0,

174,278,0,74,74,1,

174,277,0,74,73,0,

173,275,0,73,77,0,

172,275,0,76,77,0,

172,273,0,76,77,0,

171,271,0,75,76,0,

170,270,1,75,76,0,

169,269,0,74,76,0,

258,268,0,74,76,0,

307,266,0,73,75,0,

304,265,0,73,75,0,

302,263,0,73,74,0,

300,263,0,71,74,0,

298,262,0,71,73,0,

297,260,0,71,72,0,

295,259,0,71,73,1,

293,257,0,71,71,0,

291,255,0,71,71,0,

290,255,0,71,71,0,

289,254,0,70,71,0,

287,253,0,70,71,1,

286,252,0,70,71,0,

284,251,0,69,70,0,

283,249,0,69,70,0,

281,248,1,68,69,0,

280,247,0,68,69,0,

278,246,0,67,69,0,

277,245,0,67,68,0,

275,243,0,67,67,0,

274,242,0,67,67,0,

273,241,0,66,67,0,

271,240,0,66,67,0,

270,239,0,66,67,0,

268,238,0,66,68,0,

267,251,0,65,67,0,

265,249,0,65,67,0,

263,248,0,65,67,0,

263,247,0,64,66,0,

262,245,0,63,66,0,

260,244,0,63,66,0,

259,242,0,63,65,0,

258,241,0,63,65,0,

256,240,0,63,65,0,

255,239,0,63,65,0,

254,238,0,62,64,0,

253,236,0,62,63,0,

252,236,0,62,63,0,

251,235,0,62,63,0,

249,233,0,61,63,0,

248,231,0,61,63,0,

247,231,0,63,63,1,

246,230,0,62,62,0,

244,229,0,62,62,0,

243,228,1,62,62,0,

242,227,0,62,62,0,

241,226,0,61,61,0,

240,225,0,61,61,0,

239,224,0,61,60,0,

238,223,0,60,60,0,

236,222,0,60,61,0,

235,221,0,60,60,0,

235,220,0,60,60,0,

233,219,0,59,60,0,

231,218,0,59,59,0,

231,217,0,59,59,0,

230,216,1,58,66,0,

229,215,0,59,96,0,

227,214,0,58,95,0,

227,213,0,58,95,0,

226,212,0,57,94,0,

225,211,0,57,94,0,

224,210,0,57,93,0,

223,210,0,120,93,0,

222,208,0,134,92,0,

221,207,1,132,92,0,

219,206,0,132,91,0,

218,206,0,131,91,0,

217,272,0,130,90,0,

216,270,0,129,100,0,

216,268,0,128,100,0,

214,267,0,127,99,0,

213,265,0,127,99,0,

212,263,0,126,98,0,

211,262,0,126,97,0,

210,261,0,125,97,0,

209,259,0,124,97,0,

207,258,0,124,96,0,

207,255,0,123,96,0,

206,255,0,123,95,0,

205,254,0,122,94,1,

204,252,0,121,94,0,

204,251,0,120,94,0,

202,249,0,120,93,1,

201,248,0,120,92,0,

199,247,0,119,92,0,

199,246,0,118,91,0,

199,244,0,118,91,0,

198,243,0,117,91,0,

197,241,0,116,93,0,

196,241,0,116,105,0,

195,239,0,115,103,0,

194,238,0,115,103,0,

193,237,0,114,103,0,

192,235,0,114,102,0,

192,234,0,113,102,0,

190,231,0,112,101,0,

189,231,1,112,100,0,

188,231,0,111,99,0,

187,229,0,111,99,0,

187,228,0,110,99,0,

185,227,0,110,98,1,

185,225,1,109,98,0,

184,224,0,109,97,0,

184,223,0,108,97,0,

182,222,0,108,96,0,

182,221,0,107,96,0,

180,220,0,107,95,0,

180,219,0,106,95,0,

179,217,0,105,94,0,

178,217,0,105,94,0,

177,216,0,105,93,1,

177,215,0,103,93,0,

176,213,0,103,92,0,

175,212,1,103,92,0,

174,211,0,103,91,0,

174,210,0,102,91,0,

173,209,0,102,90,1,

172,207,0,101,90,0,

171,207,0,101,89,0,

171,206,0,100,89,0,

169,205,0,99,88,0,

169,204,0,99,88,0,

167,203,1,99,88,0,

167,244,0,98,87,0,

167,249,0,98,87,0,

249,248,0,97,87,0,

248,246,0,97,86,1,

246,244,1,97,85,0,

244,243,0,96,85,0,

243,242,0,96,84,0,

241,241,0,96,84,0,

240,240,0,98,84,0,

239,238,0,97,83,0,

238,237,0,97,83,0,

237,236,0,96,82,0,

235,235,0,96,82,0,

234,233,0,96,82,0,

231,231,0,95,81,0,

231,231,0,95,81,0,

230,230,0,94,80,0,

229,229,0,94,80,0,

228,227,0,94,79,0,

227,226,0,93,79,0,

225,225,0,93,79,0,

225,224,0,92,79,0,

224,223,0,92,78,0,

223,222,0,91,78,0,

221,221,0,91,78,0,

220,220,0,90,77,0,

219,219,0,90,77,0,

218,217,0,89,77,0,

217,216,0,89,76,0,

216,216,0,89,76,0,

215,215,0,88,75,0,

214,213,0,88,75,0,

213,213,0,88,75,0,

211,211,0,87,74,0,

211,210,0,87,74,0,

210,209,0,86,73,0,

209,208,0,86,73,0,

207,207,0,86,73,0,

207,206,0,85,73,0,

206,205,0,85,71,0,

205,204,1,85,71,0,

204,204,0,84,71,0,

203,203,0,83,71,0,

203,201,0,83,71,0,

201,199,0,83,71,0,

199,199,0,83,70,0,

199,199,0,82,70,0,

199,198,0,82,107,0,

197,197,0,81,153,0,

196,221,0,81,152,0,

195,219,0,81,150,0,

195,217,0,80,150,0,

193,217,0,79,149,0,

193,216,0,79,147,0,

192,214,0,79,146,0,

191,213,1,79,146,0,

190,211,0,78,145,0,

219,211,0,78,144,0,

251,209,0,77,143,0,

249,207,0,77,143,0,

252,207,0,77,142,0,

250,206,0,77,141,0,

248,205,0,76,141,0,

248,204,0,76,140,0,

246,203,0,75,139,0,

244,202,0,76,138,0,

243,201,0,75,138,0,

242,199,0,74,137,0,

240,199,0,74,135,0,

239,198,0,73,135,0,

238,197,0,73,135,0,

237,196,0,73,134,0,

235,195,0,71,134,0,

234,194,1,71,133,0,

233,193,0,71,132,0,

231,192,0,71,131,0,

230,192,0,71,131,0,

229,191,0,71,130,0,

228,190,0,71,129,0,

227,189,0,70,129,0,

226,188,0,70,128,0,

224,187,0,70,127,0,

224,186,0,70,127,0,

222,185,0,69,126,0,

221,185,0,69,126,0,

220,184,0,68,125,0,

219,183,0,68,124,0,

217,182,0,67,124,0,

216,181,0,67,123,0,

216,181,0,67,123,0,

215,179,0,67,122,0,

213,179,0,66,121,0,

212,178,0,66,121,0,

228,177,0,66,120,0,

227,177,0,65,120,0,

225,176,0,65,119,0,

224,175,0,65,119,0,

223,174,0,64,118,0,

222,173,0,64,117,0,

221,173,0,63,117,0,

220,172,0,63,116,0,

218,171,0,63,115,0,

217,171,0,63,115,1,

216,169,0,63,115,0,

215,169,0,62,114,0,

214,167,0,62,113,1,

257,203,1,62,113,0,

273,335,0,62,112,0,

271,332,0,61,112,0,

269,327,0,61,111,0,

268,326,0,61,110,0,

265,324,0,68,110,0,

263,322,0,73,109,0,

263,319,0,73,109,0,

261,318,0,71,108,0,

259,316,0,71,108,0,

259,315,0,71,108,0,

257,358,0,71,107,0,

255,355,0,71,106,0,

254,352,0,71,105,0,

253,350,0,70,105,0,

252,348,0,69,105,0,

250,345,0,69,103,0,

249,344,0,69,103,0,

248,342,0,68,103,0,

246,340,1,68,103,0,

245,338,0,67,103,0,

243,335,0,67,102,0,

242,334,0,67,102,0,

241,332,0,66,101,0,

240,331,0,66,101,0,

238,327,0,66,99,0,

237,327,0,66,99,0,

236,325,0,65,99,0,

235,323,0,65,99,0,

233,321,0,65,98,0,

233,319,0,64,98,0,

231,318,0,63,97,0,

231,316,0,63,96,1,

229,315,0,63,96,0,

228,313,0,63,96,0,

227,312,0,63,96,0,

226,309,0,62,95,1,

225,308,0,62,95,0,

224,307,0,62,94,0,

223,305,0,77,94,0,

222,304,0,86,93,0,

221,301,0,86,93,0,

220,300,0,85,92,0,

219,299,0,85,92,0,

217,297,0,84,92,1,

216,295,0,83,91,0,

216,294,0,83,91,0,

215,293,0,82,91,0,

214,291,0,82,89,0,

212,293,0,82,89,0,

211,291,0,81,89,0,

211,290,0,81,88,0,

209,287,1,80,88,0,

209,287,0,80,88,0,

207,285,0,79,88,0,

207,284,0,79,88,0,

206,283,0,79,87,0,

214,281,0,78,86,0,

212,280,0,78,86,0,

211,279,0,78,86,0,

210,277,0,77,85,0,

209,275,0,77,85,0,

207,275,0,77,84,0,

207,273,0,99,84,0,

206,271,0,98,83,0,

205,271,1,97,83,0,

204,269,0,96,83,0,

203,268,0,96,83,0,

202,267,0,96,82,0,

201,265,0,95,82,0,

199,263,0,94,81,0,

199,263,0,94,81,0,

198,262,0,93,80,0,

197,261,0,93,81,0,

196,259,0,93,79,0,

195,258,0,92,79,0,

194,257,0,92,79,0,

193,255,0,92,79,0,

193,254,0,91,79,0,

192,253,0,91,78,0,

191,252,0,90,78,0,

190,251,0,89,78,0,

190,249,0,89,77,0,

189,249,0,89,77,0,

188,248,0,88,76,0,

187,247,0,88,76,0,

186,245,0,88,76,0,

185,244,0,87,76,0,

184,243,0,87,75,0,

184,242,0,86,75,0,

183,240,0,86,74,0,

182,240,0,86,74,0,

181,239,0,85,74,0,

180,238,0,84,73,0,

179,236,0,83,73,0,

179,235,0,83,73,0,

178,234,0,83,71,0,

177,233,0,83,71,0,

176,231,0,82,71,0,

176,231,0,82,71,0,

175,230,0,82,71,0,

174,229,0,81,71,0,

174,228,0,81,78,0,

173,227,0,80,82,0,

172,226,0,79,82,0,

171,225,0,79,81,0,

170,224,0,79,81,0,

169,223,0,79,80,0,

169,222,0,79,80,0,

167,221,0,78,79,0,

167,220,0,78,79,0,

167,219,0,78,79,0,

166,218,0,77,78,0,

166,217,0,77,78,0,

164,216,0,76,77,0,

164,215,0,76,77,0,

163,214,0,76,77,0,

162,213,0,75,76,0,

162,212,0,75,76,0,

161,211,0,75,76,0,

160,210,0,74,75,0,

159,209,0,74,75,0,

159,208,0,73,74,0,

158,207,0,73,74,0,

158,207,0,72,74,0,

157,206,1,71,73,0,

181,205,0,71,73,0,

179,205,0,71,71,0,

178,204,0,71,71,0,

177,203,0,71,71,1,

176,202,0,71,71,0,

176,201,0,71,71,0,

175,199,0,71,71,0,

174,199,0,122,71,0,

173,198,0,121,70,0,

172,198,0,120,70,0,

171,197,0,120,69,0,

170,196,0,119,69,0,

184,195,0,118,69,0,

203,194,0,118,68,0,

201,193,0,117,67,0,

199,192,0,116,67,0,

199,192,0,115,67,0,

198,191,0,115,67,0,

197,190,0,115,67,0,

196,189,0,114,66,0,

195,188,0,113,66,0,

194,187,0,113,66,0,

193,186,0,112,90,0,

285,185,0,112,89,0,

282,185,0,111,89,0,

280,184,0,111,88,0,

278,184,0,110,88,0,

277,182,0,109,87,0,

275,181,0,109,86,0,

273,180,0,108,86,0,

271,179,0,108,86,0,

270,179,0,107,85,0,

269,178,0,107,85,0,

267,177,0,106,84,0,

265,177,0,105,83,0,

263,176,0,105,83,0,

263,175,0,103,83,0,

262,174,0,103,83,0,

260,173,0,103,82,0,

259,173,0,103,81,0,

257,172,0,103,81,0,

255,171,0,103,81,0,

254,170,0,102,80,0,

253,169,0,102,79,0,

252,169,0,101,79,0,

250,167,0,101,79,0,

249,167,0,99,79,0,

248,166,0,99,78,0,

246,166,0,99,78,0,

246,165,0,99,77,0,

244,183,0,98,77,0,

243,182,0,98,77,0,

242,181,0,97,76,0,

240,179,0,97,76,0,

240,179,1,96,76,0,

238,178,0,96,75,0,

237,177,0,96,75,0,

236,176,0,96,74,0,

235,175,0,94,74,0,

234,174,0,94,73,0,

233,174,0,94,73,0,

231,173,0,93,73,0,

230,172,0,93,71,0,

229,171,0,94,71,0,

228,170,0,94,71,0,

227,169,0,93,71,0,

226,167,0,93,71,0,

225,167,0,93,71,0,

224,167,0,92,71,0,

248,166,0,92,70,0,

306,165,0,91,70,0,

304,164,0,91,70,0,

302,163,0,90,69,0,

300,163,0,90,69,0,

298,162,0,89,68,0,

297,162,0,89,68,0,

295,161,0,88,67,0,

294,160,0,88,67,0,

291,159,1,88,67,0,

290,159,0,88,67,0,

288,158,0,87,66,0,

287,158,0,86,66,0,

286,157,0,86,66,0,

284,156,0,86,66,0,

283,156,0,85,65,0,

281,155,0,85,65,0,

280,159,0,85,64,1,

278,262,0,84,64,0,

276,273,0,84,63,0,

275,271,0,83,63,0,

274,270,0,83,63,0,

272,268,0,83,63,0,

271,267,0,82,63,0,

270,265,0,82,63,1,

268,263,0,82,62,0,

267,262,0,81,62,0,

265,261,0,81,61,0,

263,259,0,80,61,0,

263,258,0,79,61,0,

262,257,0,79,61,0,

261,255,0,79,60,0,

259,254,0,79,60,0,

258,252,0,79,60,0,

257,251,0,78,90,0,

255,250,0,78,89,0,

254,248,0,78,88,0,

253,247,0,77,88,0,

252,246,0,77,87,0,

251,245,0,76,87,0,

249,243,0,76,86,0,

248,242,0,76,86,0,

247,241,0,75,85,0,

246,240,0,75,85,0,

244,239,0,75,85,1,

243,237,0,75,84,0,

242,236,0,74,83,0,

241,235,0,73,83,0,

240,234,0,73,83,0,

238,233,0,73,82,0,

238,231,0,73,82,0,

237,231,0,71,81,0,

235,230,0,71,81,0,

234,228,0,71,81,0,

233,227,0,71,80,0,

231,227,0,106,83,0,

231,225,0,105,83,0,

230,224,0,103,83,0,

229,223,0,103,82,0,

227,222,0,103,82,0,

227,220,0,102,81,0,

225,220,0,102,81,0,

224,219,0,101,80,0,

223,217,0,101,79,0,

222,216,0,101,79,0,

221,216,0,99,79,0,

220,214,0,99,79,0,

219,213,0,99,78,0,

218,211,0,98,78,0,

217,211,0,98,77,0,

216,210,0,97,78,0,

216,209,0,97,77,0,

214,207,0,96,76,0,

213,207,0,96,76,0,

212,206,0,96,76,0,

211,206,0,95,75,0,

211,204,0,94,75,0,

209,204,0,94,75,0,

208,203,0,94,74,0,

207,201,0,93,73,0,

206,201,0,92,73,0,

206,199,0,92,73,0,

205,199,0,92,73,0,

204,198,0,91,71,0,

203,197,0,91,71,0,

202,196,0,91,71,0,

201,195,0,90,71,0,

199,194,0,89,71,0,

199,194,0,89,70,0,

199,193,0,89,70,0,

198,192,0,88,70,0,

197,191,0,88,69,0,

195,190,0,88,69,0,

195,189,0,88,69,0,

194,188,1,86,69,0,

193,187,0,87,68,0,

193,187,0,86,68,0,

192,185,0,85,67,0,

191,185,0,85,67,0,

190,184,0,84,67,0,

189,184,0,84,66,0,

188,183,0,83,66,0,

188,182,0,83,66,0,

187,181,0,83,65,0,

185,180,0,82,65,0,

185,179,0,82,65,0,

184,179,0,82,64,0,

184,177,0,82,64,0,

183,177,0,81,63,0,

182,176,0,81,63,0,

181,176,0,80,63,0,

180,174,0,79,63,0,

179,174,0,85,62,0,

179,173,0,84,62,0,

178,172,0,84,62,0,

177,181,0,84,62,0,

176,199,0,83,61,0,

176,199,0,83,61,0,

175,198,0,82,61,0,

174,196,0,82,60,0,

173,195,0,82,60,0,

172,194,0,81,60,0,

172,193,0,81,59,0,

171,192,0,81,59,0,

170,191,0,80,59,0,

169,190,0,79,59,0,

169,220,0,79,58,0,

167,219,0,79,58,0,

167,217,0,79,58,0,

167,217,0,78,58,0,

166,216,0,78,57,0,

165,214,0,77,57,1,

165,213,0,77,57,0,

164,211,0,77,56,0,

163,211,0,76,56,0,

163,210,0,76,56,0,

162,209,0,76,56,0,

161,207,0,75,56,1,

161,207,0,75,56,0,

159,206,0,75,55,0,

170,205,0,74,55,0,

169,204,0,73,54,0,

218,203,0,73,54,0,

224,201,0,73,54,1,

223,199,0,73,54,0,

222,199,0,73,54,0,

220,199,0,71,53,0,

219,197,0,71,53,0,

218,196,0,71,53,0,

217,195,0,71,53,0,

216,195,0,71,52,0,

215,194,0,70,52,0,

214,192,0,70,51,0,

212,192,0,70,51,0,

211,191,0,70,51,0,

211,190,0,69,51,0,

209,189,0,69,51,0,

207,188,0,69,51,0,

207,188,0,68,50,0,

206,186,0,68,50,0,

205,185,0,67,50,0,

204,185,0,67,50,0,

203,184,0,67,49,0,

202,183,0,67,49,0,

201,182,0,67,49,0,

199,181,0,66,49,0,

199,180,0,66,48,0,

198,179,0,65,48,0,

197,179,0,65,48,0,

196,178,1,65,48,0,

195,177,0,65,48,0,

194,176,0,64,47,0,

193,175,0,63,47,0,

193,174,0,63,47,0,

192,173,0,63,47,0,

191,173,0,63,47,0,

190,172,0,63,46,0,

189,178,0,63,46,0,

188,240,0,62,46,0,

187,238,0,62,46,0,

186,237,0,62,46,0,

185,236,0,61,45,0,

184,234,0,61,45,0,

184,231,0,61,45,0,

183,231,0,60,45,0,

182,231,0,60,45,0,

181,229,0,60,44,0,

180,227,0,60,44,0,

179,227,0,60,44,0,

179,226,0,59,44,0,

178,224,0,59,44,0,

177,223,0,59,43,0,

176,222,0,59,43,0,

175,221,0,73,43,0,

174,220,0,83,43,0,

174,219,0,82,42,0,

173,218,0,81,43,0,

172,217,0,81,42,0,

171,216,0,80,42,0,

170,215,0,80,42,0,

169,214,0,79,42,0,

