
65,102,15,31,19,15,
65,103,14,31,19,15,
65,101,15,31,19,15,
64,112,14,31,19,15,
63,117,15,30,19,15,
63,116,15,31,19,14,
63,115,15,30,19,15,
63,115,15,30,19,14,
63,114,14,30,19,14,
65,114,15,31,19,15,
79,114,15,30,20,14,
79,113,15,30,19,15,
78,112,15,30,19,14,
78,112,15,30,19,15,
77,112,14,30,19,15,
77,111,15,30,19,14,
76,110,15,29,18,15,
76,110,14,29,19,14,
76,109,15,29,19,15,
75,109,15,29,19,14,
80,109,15,29,19,15,
91,108,14,29,19,15,
89,108,15,29,19,15,
89,107,14,29,19,15,
88,107,14,29,19,15,
88,107,14,29,19,14,
87,109,14,28,19,15,
88,108,15,28,19,15,
87,107,14,28,19,15,
86,107,14,29,19,14,
86,106,14,28,18,15,
86,105,15,28,18,15,
85,105,15,28,19,14,
84,103,15,28,18,14,
84,103,15,27,19,15,
84,103,15,28,19,15,
83,105,15,28,18,15,
83,107,15,28,19,15,
83,106,14,28,18,15,
82,105,15,28,17,15,
82,105,15,27,18,15,
81,104,14,28,18,15,
81,103,15,27,18,14,
83,103,15,27,18,15,
85,103,15,27,18,15,
84,103,15,26,18,15,
84,102,15,27,18,15,
84,101,15,27,18,14,
83,103,14,27,18,15,
83,103,15,27,18,15,
83,102,14,27,18,14,
82,102,15,26,18,15,
81,102,15,26,18,15,
82,101,16,27,19,15,
86,100,15,31,18,14,
87,100,15,31,18,15,
86,99,15,30,18,15,
86,99,14,30,18,15,
85,99,15,30,18,15,
85,102,15,30,21,15,
84,101,15,30,20,15,
83,100,15,30,20,15,
83,100,15,30,21,15,
83,100,14,30,20,15,
83,99,14,30,21,15,
83,99,15,31,20,15,
87,99,15,31,20,15,
87,98,15,31,20,14,
87,98,14,31,20,15,
85,97,15,30,20,14,
85,97,15,30,22,15,
85,97,15,30,24,14,
84,96,15,30,24,15,
83,96,15,30,23,15,
83,96,15,30,23,15,
83,95,15,30,22,15,
82,95,15,30,22,15,
84,95,15,30,22,15,
84,94,15,31,22,15,
84,93,15,32,22,14,
83,93,15,31,22,14,
83,92,14,31,22,15,
83,93,15,31,23,14,
83,99,14,31,22,15,
82,98,14,31,22,15,
82,97,15,31,22,15,
82,97,15,31,22,14,
81,96,15,31,22,15,
81,96,15,31,22,15,
81,96,14,32,22,15,
80,96,15,32,22,15,
80,96,14,31,22,15,
79,95,15,31,22,15,
79,95,15,31,21,15,
79,110,15,31,21,15,
79,109,15,30,21,15,
78,109,15,31,21,15,
77,108,15,31,21,15,
78,108,14,30,20,14,
77,108,15,30,21,15,
77,107,15,31,21,15,
77,107,14,30,21,15,
77,106,15,30,21,14,
76,105,15,30,21,15,
75,105,14,30,21,15,
75,107,15,30,20,15,
76,110,15,29,21,15,
75,109,14,30,20,14,
74,108,14,29,19,14,
74,108,15,29,21,14,
74,108,15,30,20,15,
74,107,15,31,21,16,
120,108,15,34,20,15,
120,105,15,34,19,15,
119,105,15,34,20,14,
118,105,15,34,20,15,
117,108,15,34,20,14,
116,109,15,33,19,15,
116,110,14,33,20,15,
115,108,15,33,19,15,
115,109,15,33,20,15,
114,108,15,33,20,15,
113,108,15,33,19,15,
113,107,15,33,19,15,
112,106,15,32,19,15,
112,106,15,31,19,15,
111,105,15,31,20,15,
112,109,15,32,19,14,
110,109,14,31,20,14,
110,108,15,31,20,15,
109,108,15,31,19,15,
108,107,14,31,19,14,
108,106,15,31,19,15,
108,106,15,31,19,15,
107,105,15,31,19,15,
107,103,15,31,20,15,
106,104,15,31,20,14,
106,103,15,31,20,15,
105,123,15,31,19,14,
105,122,15,30,19,15,
103,121,14,30,19,15,
103,121,15,30,19,15,
103,120,15,30,19,15,
103,119,15,30,19,15,
102,119,15,30,19,15,
102,118,15,30,19,15,
101,118,15,30,19,14,
100,117,15,30,20,14,
100,117,15,29,22,15,
99,116,15,30,20,15,
99,116,15,29,20,15,
99,116,15,29,21,15,
98,115,15,29,21,14,
98,115,15,28,21,15,
98,114,15,29,20,14,
118,113,15,29,19,15,
117,113,14,28,21,15,
116,112,15,28,19,15,
115,112,15,28,20,15,
115,124,15,28,21,15,
114,123,15,28,19,15,
114,122,15,28,19,15,
113,122,15,28,20,15,
112,121,15,28,20,15,
112,121,14,27,20,15,
112,121,15,28,19,15,
111,119,15,28,19,14,
110,119,14,27,19,15,
110,119,14,28,19,14,
109,118,15,28,19,15,
109,121,15,27,19,15,
108,120,15,27,19,14,
108,120,15,27,19,15,
107,120,14,28,19,15,
107,119,15,26,19,14,
106,118,15,26,19,15,
105,117,15,26,19,15,
105,117,15,27,19,14,
105,116,14,26,19,15,
103,116,15,27,19,15,
103,115,15,26,19,15,
103,115,15,27,19,15,
103,115,15,26,19,14,
102,114,14,25,19,15,
102,113,14,26,19,15,
101,113,14,26,18,15,
101,113,15,26,19,15,
101,112,15,26,19,15,
99,112,15,25,19,15,
99,110,15,26,19,15,
99,110,15,25,19,15,
99,113,15,25,19,15,
98,118,14,26,19,15,
98,117,15,25,19,14,
97,116,15,25,18,14,
97,115,15,25,19,15,
96,115,15,25,18,14,
96,114,15,25,19,14,
96,115,15,24,19,14,
95,113,14,24,19,15,
95,113,14,24,19,15,
94,113,14,24,19,15,
94,112,14,25,19,15,
94,113,15,25,18,15,
94,112,14,24,19,15,
93,111,15,24,19,15,
92,111,14,24,18,15,
92,110,14,25,18,14,
92,110,14,24,19,15,
91,110,15,24,18,15,
91,109,15,24,18,15,
90,108,15,24,18,14,
90,108,15,24,19,15,
90,108,15,24,18,14,
90,107,14,24,19,15,
88,107,15,24,18,15,
88,106,15,24,18,15,
88,106,14,23,18,15,
88,105,14,24,19,15,
87,103,15,23,18,15,
88,104,14,24,18,15,
87,103,15,24,17,15,
86,103,15,24,18,15,
86,103,15,23,17,15,
85,103,15,23,18,15,
85,115,15,24,18,15,
85,115,15,24,17,14,
85,115,15,23,18,14,
84,114,15,23,18,15,
83,114,15,23,18,14,
83,113,14,22,18,15,
83,113,15,23,18,15,
83,112,15,24,17,15,
82,112,15,25,18,15,
82,111,15,25,17,14,
81,110,14,25,18,14,
82,112,15,25,18,15,
80,111,15,25,18,15,
80,112,15,25,18,14,
80,110,15,25,18,15,
79,110,15,25,18,15,
79,109,15,25,18,14,
79,109,15,24,18,15,
83,108,15,25,18,14,
84,108,14,25,18,15,
84,107,15,25,17,15,
83,106,15,25,17,15,
83,107,15,25,18,14,
83,105,15,24,18,15,
82,105,14,25,18,15,
82,103,14,24,17,15,
81,103,15,24,17,15,
81,103,15,24,17,15,
80,103,15,24,17,15,
81,103,15,26,18,15,
79,103,14,26,17,15,
80,102,15,26,18,14,
80,102,14,25,17,15,
79,101,15,25,18,15,
79,102,15,26,17,14,
78,101,15,26,17,15,
78,100,14,25,17,15,
78,100,15,25,17,15,
77,100,15,25,17,14,
77,99,15,25,17,14,
77,99,15,25,17,15,
77,99,15,25,17,14,
76,98,15,25,17,15,
76,98,15,25,17,15,
75,97,15,25,17,15,
75,98,15,25,17,14,
75,98,15,25,17,15,
75,97,15,25,17,14,
74,97,15,24,16,15,
74,97,14,25,17,15,
73,96,14,24,17,14,
74,96,15,26,17,15,
135,96,15,28,17,15,
135,95,15,28,16,14,
134,94,15,28,16,15,
133,94,14,28,17,15,
133,94,15,28,16,15,
132,94,15,28,17,15,
131,93,14,27,17,15,
131,92,15,27,17,14,
130,93,14,28,17,14,
129,92,14,27,16,15,
128,92,15,27,16,16,
128,92,15,27,16,14,
127,90,15,27,16,14,
127,90,14,26,17,14,
126,90,15,26,16,15,
126,90,15,27,17,15,
125,94,15,27,16,15,
124,94,15,27,17,15,
124,93,15,26,17,15,
123,92,15,26,17,15,
123,92,15,26,16,14,
122,92,15,26,17,15,
122,91,15,26,16,15,
121,92,15,26,17,15,
120,90,15,25,16,15,
120,90,15,25,17,15,
119,89,15,26,17,14,
119,93,14,26,17,14,
118,93,15,25,16,15,
118,93,14,25,17,15,
117,92,15,25,17,15,
116,92,15,25,17,15,
116,92,15,25,17,14,
115,91,15,24,16,15,
115,90,15,25,17,15,
115,90,15,25,17,15,
114,89,15,25,17,15,
113,89,15,25,17,15,
113,89,15,24,17,15,
113,89,15,24,17,15,
112,88,14,25,17,15,
112,88,14,24,17,15,
112,88,15,24,17,15,
110,88,15,24,16,14,
111,88,15,24,17,15,
110,87,15,24,17,15,
108,86,14,24,17,14,
109,86,15,24,16,15,
108,86,15,24,16,14,
108,86,15,24,17,15,
107,90,15,24,16,14,
107,89,15,24,16,15,
107,89,15,23,16,14,
106,89,15,23,17,14,
105,88,15,24,16,15,
104,88,14,24,17,15,
105,88,15,25,17,15,
103,88,14,25,16,15,
103,87,15,25,16,15,
103,86,14,24,16,14,
103,90,15,24,16,15,
102,109,15,25,16,15,
101,109,15,24,17,14,
101,108,15,24,17,15,
101,107,15,24,16,15,
100,106,14,23,17,15,
100,106,15,24,17,14,
99,105,15,24,17,15,
99,103,15,24,16,15,
98,103,14,23,17,14,
98,103,14,23,16,15,
98,103,15,23,18,15,
97,103,15,23,17,14,
96,103,15,23,16,14,
96,102,14,23,16,15,
96,102,15,23,17,15,
96,101,15,24,17,15,
96,101,15,23,16,15,
95,101,15,23,17,15,
94,100,15,23,15,15,
94,99,15,23,17,15,
94,99,15,24,17,15,
93,99,15,23,17,15,
93,99,15,22,17,15,
92,99,15,22,17,15,
92,98,15,23,17,15,
91,98,15,22,16,15,
91,97,15,22,17,15,
91,97,15,22,16,14,
113,97,15,23,16,14,
131,96,15,24,17,16,
130,96,14,24,16,15,
130,96,14,24,16,15,
129,95,15,24,17,15,
129,95,15,24,16,15,
129,98,15,24,16,15,
127,98,15,23,17,15,
127,97,15,23,16,15,
126,96,15,23,17,15,
125,96,15,22,16,15,
125,96,14,24,17,15,
125,95,15,23,17,15,
124,95,15,24,23,15,
123,94,15,23,22,14,
122,94,15,23,22,15,
122,93,15,22,22,14,
121,98,14,23,22,15,
121,96,14,22,22,15,
121,97,15,23,22,14,
120,96,14,22,22,15,
119,96,15,22,22,15,
119,95,14,22,22,15,
118,95,15,22,22,15,
118,94,14,22,22,15,
117,94,15,22,22,15,
117,93,15,22,21,14,
116,92,15,22,21,15,
115,93,15,22,22,15,
114,92,15,21,21,14,
114,92,14,22,21,14,
113,91,15,22,20,14,
113,91,15,21,21,15,
113,90,15,22,21,15,
112,90,15,22,21,15,
112,90,15,22,21,15,
112,89,14,22,21,14,
111,89,15,21,21,15,
111,89,15,22,21,15,
110,89,14,22,21,15,
110,89,15,22,21,15,
108,88,15,22,21,15,
109,88,14,22,20,14,
108,87,15,22,20,14,
108,87,14,22,19,15,
107,87,15,22,21,15,
107,86,14,22,19,15,
106,86,15,21,20,14,
105,86,15,21,20,15,
105,85,15,21,20,15,
105,92,14,21,19,14,
103,92,15,21,20,15,
103,91,15,21,20,15,
103,91,15,21,19,15,
103,90,15,21,19,15,
103,89,15,21,20,14,
127,90,16,22,20,15,
152,89,15,21,19,15,
151,89,15,21,22,15,
150,88,15,22,21,14,
148,88,15,21,21,15,
148,88,14,21,21,15,
147,89,15,21,21,14,
146,88,15,21,21,14,
145,88,15,21,21,14,
145,88,15,21,21,14,
144,87,15,21,20,15,
143,87,15,21,21,15,
143,87,14,21,20,15,
142,86,15,21,20,15,
141,86,14,21,20,15,
141,85,15,20,20,15,
141,85,14,21,20,14,
140,92,15,21,20,15,
139,91,14,21,20,15,
139,90,14,20,21,15,
137,90,15,21,20,15,
137,89,15,20,19,15,
135,89,15,21,19,15,
135,89,14,21,21,15,
135,88,15,20,20,15,
135,88,15,20,20,15,
134,88,15,21,20,15,
133,87,15,20,20,14,
132,87,15,20,20,15,
131,88,15,20,20,15,
131,86,15,20,20,15,
131,86,15,20,20,15,
130,86,15,19,19,15,
129,85,14,20,19,15,
129,85,15,20,20,15,
128,84,14,20,19,14,
127,84,15,19,19,15,
127,83,14,20,20,15,
127,84,15,20,19,14,
127,103,15,20,19,15,
125,103,15,19,19,15,
124,103,14,19,19,15,
125,103,15,19,19,15,
124,102,14,19,19,15,
123,102,15,19,19,15,
123,101,15,19,19,15,
122,101,15,20,19,14,
121,101,15,19,19,15,
121,100,14,19,19,15,
121,99,15,19,19,15,
120,99,14,19,19,15,
119,99,14,19,20,15,
118,99,15,19,18,14,
119,98,14,19,19,15,
117,98,15,19,19,15,
118,97,14,19,19,15,
117,97,15,19,19,14,
116,96,15,22,19,15,
115,96,15,26,19,15,
115,95,14,26,18,15,
115,95,15,25,19,14,
114,95,14,25,18,15,
113,94,15,26,18,15,
113,94,15,26,19,15,
113,93,15,25,19,14,
112,93,15,26,18,15,
112,93,14,25,18,15,
111,93,15,25,19,15,
111,92,15,25,19,14,
111,91,15,25,21,15,
110,91,15,25,22,14,
109,91,15,25,22,14,
109,91,15,24,22,15,
109,91,15,25,21,15,
108,90,15,25,21,15,
108,90,15,24,21,14,
107,89,14,25,21,15,
107,89,15,25,21,14,
106,89,15,24,20,14,
106,88,14,24,21,15,
105,88,14,24,21,15,
105,88,15,24,21,15,
103,87,15,24,21,15,
103,117,15,25,21,15,
103,127,15,24,20,15,
103,127,14,24,21,14,
102,126,15,23,21,14,
102,125,15,24,20,14,
102,125,15,23,21,15,
101,125,15,24,21,15,
101,124,15,23,20,14,
100,123,15,23,21,14,
101,122,15,24,20,15,
99,122,15,23,21,15,
99,121,14,23,20,15,
99,121,15,24,20,15,
98,120,15,23,20,14,
97,120,15,23,20,14,
97,119,15,23,21,15,
97,119,15,22,20,15,
97,119,15,27,20,15,
102,118,15,27,20,15,
102,117,15,27,21,15,
101,116,15,26,21,15,
101,115,15,27,21,15,
101,115,14,27,21,14,
100,114,14,27,21,14,
99,114,15,26,21,15,
99,113,14,26,21,15,
99,113,15,26,21,15,
98,112,15,25,21,14,
98,113,15,26,21,15,
98,112,15,25,19,15,
97,110,15,26,19,15,
96,110,14,25,20,15,
96,110,15,26,20,15,
96,110,15,26,20,14,
95,109,15,25,20,14,
94,109,15,25,19,15,
94,108,15,25,19,14,
93,108,15,25,20,15,
94,107,15,25,19,15,
93,108,14,25,20,15,
93,106,15,24,20,15,
92,106,15,24,19,15,
92,105,14,25,19,14,
92,105,14,25,21,14,
92,103,15,25,19,15,
91,103,14,24,19,14,
91,105,15,25,19,15,
90,103,14,25,19,15,
89,103,15,24,19,15,
89,103,15,24,19,14,
89,102,14,25,19,15,
89,102,15,24,19,15,
88,101,15,24,19,15,
88,101,15,24,19,14,
88,100,14,24,19,15,
87,107,15,24,19,15,
87,117,15,24,19,15,
87,117,15,24,19,15,
86,115,15,24,19,15,
86,115,15,24,19,14,
85,114,15,24,19,15,
85,114,14,23,20,15,
84,113,15,24,21,15,
85,113,14,23,19,15,
84,112,15,23,20,15,
83,112,14,23,21,15,
83,111,15,24,22,15,
83,112,14,23,22,15,
82,110,15,23,22,15,
82,110,15,23,21,14,
82,109,15,23,21,14,
82,109,14,22,21,15,
82,108,15,23,21,14,
80,108,14,23,21,15,
80,107,15,22,21,15,
81,106,15,22,22,15,
80,105,15,23,23,15,
79,106,15,23,22,15,
79,113,15,22,22,15,
79,112,15,22,24,15,
79,112,15,22,22,15,
79,112,15,22,23,14,
78,110,15,22,22,15,
77,110,15,22,23,15,
78,111,15,23,22,15,
101,110,14,22,22,15,
99,109,15,22,22,15,
99,109,15,22,22,15,
99,108,15,22,22,15,
98,127,15,22,22,15,
97,126,14,22,22,15,
97,126,14,21,22,14,
96,125,15,22,21,15,
96,124,15,22,22,15,
96,124,15,22,21,14,
95,123,15,22,21,15,
95,123,15,22,21,14,
94,122,14,22,21,15,
94,122,14,22,20,15,
93,121,15,22,22,15,
93,121,15,21,22,14,
92,120,15,21,21,15,
92,120,14,22,21,15,
92,120,15,21,21,15,
91,119,15,21,21,15,
91,118,15,21,22,16,
97,118,15,24,21,14,
99,117,15,24,21,15,
99,116,15,24,20,15,
99,115,15,23,21,14,
98,115,14,23,22,15,
98,115,15,23,21,15,
97,115,15,24,22,14,
97,114,14,23,21,14,
96,113,15,23,21,15,
96,112,15,22,21,15,
95,112,15,23,21,15,
95,112,15,23,21,15,
95,112,15,24,21,15,
94,111,15,24,21,15,
94,110,14,24,21,15,
93,109,15,23,21,15,
92,109,15,24,21,15,
92,116,15,23,21,15,
92,115,15,24,21,14,
91,115,15,23,21,14,
91,115,15,22,20,14,
91,114,14,23,21,15,
90,113,15,24,21,15,
95,113,15,23,20,14,
94,112,15,23,19,14,
94,111,14,24,20,15,
94,111,15,24,20,14,
93,110,15,24,21,14,
93,110,15,23,20,15,
92,110,15,24,19,15,
91,110,15,23,19,15,
91,109,15,23,19,15,
91,108,15,22,19,14,
91,108,14,24,20,14,
91,107,15,23,20,15,
93,107,15,23,20,15,
93,107,15,22,20,15,
93,105,14,22,21,15,
92,105,15,23,21,15,
92,106,14,22,21,15,
91,112,15,22,20,15,
90,110,15,23,20,15,
90,110,14,22,20,14,
90,110,15,22,20,14,
89,109,14,22,20,14,
89,109,15,25,21,15,
89,108,15,25,19,15,
88,108,14,24,21,15,
88,107,14,25,20,15,
88,107,16,25,21,15,
87,109,15,24,21,15,
88,110,15,24,21,15,
87,109,15,24,21,14,
86,109,14,24,21,15,
85,108,15,24,20,14,
85,108,14,24,20,15,
85,107,15,25,20,15,
84,107,15,24,21,14,
84,106,14,24,21,15,
83,105,15,24,21,15,
83,105,15,24,20,15,
83,105,14,24,21,14,
83,105,14,24,20,14,
83,103,15,24,20,14,
82,103,15,24,20,14,
81,103,15,24,20,15,
81,102,15,24,20,15,
81,102,15,24,20,15,
80,101,15,24,20,14,
79,101,14,24,20,14,
79,100,14,24,19,15,
79,100,15,24,19,15,
79,99,15,24,19,15,
79,107,15,24,19,15,
78,106,14,24,19,14,
79,106,14,24,19,15,
78,105,15,24,19,15,
78,103,14,22,19,14,
77,103,15,23,19,15,
79,104,15,24,19,14,
88,103,15,23,24,15,
87,103,15,24,25,15,
87,102,15,23,24,14,
86,102,15,23,24,15,
86,103,15,23,25,15,
86,103,15,23,24,14,
85,103,15,23,24,14,
84,102,15,23,24,15,
84,102,14,23,24,14,
83,101,14,23,24,15,
83,101,15,23,24,14,
83,101,14,24,24,15,
83,99,14,23,23,15,
83,99,15,23,23,14,
82,99,15,23,24,15,
81,99,15,23,23,15,
81,99,15,23,24,14,
81,99,14,22,23,15,
79,99,14,22,23,15,
81,98,15,22,24,15,
80,97,15,23,23,15,
79,97,15,22,23,15,
79,97,15,22,23,15,
79,96,15,23,23,14,
78,96,15,23,22,15,
78,94,14,22,22,14,
78,95,15,21,23,15,
78,95,15,21,22,15,
78,95,15,22,23,15,
77,95,14,22,23,14,
77,94,14,21,22,15,
76,93,15,21,22,14,
76,93,15,21,23,15,
76,92,15,21,22,14,
76,92,15,22,22,15,
75,92,15,21,22,15,
75,91,15,22,22,15,
75,91,15,22,22,15,
75,92,15,21,22,15,
73,99,14,21,22,15,
74,98,15,21,22,15,
74,97,15,21,22,14,
72,96,14,21,22,15,
72,96,15,21,22,14,
72,96,15,20,21,15,
72,96,16,21,22,15,
77,96,15,21,21,14,
76,94,14,21,21,14,
77,94,15,20,21,14,
76,94,15,21,21,14,
75,97,15,21,21,15,
75,99,15,20,21,15,
75,98,15,20,20,15,
74,97,15,20,21,15,
74,98,15,20,21,15,
74,97,15,20,21,15,
73,96,15,21,21,15,
78,96,15,22,21,15,
79,96,15,23,20,15,
79,95,15,23,21,15,
79,95,15,23,20,15,
78,94,15,24,22,14,
78,94,15,22,21,14,
78,94,15,23,22,15,
77,93,15,23,21,15,
76,92,14,22,21,14,
76,92,15,22,21,15,
76,92,15,23,21,14,
76,92,14,22,21,15,
92,92,15,23,21,15,
95,90,15,22,20,15,
95,90,15,23,21,14,
94,89,14,23,20,15,
94,90,15,23,21,14,
93,104,15,22,21,14,
93,105,14,22,21,14,
92,105,15,22,20,14,
92,104,14,22,21,15,
91,103,15,22,21,15,
91,103,15,22,21,15,
90,103,15,29,21,15,
90,103,15,57,20,15,
89,103,15,57,20,15,
89,102,15,56,20,15,
89,101,15,56,20,15,
89,105,14,56,20,15,
88,105,15,55,20,15,
88,103,15,55,19,15,
88,103,15,54,20,15,
87,103,15,55,20,15,
87,103,15,54,20,15,
86,103,15,53,19,15,
85,102,15,53,20,15,
85,101,14,53,19,15,
85,101,14,53,19,15,
85,100,15,53,20,15,
84,102,15,53,19,15,
83,102,14,52,20,15,
83,101,15,52,19,15,
83,101,14,51,19,15,
82,100,15,51,19,15,
82,99,15,51,19,15,
82,99,14,51,19,14,
83,99,15,51,19,15,
83,98,15,51,19,14,
82,98,15,51,19,14,
82,97,15,51,19,14,
81,97,15,50,19,15,
81,97,15,50,19,15,
81,97,15,50,19,14,
81,96,14,50,19,14,
79,96,14,49,19,15,
79,95,15,49,19,14,
79,96,15,49,19,15,
79,95,15,49,19,15,
79,94,15,48,19,14,
79,93,14,48,19,15,
79,94,15,48,19,14,
78,92,14,48,19,14,
77,93,15,48,20,15,
77,92,15,48,20,16,
77,93,15,48,19,15,
76,92,15,48,20,14,
77,92,15,48,21,14,
76,91,14,47,19,15,
76,90,15,47,19,15,
76,91,14,47,20,15,
75,90,15,47,21,15,
75,89,15,46,20,15,
74,89,15,46,20,15,
75,89,15,46,20,15,
74,121,15,46,19,15,
73,134,15,46,19,15,
73,134,15,46,20,15,
72,132,15,45,19,15,
71,132,15,45,20,15,
71,131,15,45,19,14,
71,131,15,44,19,15,
72,130,15,45,21,14,
71,129,15,44,23,15,
71,128,15,45,23,15,
71,127,14,44,23,15,
70,127,15,43,23,15,
71,127,15,44,22,15,
70,126,15,43,23,15,
70,125,15,43,22,14,
69,124,15,43,23,15,
69,124,15,43,22,14,
69,124,15,43,23,15,
69,123,15,42,22,15,
69,123,15,42,22,15,
68,121,15,41,22,15,
68,121,15,42,22,15,
67,121,15,42,22,15,
67,120,15,41,22,15,
67,120,15,42,21,15,
67,119,15,41,22,14,
66,119,15,41,22,14,
66,118,15,39,22,15,
66,117,14,39,21,15,
78,118,15,41,22,14,
96,116,15,41,21,15,
95,115,15,39,22,14,
95,115,15,39,21,14,
94,115,15,39,21,15,
93,115,15,39,21,15,
93,114,15,39,22,15,
92,113,15,39,22,15,
92,113,15,39,21,15,
92,112,15,39,20,15,
91,111,15,39,21,15,
91,111,14,38,21,15,
108,110,15,39,20,15,
108,111,15,39,20,14,
107,110,15,38,22,15,
107,109,15,38,21,15,
107,129,15,38,21,14,
105,130,14,38,21,15,
105,129,14,37,20,15,
103,128,15,38,21,15,
103,127,14,38,21,15,
103,127,15,38,21,15,
103,126,14,38,21,14,
103,126,14,37,22,15,
102,125,15,37,20,15,
101,124,14,37,21,14,
101,124,14,37,21,15,
100,124,15,37,20,15,
100,123,15,36,20,15,
99,122,15,36,20,15,
99,122,15,35,20,14,
99,121,14,37,19,15,
99,121,15,37,20,15,
98,120,15,37,20,15,
98,120,14,36,20,15,
97,120,14,36,19,15,
96,120,14,35,19,15,
97,131,16,35,19,15,
96,153,15,35,19,14,
96,152,14,35,19,15,
96,152,15,35,19,15,
95,150,14,35,19,15,
94,149,15,35,19,15,
94,148,15,35,19,15,
97,149,15,35,20,15,
135,147,15,35,19,15,
134,146,15,35,20,14,
132,145,15,34,20,15,
132,144,15,35,20,14,
131,143,15,35,20,15,
130,143,15,34,19,15,
130,142,15,34,21,15,
129,142,15,33,19,15,
129,141,15,34,20,15,
128,140,15,34,19,15,
127,139,15,34,20,15,
127,139,15,43,39,15,
126,139,15,43,39,15,
126,138,15,43,38,15,
125,137,14,42,38,15,
125,135,16,43,38,15,
124,135,15,42,37,15,
123,135,15,41,37,15,
122,135,14,42,36,15,
122,134,15,42,37,15,
121,133,15,41,37,14,
120,133,15,41,38,15,
162,132,15,41,36,14,
159,131,15,41,36,15,
158,131,15,41,38,15,
158,130,15,39,37,15,
157,131,15,40,39,14,
156,130,15,39,40,15,
156,130,15,39,39,15,
155,129,15,39,39,15,
154,127,15,39,39,15,
153,127,15,42,66,15,
153,127,15,43,65,15,
152,127,15,42,82,15,
151,125,15,43,80,14,
150,125,15,42,79,14,
150,124,15,42,81,15,
148,124,15,41,79,15,
147,123,15,42,78,15,
147,122,15,42,78,15,
146,122,15,41,79,15,
146,121,15,41,78,15,
145,121,15,41,78,15,
144,121,15,41,77,15,
147,120,15,39,77,14,
147,120,15,40,76,15,
147,119,15,40,79,15,
145,118,16,39,79,15,
145,118,15,39,79,15,
143,117,16,45,78,15,
143,116,15,44,78,15,
143,116,14,44,78,15,
142,115,15,44,78,15,
141,115,14,43,77,15,
140,114,15,44,77,15,
140,114,15,42,76,15,
139,114,16,42,77,15,
140,160,15,43,77,15,
138,175,15,42,77,15,
137,174,14,41,76,15,
135,172,15,41,76,14,
135,172,15,41,76,15,
135,170,15,41,75,15,
135,170,15,42,75,15,
134,169,15,41,74,15,
134,167,15,40,74,15,
133,167,15,41,73,15,
132,166,15,40,91,16,
132,166,15,39,152,15,
131,165,15,40,150,15,
130,164,15,39,149,15,
129,163,15,39,147,15,
129,162,15,39,147,15,
146,162,16,39,147,15,
224,161,15,39,152,15,
222,159,15,39,152,15,
220,158,15,39,152,15,
219,158,15,39,150,15,
217,158,15,38,150,15,
216,166,15,38,148,15,
215,165,15,38,147,14,
214,163,15,38,146,15,
212,163,15,38,146,15,
211,162,15,37,145,15,
210,161,15,41,143,15,
209,161,15,41,143,15,
207,159,15,40,143,15,
206,159,15,41,142,15,
206,158,16,41,141,15,
204,157,15,39,141,14,
203,156,15,39,140,15,
202,156,15,39,139,15,
199,154,15,39,139,15,
199,153,15,39,138,15,
199,153,15,43,137,15,
198,152,15,70,137,15,
197,152,15,69,135,15,
196,152,15,69,155,15,
195,150,15,67,153,15,
194,150,15,67,152,15,
192,149,15,67,151,16,
192,147,15,67,151,15,
190,147,15,66,150,15,
190,146,15,66,149,15,
189,145,15,66,147,15,
188,145,15,65,147,15,
188,144,15,79,146,15,
186,143,16,78,145,15,
185,143,15,78,145,15,
184,147,15,78,143,15,
184,147,15,77,143,15,
182,146,15,76,143,15,
182,145,15,76,142,15,
180,144,15,76,141,15,
180,143,15,76,141,15,
179,143,16,76,141,16,
286,143,16,75,140,16,
281,142,16,75,139,15,
280,145,16,75,138,16,
278,143,16,74,137,16,
275,143,16,74,135,17,
274,143,16,74,135,15,
273,141,15,73,135,16,
271,142,16,73,135,16,
270,140,16,71,135,17,
268,140,17,73,134,16,
266,139,16,71,132,17,
265,139,17,71,132,17,
263,138,17,71,131,17,
262,137,17,71,131,17,
262,171,18,71,130,17,
259,169,17,70,129,17,
257,167,18,70,129,17,
255,167,17,70,128,18,
255,167,18,75,127,18,
253,165,17,77,127,18,
253,164,19,76,159,18,
251,163,18,76,157,18,
249,163,18,76,157,19,
249,163,19,88,243,18,
247,161,19,87,246,18,
245,160,19,86,244,18,
243,159,18,86,243,19,
243,159,19,84,240,19,
241,158,19,85,239,19,
269,158,19,84,238,19,
295,156,19,83,237,19,
294,156,19,84,236,19,
291,154,19,83,234,19,
290,154,19,83,231,19,
287,152,19,82,231,19,
286,153,19,82,230,19,
284,151,19,82,229,19,
283,151,19,81,227,19,
281,150,19,81,226,19,
321,149,19,81,226,21,
455,149,19,80,224,19,
464,147,19,79,223,19,
460,147,19,79,221,19,
455,146,19,79,220,19,
454,145,19,78,219,20,
450,144,19,78,218,19,
447,143,19,77,216,19,
444,143,19,78,216,19,
441,142,19,77,214,20,
438,142,19,77,216,20,
435,141,20,90,225,20,
433,140,19,92,223,19,
429,140,19,91,222,19,
426,139,19,90,221,19,
423,138,19,90,219,21,
421,196,19,90,218,19,
418,193,19,89,217,19,
415,192,19,89,216,19,
412,190,19,88,215,19,
411,190,20,88,214,20,
408,189,19,89,213,20,
406,188,19,88,211,20,
403,187,20,87,211,19,
400,186,20,87,209,20,
398,186,20,88,209,19,
396,227,20,86,207,20,
393,226,20,86,207,20,
391,224,20,85,206,19,
388,223,19,85,205,19,
386,222,20,85,204,19,
384,220,20,85,203,20,
382,219,20,84,201,20,
379,218,19,83,199,20,
377,217,20,83,199,20,
376,216,20,83,199,20,
373,214,21,83,198,19,
371,213,21,82,196,21,
368,211,20,81,195,20,
366,211,22,81,194,21,
364,210,20,81,194,20,
362,209,20,81,193,21,
360,207,20,81,192,21,
359,206,21,79,192,21,
357,206,21,79,190,21,
354,204,21,78,189,21,
353,203,21,78,189,21,
350,202,21,78,187,20,
348,199,21,77,186,21,
347,199,21,77,185,21,
344,199,21,78,185,22,
344,199,22,78,185,22,
342,198,22,112,184,22,
340,196,22,111,184,22,
338,195,23,109,182,22,
335,195,23,109,181,22,
334,194,23,108,180,23,
332,192,23,108,179,22,
331,192,23,107,178,23,
327,190,24,107,177,24,
327,190,24,106,177,24,
325,189,24,106,176,24,
323,188,24,105,176,24,
322,187,25,105,175,25,
319,185,24,103,173,25,
318,185,25,103,173,25,
317,199,25,103,172,25,
314,197,25,102,170,25,
312,196,25,102,170,25,
312,195,26,102,169,25,
310,194,26,102,190,26,
308,193,26,134,188,26,
306,192,26,133,187,26,
304,190,26,132,185,27,
303,189,27,131,185,27,
302,233,27,130,183,26,
300,231,27,129,182,27,
298,230,26,129,182,26,
297,229,27,127,181,27,
295,227,27,127,179,27,
294,226,27,127,178,27,
291,225,26,126,177,27,
291,223,26,126,176,27,
289,221,27,125,175,27,
287,220,27,124,174,27,
286,219,26,123,173,27,
284,217,27,123,172,27,
283,217,27,123,172,27,
281,235,26,121,171,27,
280,233,26,121,170,26,
279,231,27,121,169,27,
280,231,27,120,167,26,
278,229,27,120,167,27,
276,227,26,120,166,26,
275,226,26,118,166,26,
274,225,26,118,165,25,
272,223,26,118,164,27,
271,223,26,117,163,26,
270,221,26,117,162,26,
269,220,26,116,162,26,
267,219,26,115,162,27,
340,218,26,115,211,27,
337,216,26,114,212,26,
335,216,26,114,211,25,
332,214,26,113,209,25,
331,213,26,112,207,26,
327,211,25,112,207,25,
326,210,25,111,205,25,
324,209,25,112,205,25,
323,207,27,111,203,25,
319,207,25,110,202,25,
318,206,25,110,201,25,
316,204,24,108,199,24,
313,203,25,109,198,24,
312,201,24,108,198,25,
310,299,24,107,195,25,
307,295,25,106,195,24,
306,293,24,106,194,24,
304,291,24,105,192,24,
302,289,23,105,192,23,
300,287,24,103,190,24,
299,286,24,103,194,24,
297,284,25,103,245,24,
313,283,24,103,243,24,
312,361,24,102,240,24,
309,358,23,102,239,24,
307,355,23,102,237,23,
305,353,23,102,236,24,
304,350,23,101,235,23,
302,349,23,100,233,23,
302,346,24,99,231,23,
300,344,23,99,231,23,
299,341,23,99,230,23,
297,339,22,98,228,23,
295,338,22,97,227,23,
294,335,22,97,225,23,
292,333,22,96,224,22,
290,331,22,97,223,22,
289,329,22,96,222,22,
287,327,23,96,220,22,
286,326,22,96,220,23,
291,323,22,94,219,22,
289,322,22,94,217,22,
287,321,23,95,217,23,
286,319,22,94,216,22,
285,318,22,94,216,22,
283,316,22,93,213,22,
281,313,22,93,213,22,
280,312,22,92,211,23,
279,310,22,92,210,22,
277,309,22,91,209,22,
275,306,22,91,209,22,
274,305,21,90,207,22,
272,303,21,91,206,22,
271,302,22,90,205,22,
270,300,22,90,204,22,
268,298,22,89,203,21,
268,297,22,89,201,22,
265,295,21,89,199,22,
265,294,21,89,199,21,
263,292,22,88,199,22,
262,291,21,88,199,21,
260,289,22,88,197,21,
259,287,22,88,197,21,
259,304,22,88,195,21,
256,329,21,88,195,21,
255,327,21,87,193,21,
254,325,21,87,192,20,
253,323,20,87,192,21,
252,321,21,86,191,20,
251,319,21,90,190,21,
249,317,21,89,189,20,
248,315,21,89,188,21,
247,313,21,88,187,20,
246,312,20,88,185,21,
244,310,21,88,185,20,
243,308,21,87,184,20,
242,306,21,86,183,20,
241,304,21,86,183,20,
240,302,21,86,182,20,
240,300,21,85,181,20,
271,300,21,85,180,21,
307,297,20,85,179,20,
305,295,19,85,178,20,
303,294,20,84,177,19,
301,292,20,83,177,20,
299,291,21,83,176,20,
297,290,19,83,175,20,
295,287,20,83,174,19,
294,286,19,82,174,20,
292,285,19,82,173,20,
291,283,19,82,171,19,
289,281,20,83,171,20,
287,280,19,82,170,19,
285,280,20,83,169,20,
285,302,21,82,167,19,
282,316,20,81,167,19,
280,313,19,81,167,19,
279,312,20,81,166,20,
278,310,20,80,165,19,
276,308,20,79,165,19,
275,307,19,79,164,19,
273,304,19,79,163,19,
271,303,19,79,163,19,
270,301,19,79,162,19,
269,300,19,79,161,19,
267,297,19,78,160,19,
266,295,19,78,159,19,
264,294,19,77,159,19,
263,292,19,77,158,20,
278,291,20,76,157,19,
312,289,19,76,156,19,
309,287,20,76,156,19,
307,286,19,76,158,19,
305,284,19,78,157,19,
304,283,19,77,156,19,
302,281,19,76,155,19,
300,357,19,76,155,19,
298,355,19,76,154,19,
295,353,19,75,153,19,
295,351,19,75,152,19,
293,348,19,75,152,18,
291,345,19,74,151,19,
290,344,18,74,150,19,
287,341,19,74,150,18,
286,339,18,74,149,19,
285,337,19,73,149,19,
283,335,18,72,147,19,
282,333,18,71,147,18,
280,332,19,71,146,18,
279,329,18,71,146,19,
278,328,18,123,144,18,
275,325,18,121,143,18,
273,323,18,121,143,18,
271,321,18,120,142,17,
270,319,18,119,142,17,
269,318,18,119,141,18,
267,315,18,118,141,18,
266,313,18,117,140,18,
263,312,18,117,140,18,
263,310,17,116,139,18,
261,307,18,115,138,18,
259,307,18,115,137,18,
259,305,18,114,137,18,
263,303,18,114,135,18,
261,304,18,113,135,18,
260,336,17,113,135,17,
258,334,18,111,146,18,
256,331,17,111,145,17,
255,329,17,111,145,18,
254,327,17,110,143,17,
252,325,17,110,142,17,
252,323,18,110,142,17,
283,321,18,109,141,17,
281,319,17,108,141,17,
279,317,18,108,140,17,
277,315,18,108,139,18,
275,313,17,107,139,17,
275,311,17,107,138,17,
272,309,17,105,136,17,
271,307,17,105,136,17,
269,306,17,105,135,18,
268,305,18,103,135,17,
265,302,17,103,134,17,
265,300,17,103,133,17,
263,299,17,103,133,18,
262,295,17,102,133,17,
259,295,17,102,132,17,
258,294,17,101,131,18,
257,292,17,100,130,17,
255,291,17,100,130,17,
254,288,17,100,129,17,
253,287,16,99,128,17,
251,286,17,99,129,17,
250,285,16,99,170,16,
249,283,16,98,169,17,
247,281,17,97,167,17,
246,280,17,97,167,17,
245,278,17,96,166,17,
243,277,17,96,165,17,
278,275,17,95,164,17,
277,274,17,96,163,17,
275,272,17,95,163,17,
273,271,17,94,161,17,
271,269,16,94,161,17,
270,268,16,94,159,17,
269,267,17,93,159,17,
268,267,17,93,158,17,
265,265,17,92,158,16,
263,263,17,92,157,17,
263,262,16,91,156,17,
262,261,18,92,156,17,
389,261,18,91,155,18,
507,258,16,91,153,17,
499,257,17,89,153,17,
496,255,16,89,152,17,
492,255,17,89,152,16,
487,253,17,89,151,17,
484,252,17,88,150,16,
480,250,16,88,149,17,
477,250,17,88,149,16,
474,248,17,87,147,17,
471,247,17,87,147,17,
467,246,16,86,147,17,
464,244,17,86,145,17,
461,243,17,85,144,17,
457,242,17,85,143,17,
455,241,17,84,143,17,
451,240,16,84,142,17,
449,239,17,85,142,17,
446,238,16,83,141,17,
443,236,17,83,140,17,
440,236,16,83,140,17,
437,234,16,82,140,17,
434,233,17,83,189,17,
432,231,16,88,199,16,
429,231,17,89,199,16,
426,230,16,88,198,16,
423,228,16,88,196,16,
421,227,16,87,195,16,
419,226,17,88,194,16,
415,226,17,86,193,16,
413,225,17,86,192,16,
411,223,17,86,192,17,
408,222,16,85,190,17,
406,221,16,85,189,16,
403,220,17,84,189,16,
401,220,17,83,188,18,
398,219,17,83,186,17,
396,217,17,83,185,17,
393,216,17,83,184,17,
391,215,16,82,184,16,
390,215,17,82,183,17,
387,213,17,81,182,17,
385,212,17,81,180,17,
383,211,17,81,179,17,
380,211,16,81,179,16,
378,209,17,80,178,17,
376,209,16,79,177,16,
374,207,17,79,177,16,
371,206,17,79,176,16,
370,205,16,79,175,16,
368,204,17,78,174,16,
365,204,16,78,173,17,
364,203,16,78,172,16,
361,201,17,78,172,16,
359,199,16,77,171,17,
358,199,17,77,170,17,
355,199,17,77,169,17,
353,198,16,76,168,17,
352,197,16,76,167,16,
349,196,16,76,167,16,
348,196,17,76,166,17,
346,195,17,76,166,18,
428,195,18,76,164,17,
436,193,17,75,163,17,
433,193,17,75,163,17,
430,192,17,74,163,17,
428,191,17,74,161,17,
423,190,17,73,161,17,
422,189,17,73,160,17,
419,188,17,73,159,17,
415,187,17,71,158,17,
414,187,17,71,158,17,
411,185,17,71,157,17,
408,185,17,71,156,17,
405,184,17,71,155,17,
403,184,17,71,156,18,
401,291,18,71,154,17,
398,295,17,71,153,17,
395,294,17,70,153,17,
393,291,17,70,152,17,
391,289,17,71,152,17,
388,287,18,70,151,17,
385,287,17,86,150,17,
384,285,17,85,149,18,
381,283,17,84,149,17,
379,281,17,85,148,18,
376,351,18,83,146,17,
374,348,18,83,147,17,
371,345,17,83,145,18,
369,342,17,82,145,17,
367,339,16,82,143,16,
365,338,17,81,143,16,
362,335,17,81,142,17,
359,334,17,81,141,17,
364,332,16,81,142,17,
364,330,17,79,140,17,
361,327,17,79,140,17,
359,326,17,79,139,17,
357,323,16,78,139,17,
355,321,16,78,138,16,
353,319,17,78,137,17,
351,318,17,78,135,16,
349,316,17,83,136,17,
347,314,16,82,135,17,
345,313,17,82,135,17,
343,311,17,81,135,17,
341,309,17,81,133,17,
339,307,17,81,132,17,
338,306,17,79,133,17,
335,304,17,80,132,17,
334,302,17,79,131,16,
332,300,16,79,131,17,
331,299,17,82,130,17,
327,297,16,81,129,17,
327,295,16,80,129,16,
325,294,16,80,127,17,
323,292,17,79,127,17,
322,291,17,79,127,16,
319,289,16,79,126,16,
319,287,17,79,126,17,
317,286,16,78,125,17,
315,285,17,78,125,17,
313,283,17,78,124,17,
319,282,17,78,124,17,
345,280,17,79,126,17,
344,279,17,87,172,17,
342,278,17,86,169,16,
339,275,16,85,169,16,
337,274,17,85,167,17,
335,273,17,85,167,17,
333,271,16,85,166,17,
331,270,17,84,165,16,
327,269,16,83,165,17,
327,268,17,84,163,16,
325,265,17,83,163,16,
323,265,17,83,161,16,
321,263,17,83,161,17,
319,262,16,83,161,17,
318,353,17,82,159,17,
316,350,16,81,159,16,
313,347,17,82,158,16,
312,345,17,81,156,16,
311,343,17,81,156,16,
309,340,16,80,155,16,
307,338,16,79,154,16,
305,335,16,79,153,17,
305,353,17,80,153,18,
304,493,17,79,152,16,
301,518,16,78,151,16,
299,514,17,78,150,15,
297,510,17,78,150,16,
295,505,16,77,149,15,
295,502,16,77,148,16,
294,498,16,76,147,16,
292,495,16,76,146,17,
291,491,15,76,146,16,
289,487,16,76,146,16,
287,533,17,76,201,17,
286,527,15,75,199,16,
285,523,16,74,199,16,
283,519,16,74,198,16,
282,515,16,74,196,16,
322,511,16,74,196,17,
356,507,16,73,194,16,
354,505,15,73,195,16,
351,500,17,74,195,16,
349,497,16,73,193,15,
347,493,16,73,192,16,
345,489,17,73,191,16,
343,486,16,71,190,16,
340,483,17,71,190,15,
339,479,16,71,189,15,
335,476,17,71,187,15,
334,473,16,71,186,16,
332,470,16,71,185,17,
330,467,15,70,184,16,
327,463,16,70,184,16,
327,460,16,69,183,16,
324,458,16,70,181,16,
322,455,16,69,180,17,
321,452,16,69,180,16,
319,449,17,68,179,16,
317,447,16,68,178,17,
316,444,16,68,177,17,
314,441,16,68,176,16,
312,439,17,67,175,16,
310,435,17,67,174,16,
308,432,16,67,173,16,
307,431,17,66,173,16,
305,427,16,67,172,16,
304,425,17,66,171,17,
302,423,16,65,171,16,
300,421,16,66,170,17,
298,417,17,65,167,16,
297,415,17,65,167,17,
295,412,17,65,167,16,
294,411,16,64,166,17,
292,408,15,65,166,17,
290,405,16,64,165,17,
289,403,17,63,163,17,
287,400,17,63,163,16,
286,398,17,63,162,16,
285,396,16,63,161,16,
283,394,17,63,160,17,
281,391,17,63,159,16,
280,389,16,63,159,16,
279,387,17,62,158,16,
277,385,16,63,158,16,
276,382,15,62,156,16,
274,380,17,62,156,17,
273,378,16,61,156,16,
271,376,16,61,154,17,
270,374,15,61,154,17,
269,371,16,61,153,16,
268,369,17,60,152,16,
267,368,16,60,152,16,
265,366,15,60,151,15,
263,364,16,60,150,16,
263,361,17,60,149,16,
261,359,16,59,149,16,
260,357,17,59,148,17,
259,356,16,59,147,16,
258,354,16,59,147,16,
257,352,17,58,146,16,
255,350,17,58,145,17,
255,349,17,57,145,16,
253,346,16,58,145,17,
252,344,16,57,143,16,
250,344,16,57,143,17,
249,341,16,57,142,17,
248,339,16,57,142,16,
247,337,16,56,141,15,
246,335,16,57,140,16,
244,334,16,56,139,16,
243,332,16,56,139,17,
243,331,16,56,138,17,
241,329,16,56,137,16,
240,327,17,56,135,16,
239,326,16,56,135,16,
238,324,16,55,135,15,
237,322,16,54,135,16,
236,319,15,54,134,16,
234,318,17,54,134,17,
233,317,16,54,133,17,
231,315,16,54,133,17,
306,313,16,53,131,16,
304,312,17,53,131,15,
302,311,17,53,131,16,
300,309,16,53,130,16,
298,316,17,53,129,16,
295,323,16,51,129,17,
294,321,16,52,129,16,
293,318,16,51,127,15,
291,316,16,52,127,16,
289,315,17,51,127,16,
287,313,16,51,126,17,
286,311,16,51,126,16,
284,309,16,51,125,16,
283,307,16,51,124,16,
281,306,16,51,124,16,
280,305,17,51,124,16,
278,303,17,51,123,16,
276,301,16,50,122,17,
275,300,16,50,123,17,
273,299,16,49,121,17,
272,297,16,50,121,17,
270,295,16,62,120,15,
269,294,16,61,120,17,