
35,5,0,51,70,0,

35,5,0,51,70,0,

34,5,0,51,70,0,

35,5,0,51,70,0,

34,5,0,50,70,0,

34,5,0,51,69,0,

34,5,0,50,69,0,

34,5,0,50,69,0,

33,5,0,50,68,0,

33,5,0,50,67,0,

33,5,0,50,67,0,

33,5,0,50,67,0,

33,4,0,50,67,0,

33,5,0,49,67,0,

32,5,0,49,67,0,

33,4,0,49,66,0,

32,5,0,48,66,0,

32,4,0,48,66,0,

31,4,0,48,66,0,

31,4,0,48,65,0,

31,5,0,48,65,0,

31,4,0,48,64,0,

31,4,0,48,65,0,

31,4,0,49,63,0,

31,4,0,49,63,0,

31,4,0,49,63,0,

31,4,0,49,63,0,

31,4,0,49,63,0,

30,4,0,48,63,0,

30,4,0,48,62,0,

30,4,0,48,62,0,

30,4,0,48,62,0,

30,4,0,48,62,0,

29,3,0,47,62,0,

29,3,0,47,61,0,

29,3,0,47,61,0,

29,3,0,46,61,0,

29,3,0,47,60,0,

29,4,0,59,60,0,

29,4,0,58,60,0,

29,4,0,59,59,0,

28,4,0,58,59,0,

28,4,0,58,59,0,

28,4,0,57,59,0,

28,4,0,57,59,0,

28,3,0,57,59,0,

28,4,0,56,58,0,

28,4,0,56,57,0,

28,3,0,56,57,0,

27,3,0,56,57,0,

28,3,0,56,57,0,

27,4,0,56,57,0,

28,3,0,56,57,0,

27,3,0,55,56,0,

28,3,0,55,56,0,

27,4,0,55,56,0,

27,5,0,55,56,0,

27,5,0,54,56,0,

27,5,0,54,56,0,

27,5,0,54,55,0,

26,5,0,53,55,0,

26,5,0,53,55,0,

26,5,0,53,54,0,

26,5,0,53,54,0,

26,5,0,52,54,0,

26,5,0,52,54,0,

26,5,0,52,54,0,

26,5,0,51,53,0,

26,4,0,51,53,0,

25,4,0,51,53,0,

25,5,0,51,52,0,

25,5,0,51,52,0,

25,5,0,51,52,0,

25,4,0,51,51,0,

25,5,0,50,51,0,

24,4,0,50,51,0,

25,4,0,50,51,0,

25,4,0,50,51,0,

24,3,0,51,51,0,

24,4,0,51,51,0,

24,5,0,50,50,0,

24,4,0,50,50,0,

24,3,0,50,50,0,

24,4,0,50,50,0,

24,4,0,50,49,0,

24,4,0,49,49,0,

24,4,0,49,49,0,

23,4,0,49,49,0,

24,4,0,49,49,0,

23,3,0,49,48,0,

23,4,0,49,48,0,

23,3,0,48,48,0,

23,4,0,48,48,0,

23,3,0,50,48,0,

23,4,0,50,47,0,

23,3,0,50,48,0,

22,4,0,49,47,0,

22,3,0,49,47,0,

22,3,0,49,46,0,

22,3,0,48,47,0,

22,4,0,48,46,0,

22,3,0,48,46,0,

22,4,0,48,46,0,

22,3,0,48,46,0,

21,3,0,48,45,0,

21,3,0,48,45,0,

21,3,0,47,45,0,

21,3,0,47,45,0,

21,3,0,47,45,0,

21,3,0,47,45,0,

21,3,0,46,44,0,

21,4,0,46,44,1,

20,4,0,46,44,0,

21,5,0,46,44,0,

21,4,0,46,44,0,

20,4,0,46,43,0,

20,4,0,45,44,0,

20,4,0,45,43,0,

19,3,0,45,43,0,

20,3,0,49,43,0,

19,4,0,51,43,0,

20,4,0,51,43,0,

19,4,0,51,42,0,

19,4,0,51,42,0,

19,3,0,50,42,0,

19,3,0,50,41,0,

19,4,0,50,41,0,

19,3,0,50,41,0,

19,3,0,49,41,0,

19,3,0,49,41,0,

19,4,0,49,41,1,

19,3,0,49,41,0,

19,3,0,49,39,0,

19,3,0,49,39,0,

19,4,0,52,39,0,

19,3,0,63,39,0,

19,3,0,62,39,0,

19,3,0,62,39,0,

19,3,0,61,39,0,

19,3,0,61,39,0,

19,3,0,61,39,0,

19,3,0,61,39,0,

19,3,0,60,39,0,

18,3,0,60,39,0,

19,3,0,59,39,0,

18,3,0,60,39,0,

18,3,0,59,38,0,

18,3,0,59,38,0,

30,3,0,59,38,0,

30,3,0,58,38,0,

30,3,0,58,38,0,

29,4,0,57,37,0,

29,3,0,57,37,0,

29,4,0,57,37,0,

29,3,0,57,37,0,

28,3,0,57,37,0,

29,3,0,57,37,0,

28,3,0,56,36,0,

28,3,0,56,36,0,

28,3,0,56,36,0,

28,3,0,56,36,0,

28,3,0,56,35,0,

28,3,0,56,35,0,

28,3,0,55,35,0,

27,3,0,55,35,0,

28,4,0,55,35,0,

27,4,0,54,35,0,

27,3,0,54,77,0,

27,4,0,54,85,0,

27,3,0,54,85,0,

27,3,0,53,84,0,

27,3,0,53,84,0,

27,3,0,53,83,0,

26,3,0,53,83,0,

26,3,0,52,82,0,

26,3,0,52,82,0,

26,3,0,52,82,0,

26,3,0,52,81,0,

25,3,0,51,81,0,

25,3,0,51,80,0,

25,3,0,51,80,0,

25,3,0,51,79,0,

25,3,0,50,79,0,

25,4,0,50,79,0,

25,4,0,50,79,0,

25,3,0,50,78,0,

25,3,0,50,78,0,

24,3,0,50,78,0,

24,3,0,49,78,0,

28,3,0,49,77,0,

29,3,0,75,77,0,

28,4,0,86,76,0,

28,3,0,85,76,0,

28,4,0,85,76,0,

28,3,0,85,76,0,

28,3,0,84,75,0,

27,4,0,83,75,0,

28,3,0,83,75,0,

27,3,0,83,74,0,

27,3,0,83,73,0,

27,3,0,82,73,0,

27,3,0,82,73,0,

27,3,0,81,73,0,

27,3,0,81,73,0,

27,3,0,81,71,0,

27,3,0,80,71,0,

27,3,0,79,71,0,

27,3,0,79,71,0,

26,3,0,79,71,0,

27,4,0,79,71,0,

26,3,0,79,70,0,

26,3,0,78,70,0,

26,3,0,78,70,0,

26,3,0,78,69,0,

26,3,0,77,69,0,

26,3,0,77,69,0,

25,4,0,77,69,0,

25,3,0,76,68,0,

25,3,0,76,68,0,

25,3,0,76,67,0,

25,3,0,76,67,0,

25,3,0,75,67,0,

25,3,0,75,67,0,

25,3,0,75,67,0,

25,3,0,74,67,0,

24,3,0,74,66,0,

24,3,0,73,65,0,

24,3,0,73,65,0,

24,3,0,73,66,1,

24,3,0,73,65,0,

24,3,0,71,65,0,

25,3,0,71,64,0,

37,3,0,71,64,0,

39,3,0,71,63,0,

39,3,0,71,63,0,

39,3,0,71,63,0,

39,3,0,71,63,0,

39,3,0,70,63,0,

39,3,0,70,63,0,

39,3,0,70,62,0,

38,3,0,69,62,0,

38,3,0,69,62,0,

38,3,0,69,61,0,

37,3,0,69,61,0,

38,3,0,76,61,0,

37,3,0,76,61,0,

37,3,0,75,61,0,

36,3,0,75,60,0,

37,3,0,75,60,0,

36,5,0,74,60,0,

36,6,0,74,60,0,

36,7,0,74,60,0,

35,6,0,73,59,0,

36,6,0,73,59,0,

35,6,0,73,59,0,

35,6,0,73,58,0,

35,6,0,71,58,0,

35,6,0,71,57,0,

35,6,0,71,57,0,

35,6,0,71,57,0,

35,6,0,71,57,0,

35,6,0,71,57,0,

34,6,0,71,57,0,

34,6,0,70,57,1,

34,6,0,70,56,0,

34,6,0,70,56,0,

34,6,0,69,56,0,

33,6,0,69,56,0,

33,6,0,69,56,0,

33,6,0,68,55,0,

33,6,0,68,55,0,

33,6,0,67,54,0,

33,6,0,67,54,0,

32,6,0,67,54,0,

32,6,0,67,54,0,

31,5,0,67,54,0,

31,6,0,66,53,0,

31,10,0,66,53,0,

31,9,0,66,53,0,

31,9,0,66,52,0,

31,9,0,65,52,0,

31,9,0,65,53,0,

31,9,0,65,52,0,

31,9,0,64,52,0,

31,9,0,64,51,0,

30,9,0,64,51,0,

30,9,0,63,51,0,

30,9,0,63,51,0,

30,9,0,63,51,0,

30,9,0,63,50,0,

30,9,0,63,50,0,

30,9,0,62,50,0,

29,9,0,62,50,0,

30,8,0,62,50,0,

29,9,0,62,49,0,

29,9,0,62,49,0,

29,7,0,61,49,0,

29,9,0,61,48,0,

29,8,0,61,49,1,

28,7,0,60,48,0,

28,7,0,60,48,0,

28,7,0,60,48,0,

28,7,0,60,48,0,

28,7,0,60,48,0,

28,24,0,59,48,0,

28,45,0,59,47,0,

27,44,0,59,47,0,

28,44,0,59,47,0,

27,44,0,58,47,0,

27,44,0,58,46,0,

28,44,0,58,46,0,

27,44,0,57,46,0,

27,43,0,57,45,0,

27,43,0,57,45,0,

27,42,0,56,46,0,

27,43,0,56,45,0,

26,42,0,56,45,0,

26,42,0,56,44,0,

26,41,0,56,45,0,

26,41,0,56,57,0,

26,41,0,56,57,0,

26,41,0,56,57,0,

26,39,0,55,57,0,

25,40,0,55,56,0,

25,41,0,55,56,0,

25,39,0,55,56,0,

25,39,0,54,55,0,

25,39,0,54,55,0,

25,39,0,53,55,0,

25,39,0,54,55,0,

25,39,0,53,55,0,

25,39,0,53,54,0,

25,39,0,53,56,0,

25,38,0,52,57,0,

24,38,0,52,56,0,

24,38,0,52,56,0,

24,38,0,52,56,0,

24,38,0,51,56,0,

24,38,0,51,55,0,

24,37,0,51,55,0,

24,37,0,51,55,0,

26,37,0,51,55,0,

26,37,0,51,54,0,

26,36,0,50,54,0,

26,36,0,50,54,0,

26,36,0,50,53,0,

26,36,0,49,53,0,

25,35,0,49,53,0,

25,35,0,49,53,0,

25,35,0,49,53,0,

25,35,0,49,52,0,

25,35,0,49,52,0,

25,35,0,49,52,0,

25,35,0,48,51,0,

25,35,0,48,51,0,

25,34,0,48,51,0,

25,34,0,48,51,0,

25,34,0,48,50,0,

25,34,0,47,50,0,

24,34,0,47,50,0,

25,33,0,46,50,0,

24,34,0,46,50,0,

24,33,0,46,49,0,

24,33,0,46,49,0,

24,33,0,46,49,0,

24,33,0,59,48,0,

33,33,0,59,48,0,

35,32,0,58,48,0,

35,32,0,58,48,0,

35,32,0,58,48,0,

35,31,0,57,48,0,

34,31,0,57,47,0,

34,31,0,57,47,0,

34,31,0,57,47,0,

34,31,0,57,46,0,

34,31,0,56,46,0,

33,31,0,56,46,0,

33,31,0,56,46,0,

33,30,0,56,46,0,

33,30,0,56,45,0,

33,30,0,55,45,0,

32,30,0,55,45,0,

33,30,0,55,45,0,

33,30,0,54,45,0,

32,30,0,54,44,0,

31,30,0,54,44,0,

31,29,0,53,44,0,

31,29,0,53,44,1,

31,29,0,53,44,0,

31,29,0,53,44,0,

31,29,0,52,43,0,

31,29,0,52,43,0,

31,29,0,52,43,0,

31,28,0,54,43,0,

31,28,0,57,43,0,

31,28,1,57,42,0,

31,28,0,57,42,0,

31,28,0,56,42,0,

30,28,0,56,42,0,

30,28,0,56,41,0,

30,27,0,56,41,0,

30,27,0,56,41,0,

30,27,0,55,41,0,

30,27,0,55,41,0,

29,26,0,55,41,0,

29,27,0,57,41,0,

29,27,0,67,39,0,

29,26,0,66,39,0,

29,26,0,66,39,0,

29,26,0,65,39,0,

28,26,0,65,39,0,

29,26,0,65,39,0,

28,25,0,65,39,0,

28,25,0,64,39,0,

28,25,0,64,39,0,

28,25,0,63,39,0,

27,25,0,63,39,0,

28,25,1,63,38,0,

28,25,0,63,38,0,

29,25,0,63,38,0,

28,24,0,62,38,0,

28,25,0,62,38,0,

28,25,0,62,38,0,

28,24,0,61,37,0,

28,24,0,61,38,0,

28,24,0,61,56,0,

27,24,0,61,55,0,

28,24,0,61,55,0,

27,24,0,60,54,0,

27,24,0,60,54,0,

27,23,0,60,54,0,

27,23,0,59,54,0,

27,23,0,59,53,0,

27,23,0,59,53,0,

26,23,0,59,52,0,

26,23,0,59,52,0,

26,23,0,58,52,0,

26,22,0,58,52,0,

25,22,0,57,51,0,

25,22,0,57,52,0,

25,22,0,57,51,0,

25,22,0,57,51,0,

25,21,0,56,51,1,

25,22,0,56,51,1,

25,22,0,56,51,0,

26,22,0,56,50,0,

25,21,1,56,50,0,

25,21,0,56,50,0,

25,21,0,55,49,0,

25,21,0,55,49,0,

25,20,0,55,49,0,

25,21,0,54,49,0,

25,21,0,54,48,1,

25,21,0,54,48,0,

24,20,1,53,48,0,

24,20,0,53,48,0,

24,20,0,53,48,0,

24,19,0,53,48,0,

24,20,0,53,47,0,

24,19,0,52,47,0,

24,20,0,52,46,1,

24,19,0,52,46,0,

24,19,0,51,46,0,

24,19,0,51,46,0,

24,19,0,51,46,0,

23,19,0,51,45,0,

23,19,0,51,45,0,

23,19,0,51,45,0,

23,19,1,50,45,0,

23,19,0,50,45,0,

24,19,0,50,45,0,

25,19,1,49,44,0,

25,19,1,49,44,0,

25,18,0,49,44,0,

25,18,1,49,44,0,

25,18,1,48,44,0,

24,18,0,48,44,1,

24,18,0,48,43,0,

24,18,0,48,43,0,

24,18,0,48,43,0,

24,17,0,48,43,0,

24,18,0,48,42,0,

24,17,1,47,42,0,

25,17,0,47,42,0,

26,17,0,47,42,0,

25,17,0,46,41,0,

25,17,0,46,41,0,

25,17,0,46,41,0,

25,17,0,46,41,0,

25,16,0,46,41,0,

25,17,1,46,39,0,

25,16,0,46,39,1,

24,17,0,45,39,0,

24,17,0,45,39,0,

24,16,0,45,39,0,

24,16,0,44,39,0,

24,16,0,44,39,0,

26,16,0,44,39,0,

27,15,0,44,39,0,

27,15,0,44,39,0,

27,16,0,44,39,0,

27,15,0,43,39,0,

27,15,1,44,38,0,

26,15,0,43,38,0,

26,15,0,43,38,0,

26,15,1,43,38,0,

26,15,0,43,38,0,

25,15,0,42,38,0,

25,15,0,42,37,0,

25,15,0,42,37,0,

25,15,0,42,37,0,

25,15,0,41,36,0,

25,15,0,41,36,0,

25,14,1,41,36,0,

24,14,0,41,36,0,

25,14,0,41,35,0,

25,14,0,41,36,0,

24,14,0,41,35,0,

24,14,0,39,35,0,

24,14,0,39,35,0,

24,14,0,39,35,0,

24,14,0,39,35,0,

24,14,0,47,35,0,

24,14,0,53,35,0,

23,14,0,52,34,0,

24,14,0,52,34,0,

24,14,0,51,34,0,

24,14,0,51,34,0,

23,13,0,51,34,0,

23,14,0,51,34,0,

23,14,0,50,34,0,

23,14,0,50,33,0,

23,13,0,50,34,0,

22,13,0,50,33,0,

22,13,0,50,33,0,

22,13,0,49,33,0,

22,13,0,50,33,0,

22,13,0,49,33,0,

21,13,0,49,32,0,

22,13,0,49,32,0,

21,13,0,49,32,0,

21,13,0,49,33,0,

21,13,0,48,46,0,

21,12,0,48,46,0,

21,12,0,48,46,0,

21,12,0,47,46,0,

21,12,0,48,46,1,

21,12,0,47,45,0,

20,12,0,50,45,0,

21,12,0,53,45,0,

20,12,0,53,45,0,

21,12,0,53,45,0,

20,12,0,52,44,0,

20,12,0,51,44,0,

20,12,0,51,44,0,

20,12,0,51,44,0,

19,12,0,51,43,0,

19,12,0,51,43,0,

19,12,0,50,43,0,

19,12,0,50,43,0,

19,12,0,50,43,0,

19,11,0,50,42,0,

19,12,0,49,41,0,

22,12,0,49,42,0,

22,11,0,49,41,1,

22,11,0,49,41,0,

22,11,0,49,41,0,

22,11,0,48,41,0,

21,11,0,48,41,0,

21,11,0,48,47,0,

21,11,0,48,48,0,

21,11,0,47,47,0,

21,11,0,48,47,0,

21,10,0,47,46,0,

21,10,0,47,46,1,

29,10,0,47,46,0,

32,10,0,46,45,0,

31,10,0,46,45,0,

31,10,0,46,45,0,

31,11,0,46,45,0,

31,10,0,45,45,0,

31,10,0,45,44,0,

31,10,0,45,44,0,

31,10,0,45,44,0,

31,10,0,45,44,0,

30,10,0,45,44,0,

30,10,0,44,43,1,

30,9,0,44,43,1,

30,10,0,44,43,0,

30,10,0,44,43,0,

30,9,0,44,42,0,

30,9,0,43,42,0,

29,9,0,43,42,0,

29,9,0,43,42,0,

29,9,0,43,42,0,

29,9,0,42,41,0,

29,9,0,42,41,0,

29,9,0,42,41,0,

29,9,0,42,41,0,

28,9,0,41,41,0,

28,9,0,42,41,0,

28,9,0,65,41,0,

28,9,0,68,39,0,

28,9,0,67,39,0,

28,9,0,67,39,0,

27,9,0,67,39,0,

27,8,0,67,39,0,

27,9,0,66,39,0,

27,8,0,66,39,0,

27,9,0,66,39,1,

27,8,0,65,39,0,

27,8,0,65,39,0,

27,7,0,65,38,0,

26,8,0,65,38,0,

26,7,0,64,38,0,

26,8,1,64,38,0,

26,7,0,63,38,0,

26,7,0,63,37,0,

26,7,0,63,37,0,

26,7,0,63,37,0,

25,7,1,63,37,0,

25,7,0,62,37,0,

25,7,0,62,36,0,

25,7,0,62,36,0,

25,7,0,62,36,0,

25,8,0,61,35,0,

25,9,0,61,35,0,

24,9,0,61,35,0,

25,7,0,61,35,0,

25,9,0,79,35,0,

24,7,0,83,35,0,

24,7,0,82,35,0,

24,7,0,82,35,0,

24,7,0,82,35,0,

24,8,0,81,35,0,

24,9,0,81,34,0,

24,9,0,80,34,0,

24,9,0,79,34,0,

24,9,0,79,34,0,

23,9,0,79,34,0,

23,9,0,79,33,0,

23,9,0,79,33,0,

23,9,0,78,33,0,

24,8,0,78,33,0,

23,9,0,78,33,0,

22,9,0,77,33,0,

23,9,0,77,33,0,

23,9,0,77,33,0,

22,8,0,77,31,0,

22,7,0,76,32,0,

22,7,0,76,32,0,

22,7,0,75,32,0,

22,7,0,75,32,0,

22,7,0,75,31,0,

22,7,0,75,31,0,

21,7,0,74,31,0,

22,7,0,73,31,1,

21,7,0,73,31,0,

21,7,0,73,31,0,

21,7,0,73,31,0,

21,7,0,73,31,0,

21,7,0,71,31,0,

20,7,0,71,30,0,

21,7,0,71,30,0,

20,7,0,71,30,0,

20,7,0,71,30,0,

20,7,0,71,30,0,

20,7,0,71,30,0,

20,7,0,70,29,0,

19,7,0,70,29,0,

19,7,0,70,29,0,

19,7,0,70,29,0,

20,7,0,69,29,0,

19,7,0,68,29,0,

19,7,0,68,29,0,

19,7,0,68,28,0,

19,7,0,68,28,0,

19,7,0,67,28,0,

19,7,0,67,28,0,

19,7,0,67,28,0,

19,7,0,67,28,0,

19,7,0,67,28,0,

19,7,0,66,28,0,

19,7,0,66,28,0,

19,7,0,66,28,0,

19,7,0,65,28,0,

19,6,0,65,27,0,

19,7,0,64,28,0,

19,6,0,65,27,0,

18,7,0,64,27,0,

19,7,0,64,27,0,

18,6,0,63,27,0,

18,6,1,63,35,0,

18,7,0,63,34,0,

18,6,0,63,34,0,

18,6,0,63,34,0,

18,6,0,62,34,0,

17,6,0,62,34,0,

18,6,0,62,33,0,

18,6,0,62,33,0,

18,6,0,62,33,0,

18,6,0,61,33,0,

18,6,0,61,33,0,

18,6,0,61,33,0,

18,6,0,61,32,0,

18,6,0,60,36,0,

18,6,0,60,36,0,

18,6,0,60,35,0,

17,6,0,59,35,0,

17,6,0,60,35,0,

17,6,0,59,35,0,

17,6,0,59,35,0,

17,6,0,59,35,0,

17,6,0,59,35,0,

17,6,0,58,34,0,

17,6,0,58,34,0,

16,6,0,58,34,0,

16,5,0,57,34,0,

16,6,0,57,34,0,

16,6,0,57,34,0,

16,6,0,57,33,0,

16,5,0,57,34,0,

16,6,0,57,33,0,

16,5,0,56,33,0,

15,5,0,56,33,0,

15,5,0,56,32,0,

16,5,0,56,33,0,

17,5,0,55,31,0,

16,5,0,55,32,0,

16,5,0,55,31,0,

16,5,0,55,31,0,

16,5,0,55,31,0,

16,6,0,54,31,0,

16,6,0,54,31,0,

16,6,0,54,31,0,

16,5,0,53,31,0,

15,5,0,53,31,0,

15,5,0,53,31,0,

15,5,0,53,31,0,

15,5,0,52,31,0,

15,5,0,53,30,0,

15,5,0,53,30,0,

15,5,0,53,30,0,

15,5,0,53,30,0,

15,5,0,52,30,0,

15,5,0,52,29,0,

15,5,0,52,30,0,

15,5,0,51,29,0,

15,5,0,51,29,0,

15,5,0,51,29,0,

15,5,0,51,29,0,

15,5,0,51,29,0,

15,5,0,51,28,0,

15,5,0,50,28,0,

14,5,0,50,29,0,

16,5,0,50,28,0,

15,5,0,50,28,0,

15,5,0,50,28,0,

15,5,0,49,28,0,

15,5,0,49,28,0,

15,4,0,49,28,0,

15,5,0,49,28,0,

15,4,0,48,27,0,

15,5,0,48,27,0,

15,4,0,48,27,0,

15,5,0,48,27,0,

15,4,0,48,27,0,

15,4,0,48,27,0,

15,5,0,47,27,0,

15,4,0,47,27,0,

14,4,0,47,26,0,

15,4,0,47,26,0,

14,4,0,47,26,0,

14,4,0,46,26,0,

14,4,0,46,26,0,

14,4,0,46,25,0,

14,4,0,46,25,0,

14,3,0,45,26,0,

14,4,0,46,25,0,

14,4,0,45,25,0,

14,4,0,45,25,0,

14,4,0,45,25,0,

14,3,0,45,25,0,

14,3,0,49,25,0,

14,3,0,55,24,0,

14,4,0,55,24,0,

14,3,0,55,24,0,

14,4,0,54,24,0,

14,4,0,54,24,0,

14,3,0,54,24,0,

14,4,0,53,24,0,

13,3,0,53,24,0,

13,3,0,53,24,0,

13,3,0,53,24,0,

13,3,0,52,24,0,

13,3,0,52,24,0,

13,3,0,52,24,0,

13,3,0,51,24,0,

14,3,0,51,23,0,

14,14,0,51,24,0,

14,18,0,51,23,0,

14,18,0,51,23,0,

14,19,0,51,23,0,

14,18,0,50,22,0,

14,18,0,50,22,0,

14,18,0,50,23,0,

14,18,0,49,22,0,

14,18,0,49,22,0,

14,18,0,49,22,0,

13,18,0,49,22,0,

14,17,0,49,22,0,

14,17,0,49,22,0,

14,17,0,49,21,0,

14,17,0,48,21,0,

14,17,0,48,21,0,

14,17,0,47,21,0,

14,17,0,48,21,0,

13,17,0,47,21,0,

13,17,0,47,21,0,

13,16,0,47,21,0,

14,17,0,46,21,0,

13,16,0,46,20,0,

13,16,0,87,20,0,

13,16,0,86,20,0,

13,15,0,85,20,0,

13,15,0,85,20,0,

13,15,0,84,20,0,

13,15,0,83,20,0,

13,15,0,83,20,0,

13,15,0,83,19,0,

12,16,0,83,19,0,

12,15,0,83,19,0,

12,15,0,82,19,0,

12,15,0,82,19,0,

12,15,0,81,19,0,

15,15,0,81,19,0,

36,15,0,80,19,0,

36,15,0,79,19,0,

35,14,0,79,19,0,

35,15,0,79,19,0,

35,14,0,79,19,0,

35,14,0,79,18,0,

35,14,0,78,18,0,

34,14,0,78,18,0,

34,14,0,78,18,0,

34,14,1,77,18,0,

34,14,0,77,18,0,

34,14,0,77,18,0,

35,14,0,76,19,0,

41,13,0,76,18,0,

42,14,0,76,18,0,

41,13,0,76,18,0,

41,13,0,75,17,0,

41,13,1,75,17,0,

41,13,0,74,17,0,

41,13,0,74,18,0,

41,13,0,73,17,0,

39,13,0,73,17,0,

39,13,0,73,17,0,

39,13,0,71,18,0,

39,13,0,71,17,0,

39,13,0,103,17,0,

39,13,0,108,17,0,

39,13,0,108,17,0,

39,12,0,107,16,0,

39,12,0,106,16,0,

39,12,0,105,16,0,

38,12,0,105,17,0,

38,12,0,103,17,0,

38,12,0,103,17,0,

38,12,0,103,17,0,

38,12,0,103,17,0,

37,12,0,103,17,0,

37,12,0,102,17,0,

37,12,0,101,17,0,

37,12,0,101,16,0,

36,11,0,101,16,0,

36,11,0,100,16,0,

36,11,0,99,16,0,

36,11,0,99,16,0,

35,11,0,99,16,0,

35,12,0,98,16,0,

35,11,0,98,16,0,

35,11,0,97,16,0,

35,11,0,97,16,0,

35,11,0,97,16,0,

35,11,0,97,16,0,

34,11,0,96,16,0,

34,11,0,96,16,0,

34,11,0,95,16,0,

34,10,0,95,16,0,

34,10,0,95,19,0,

33,10,0,94,27,0,

33,10,0,94,26,0,

33,10,0,93,26,0,

33,10,0,93,26,0,

33,10,0,93,25,0,

32,10,0,92,25,0,

32,10,0,92,25,0,

32,10,0,91,25,0,

31,10,0,91,25,0,

31,9,0,91,25,0,

31,9,0,90,25,0,

31,10,1,90,24,0,

31,9,0,89,25,0,

31,9,0,89,24,0,

31,10,0,89,24,0,

31,9,0,88,24,0,

31,9,0,88,24,0,

31,9,0,88,24,0,

31,9,0,88,24,0,

30,9,0,87,24,0,

30,9,0,87,24,0,

30,9,0,86,23,0,

30,9,0,89,24,0,

30,9,0,89,23,0,

30,9,0,88,23,0,

30,8,0,88,23,0,

29,9,0,88,23,0,

29,9,1,88,23,0,

29,9,0,88,23,0,

29,9,0,87,22,0,

29,9,0,86,22,0,

29,9,0,86,22,0,

29,8,0,85,22,0,

28,9,0,85,22,0,

28,9,0,85,21,0,

28,9,0,85,22,0,

28,9,0,85,21,0,

28,8,0,84,21,0,

28,8,0,84,21,0,

28,7,0,83,21,0,

28,7,0,83,21,0,

28,7,0,83,21,0,

27,7,0,83,21,0,

27,7,0,82,21,0,

27,7,0,82,21,0,

27,7,0,82,20,0,

27,7,0,82,20,0,

26,7,0,81,20,0,

26,7,0,81,20,0,

26,7,0,81,20,0,

31,7,0,80,19,0,

31,7,0,79,19,0,

31,7,0,79,19,0,

31,7,0,79,19,0,

31,7,0,79,19,0,

30,7,0,79,19,0,

30,7,0,78,19,0,

30,7,0,78,19,0,

30,7,0,78,19,0,

30,7,0,77,19,0,

30,7,0,77,19,0,

30,7,0,77,19,0,

30,7,0,79,19,0,

36,7,0,79,19,0,

39,7,0,79,18,0,

38,7,0,78,18,0,

38,7,0,78,18,0,

38,7,0,78,18,0,

38,7,0,78,18,0,

38,7,0,77,18,0,

37,7,0,77,18,0,

37,7,0,77,17,0,

37,7,0,77,18,0,

36,6,0,76,17,0,

37,6,0,76,17,0,

36,7,0,76,17,0,

36,6,0,75,17,0,

36,6,0,75,17,0,

35,7,0,75,17,0,

35,7,0,74,17,0,

35,6,0,74,17,0,

35,6,0,74,17,0,

35,7,0,73,17,0,

35,6,0,73,16,0,

35,6,0,73,16,0,

35,6,0,71,16,0,

34,6,0,71,16,0,

34,6,0,71,16,0,

34,6,0,71,16,0,

34,6,0,71,16,0,

34,6,0,71,16,0,

34,6,0,71,16,0,

33,6,0,71,15,0,

33,6,0,70,16,0,

33,6,0,70,15,0,

33,6,0,70,15,0,

33,6,0,70,15,0,

33,5,0,69,15,0,

33,6,0,69,15,0,

32,6,0,69,15,0,

32,6,0,68,15,0,

31,6,0,69,15,0,

31,5,0,68,15,0,

31,6,0,75,15,0,

31,6,0,75,15,0,

31,5,0,75,15,0,

31,5,0,75,14,0,

31,5,0,74,14,0,

31,5,0,74,14,0,

31,5,0,73,14,0,

31,5,0,73,19,0,

31,5,0,73,18,0,

30,5,0,71,18,0,

30,5,0,71,18,0,

30,5,0,71,18,0,

30,5,0,71,18,0,

30,5,0,71,18,0,

30,5,0,71,18,0,

29,5,0,71,18,0,

29,4,0,70,17,0,

29,5,0,70,17,0,

29,5,0,70,17,0,

29,5,0,69,17,0,

29,4,0,69,17,0,

29,5,0,69,17,0,

29,5,0,69,17,0,

28,4,0,68,17,0,

28,4,0,67,16,0,

28,5,0,67,17,0,

28,4,0,67,16,0,

28,4,0,67,16,0,

28,4,0,67,16,0,

28,4,0,67,16,0,

28,4,0,66,16,0,

29,4,0,66,16,0,

28,4,0,66,15,0,

28,4,0,65,15,0,

28,4,0,65,15,0,

28,4,0,65,15,0,

28,4,0,65,16,0,

27,4,0,65,15,0,

27,4,0,64,15,0,

27,4,0,63,15,0,

27,4,0,63,15,0,

27,3,0,63,15,0,

27,4,0,63,15,0,

27,4,0,63,15,0,

26,4,0,63,15,0,

26,4,0,63,15,0,

26,4,0,62,15,0,

26,4,0,62,14,0,

26,4,0,62,14,0,

26,4,0,62,15,0,

25,4,0,61,14,0,

25,3,0,61,15,0,

25,4,0,61,14,0,

25,3,0,61,14,1,

25,3,0,60,14,0,

25,3,0,60,14,0,

25,3,0,87,14,0,

25,3,0,121,14,0,

25,3,0,120,14,0,

24,3,0,119,14,0,

25,3,0,118,14,0,

24,3,0,117,14,0,

24,3,0,117,14,0,

24,3,0,117,14,1,

24,3,0,116,14,0,

24,3,0,115,14,0,

24,3,0,115,14,0,

24,3,0,114,13,0,

24,3,0,114,13,0,

24,3,0,114,13,0,

24,3,0,115,13,0,

23,3,0,115,13,0,

23,3,0,114,13,0,

23,3,0,114,13,0,

23,3,0,114,13,0,

22,3,0,113,13,0,

22,3,0,113,12,0,

22,3,0,112,13,0,

22,3,0,112,13,0,

22,3,0,111,12,0,

22,3,0,110,12,0,

22,3,0,110,12,0,

22,3,0,110,12,0,

22,3,0,109,12,0,

21,3,0,109,12,0,

22,3,0,108,12,0,

22,4,0,108,12,0,

22,4,0,108,12,0,

21,4,0,107,12,0,

21,4,0,106,12,0,

21,5,0,106,12,0,

21,5,1,106,12,0,

21,5,0,105,11,0,

20,4,0,105,12,0,

20,4,0,103,12,0,

21,4,0,103,11,0,

20,4,0,103,11,0,

20,4,0,103,11,0,

20,4,0,102,11,0,

20,5,0,102,11,0,

20,6,0,102,12,0,

20,7,0,101,12,0,

19,7,0,101,12,0,

20,6,0,100,12,0,

19,6,0,99,11,0,

19,6,0,99,11,0,

19,6,0,99,12,0,

19,6,0,99,12,0,

19,6,0,98,11,0,

25,6,0,98,12,0,

37,6,0,98,11,0,

37,6,0,97,11,0,

37,6,0,97,11,0,

37,6,0,96,11,0,

36,6,0,96,11,0,

35,6,0,96,11,0,

36,6,0,95,11,0,

35,5,0,95,31,0,

35,6,0,95,31,0,

35,6,0,95,30,0,

35,5,0,94,30,0,

35,5,0,94,30,0,

35,6,0,93,30,0,

35,6,0,93,29,0,

35,5,0,92,30,0,

35,6,0,92,30,0,

35,5,0,92,29,0,

35,5,0,91,29,0,

35,5,0,91,29,0,

34,5,0,91,29,0,

34,5,0,91,29,0,

34,5,0,90,28,0,

34,5,0,89,28,0,

34,5,0,89,28,0,

34,5,0,89,28,0,

33,5,0,89,28,0,

33,5,0,88,27,0,

33,5,0,88,27,0,

33,5,0,88,28,0,

32,5,0,88,27,0,

32,6,0,87,27,0,

32,7,0,87,27,0,

32,7,0,87,27,0,

31,7,0,86,27,0,

31,7,0,86,26,0,

31,7,0,85,26,0,

31,7,0,85,26,0,

31,7,0,85,26,0,

31,7,0,84,26,0,

31,7,0,84,26,0,

31,7,0,143,25,0,

31,7,0,141,26,0,

31,7,0,141,25,0,

30,7,0,140,25,0,

30,7,0,139,25,0,

30,7,0,138,25,0,

30,9,0,138,25,0,

30,9,0,137,25,0,

29,9,0,137,25,0,

30,9,0,135,24,0,

29,9,0,135,24,0,

29,9,0,135,24,0,

29,9,0,134,24,0,

29,9,0,133,24,0,

29,9,0,133,24,0,

29,9,0,132,24,0,

33,13,0,131,24,0,

32,13,0,131,23,0,

33,13,0,131,24,0,

32,12,0,130,24,0,

31,13,0,129,24,0,

31,12,0,129,23,0,

31,13,0,128,24,0,

31,12,0,127,23,0,

31,12,0,127,23,0,

31,13,0,127,23,0,

37,12,0,126,22,0,

53,14,0,125,23,0,

52,14,0,125,22,0,

52,13,0,124,22,0,

51,13,0,124,22,0,

51,13,0,123,27,0,

51,13,0,123,27,0,

51,14,0,122,27,0,

50,14,0,121,27,0,

50,14,0,121,26,0,

50,14,0,120,26,0,

49,14,0,120,25,0,

50,14,0,120,26,0,

49,14,0,119,26,0,

49,13,0,118,26,0,

49,13,0,118,25,0,

48,13,0,118,25,0,

48,17,0,117,25,0,

48,16,0,116,25,0,

48,16,0,116,25,0,

47,16,0,115,25,0,

47,16,0,115,25,0,

47,15,0,114,25,0,

47,15,0,114,24,0,

46,15,0,113,24,0,

47,15,0,113,24,0,

47,15,0,112,24,0,

47,15,0,112,24,0,

47,15,0,112,24,0,

46,15,0,111,24,0,

46,15,0,110,24,0,

46,15,0,110,25,1,

46,18,0,110,24,0,

45,18,0,109,24,0,

45,18,0,109,24,0,

45,18,0,108,24,0,

45,17,0,108,24,0,

44,17,1,108,24,0,

44,17,0,107,24,0,

44,17,0,107,24,0,

44,17,0,106,24,0,

44,16,0,105,24,0,

44,24,0,105,23,0,

43,25,0,105,23,0,

43,25,0,103,27,0,

43,25,0,103,26,0,

43,24,0,103,26,0,

42,24,0,103,26,0,

42,24,0,102,25,0,

42,24,0,102,25,0,

41,24,0,101,25,0,

41,24,0,101,25,0,

41,24,0,101,25,1,

41,24,1,100,25,0,

41,25,0,99,25,0,

39,25,0,99,25,0,

39,25,0,99,25,0,

39,25,0,99,24,0,

39,24,0,98,25,0,

39,24,0,98,24,0,

39,24,0,97,24,0,

39,24,0,97,24,0,

39,24,0,97,24,0,

39,24,0,96,24,0,

39,24,0,96,24,0,

38,24,0,96,24,0,

38,24,0,96,24,0,

38,24,0,95,23,0,

38,24,0,94,23,0,

38,24,0,94,23,0,

38,24,0,94,23,0,

37,23,0,93,23,0,

37,23,0,93,24,0,

37,23,0,92,34,0,

37,23,0,92,34,0,

37,23,0,92,34,0,

36,23,0,92,33,0,

36,22,0,91,33,0,

36,22,0,91,33,0,

36,22,0,90,33,0,

35,22,0,90,33,0,

35,22,0,90,32,0,

35,22,0,89,31,0,

35,22,0,89,32,0,

35,21,0,89,31,0,

35,21,0,89,31,0,

35,21,0,88,31,0,

35,21,0,88,31,0,

35,21,0,88,31,0,

45,31,0,87,31,0,

46,31,0,87,31,0,

46,31,0,87,30,0,

45,31,0,86,31,0,

45,31,0,86,30,0,

45,31,0,85,38,0,

44,31,0,85,46,0,

44,30,0,85,46,0,

44,30,0,84,46,0,

44,30,0,84,45,0,

44,30,0,83,45,0,

43,29,0,83,45,0,

43,30,0,83,44,0,

43,29,0,83,44,0,

43,29,0,83,44,0,

43,29,0,83,44,0,

42,29,0,83,43,0,

42,29,0,82,43,0,

42,29,0,82,43,0,

41,29,0,81,43,0,

41,30,1,81,42,0,

41,30,0,81,43,0,

41,29,0,80,57,0,

41,29,0,81,56,0,

41,29,0,80,56,0,

39,29,0,79,56,0,

39,29,0,79,55,0,

39,29,0,79,56,0,

42,32,0,79,55,0,

41,33,0,79,54,0,

41,33,0,78,54,0,

41,33,0,78,54,0,

41,32,0,78,53,0,

41,32,0,77,53,0,

39,32,0,77,53,1,

39,31,0,77,53,0,

39,31,0,76,52,0,

39,31,0,76,52,0,

39,31,0,76,52,0,

39,31,0,76,51,0,

39,31,0,75,51,0,

39,31,0,75,51,0,

39,30,0,75,51,0,

39,31,0,74,50,0,

39,31,0,74,51,0,

38,31,0,73,53,0,

38,31,0,73,53,0,

38,31,0,73,52,0,

38,31,0,73,52,0,

38,30,0,72,52,0,

38,31,1,72,52,0,

37,31,0,71,51,0,

37,30,0,71,51,0,

37,30,0,71,51,0,

38,30,0,71,51,0,

38,30,0,71,50,0,

38,29,0,71,50,0,

37,32,0,71,50,0,

37,58,0,70,49,0,

37,57,0,70,50,0,

37,57,0,70,49,0,

37,57,0,69,49,0,

36,56,0,69,49,0,

36,56,0,69,48,0,

36,56,0,68,49,0,

35,55,0,68,48,1,

35,55,0,68,48,0,

36,54,0,68,48,0,

42,55,0,67,48,0,

42,54,0,67,47,1,

41,54,0,67,47,0,

41,54,0,67,47,0,

41,53,0,66,47,0,

41,53,0,66,46,0,

41,53,0,66,46,0,

40,52,0,65,46,1,

39,52,0,65,46,0,

41,52,0,65,46,0,

54,52,0,65,45,0,

54,51,0,65,45,0,

53,51,0,65,45,0,

53,51,0,63,45,0,

52,51,0,63,45,0,

53,51,0,63,45,0,

52,51,0,63,44,0,

52,50,0,63,44,0,

51,50,0,63,44,0,

51,50,0,62,44,0,

51,50,0,62,43,0,

51,49,0,62,43,0,

51,49,0,62,43,0,

51,51,0,61,43,0,

50,62,0,77,43,0,

50,61,0,102,42,0,

50,93,0,101,42,0,

50,102,0,101,42,0,

49,101,0,100,42,0,

49,100,0,99,52,0,

49,100,0,99,52,0,

49,99,0,99,51,0,

48,99,0,98,51,0,

48,98,0,98,51,0,

48,97,1,97,51,1,

48,97,1,97,50,0,

47,99,0,97,50,0,

48,142,0,96,50,0,

56,172,0,96,50,0,

56,169,0,96,49,0,

56,167,0,95,49,0,

55,167,0,94,49,0,

55,167,0,94,48,0,

54,166,0,94,48,0,

54,165,0,93,48,0,

54,164,0,92,48,0,

54,163,0,92,48,0,

53,163,0,92,47,0,

53,161,0,92,47,0,

52,161,0,91,47,0,

52,159,0,91,47,0,

52,159,0,90,46,0,

52,158,0,90,46,0,

51,158,0,89,46,0,

51,157,0,89,45,0,

51,156,0,89,45,0,

51,156,0,88,45,0,

50,155,0,88,45,0,

50,154,0,88,45,0,

50,153,0,88,45,0,

50,152,0,87,44,0,

49,152,0,86,44,0,

51,152,0,86,44,0,

51,151,0,86,44,0,

51,150,0,85,44,0,

51,149,0,84,44,0,

50,149,1,84,43,0,

50,147,0,84,43,0,

49,147,0,83,43,0,

49,146,0,83,43,0,

49,146,0,83,42,0,

49,145,0,82,42,0,

48,144,1,82,41,0,

48,143,0,81,41,0,

48,143,0,81,41,0,

48,143,0,81,41,0,

48,142,0,80,41,0,

47,141,0,80,41,0,

47,141,0,79,41,0,

47,140,0,79,41,0,

47,139,0,79,41,1,

46,139,1,79,39,0,

46,138,0,78,39,0,

46,137,1,78,39,0,

46,137,0,78,39,0,

45,135,0,97,39,0,

45,135,0,134,39,0,

45,135,0,133,39,0,

45,134,0,132,39,0,

44,134,0,131,39,0,

44,133,0,130,39,0,

44,133,0,129,38,0,

44,132,0,129,38,0,

44,131,0,128,38,0,

43,131,0,127,38,0,

43,130,0,127,37,0,

43,129,0,126,37,0,

43,174,0,126,37,0,

43,172,0,125,37,0,

43,171,0,125,36,0,

42,170,0,124,36,0,

42,169,0,123,36,1,

41,167,0,123,35,0,

41,167,0,122,35,0,

41,167,0,121,35,0,

41,166,0,121,35,0,

41,165,0,121,35,0,

39,164,0,120,35,0,

39,163,0,119,35,0,

39,163,0,119,35,0,

41,162,1,118,34,0,

39,160,0,118,34,0,

41,159,0,117,34,0,

39,159,0,117,34,0,

39,158,0,116,33,0,

39,158,0,115,33,0,

39,157,0,115,34,0,

39,156,1,114,33,0,

39,155,0,114,33,0,

39,155,0,113,33,0,

39,154,0,113,33,0,

39,153,0,112,33,0,

39,152,0,112,32,0,

39,152,0,111,32,0,

38,151,0,111,31,0,

38,150,0,110,31,0,

38,149,0,109,31,0,

38,149,0,109,31,0,

38,148,0,109,31,0,

38,147,0,108,31,0,

37,146,0,108,31,1,

37,146,0,108,35,0,

37,145,0,107,35,0,

37,144,0,107,34,0,

36,143,0,106,34,0,

36,143,0,105,34,0,

36,142,0,105,33,0,

35,142,1,103,33,0,

35,141,0,103,42,0,

35,140,0,103,41,0,

35,140,0,103,41,0,

35,139,0,102,40,0,

35,138,0,102,39,0,

35,137,0,102,40,0,

34,137,1,101,39,0,

34,135,0,101,39,0,

34,135,0,100,39,0,

34,135,0,99,39,0,

34,135,1,99,39,0,

33,134,0,99,39,0,

33,134,0,98,39,1,

33,133,0,98,39,0,

33,133,0,98,83,0,

33,131,0,97,82,0,

33,131,0,97,81,0,

33,131,0,96,81,0,

32,130,0,96,80,0,

32,130,0,96,79,0,

31,129,0,96,79,0,

31,128,0,95,79,0,

31,127,0,94,78,0,

31,127,0,94,78,0,

31,127,0,94,78,0,

31,126,0,93,77,0,

31,125,0,93,77,0,

31,125,0,92,76,0,

31,124,0,92,76,0,

31,124,0,92,76,0,

30,123,0,92,75,0,

30,123,0,91,75,0,

30,123,0,92,75,0,

30,131,0,96,75,0,

30,131,0,95,74,0,

30,130,0,95,74,0,

29,130,0,94,73,0,

29,129,0,94,73,0,

29,128,0,93,73,0,

29,127,0,93,73,0,

29,127,0,93,73,0,

29,126,0,92,71,0,

29,126,0,92,71,0,

28,125,0,91,71,0,

28,124,0,91,71,0,

28,124,0,90,71,0,

28,124,0,90,70,0,

28,123,0,89,70,0,

28,122,0,89,70,0,

27,122,0,89,69,0,

27,121,0,88,69,0,

27,121,0,88,69,0,

27,147,0,88,68,0,

27,146,0,88,68,0,

27,145,0,87,67,0,

27,145,0,87,67,0,

27,144,0,86,67,0,

27,143,0,86,67,0,

26,143,0,86,66,0,

26,142,0,85,66,0,

26,141,0,85,65,1,

26,141,0,84,66,0,

25,140,0,84,65,0,

25,139,0,83,65,0,

25,139,0,83,64,0,

25,138,0,83,64,0,

25,149,0,83,63,0,

25,153,0,82,63,0,

25,152,0,82,63,0,

25,152,0,82,63,0,

25,151,0,81,62,0,

24,150,0,81,62,0,

24,149,0,80,62,0,

24,163,0,79,61,0,

24,161,0,80,126,0,

24,159,0,79,125,0,

24,159,0,79,124,0,

24,158,0,79,123,1,

23,157,0,79,122,0,

27,157,0,78,121,0,

28,156,0,78,121,0,

28,155,0,78,120,0,

28,154,0,77,120,0,

28,154,0,77,120,0,

33,153,0,77,118,0,

33,152,0,76,118,0,

32,152,0,76,117,0,

32,151,0,76,117,0,

32,150,0,75,116,0,

31,149,0,75,115,0,

31,149,0,75,115,0,

31,147,0,74,114,0,

31,147,0,74,114,0,

31,146,1,74,113,0,

31,145,0,73,113,0,

31,145,0,73,112,0,

31,143,0,73,112,0,

30,143,0,71,111,0,

30,143,1,71,111,0,

30,142,0,71,110,0,

30,141,0,71,109,0,

30,140,0,71,109,0,

29,140,0,71,109,0,

29,139,0,70,108,0,

29,139,0,70,108,0,

29,138,0,70,107,1,

29,137,0,69,106,0,

29,137,0,69,106,0,

28,135,0,69,105,0,

28,135,0,68,105,0,

28,135,0,68,104,0,

28,134,0,68,103,0,

28,134,0,67,103,0,

28,133,0,67,103,0,

27,155,0,67,103,0,

27,153,0,67,102,0,

27,153,0,67,102,0,

27,152,0,66,101,0,

27,151,0,66,100,0,

27,150,0,66,100,0,

27,149,0,65,99,0,

26,148,0,65,99,0,

26,148,0,65,99,0,

26,147,0,64,98,0,

26,146,0,64,98,0,

25,146,0,63,98,1,

26,145,0,63,97,0,

25,144,0,63,97,0,

25,143,0,63,96,0,

25,143,0,63,96,0,

43,142,0,63,96,0,

45,142,0,62,95,0,

45,141,0,62,94,0,

45,140,0,62,94,0,

44,140,0,62,94,0,

44,139,0,61,93,0,

44,139,0,61,93,0,

43,138,0,61,93,0,

43,137,0,60,92,0,

43,135,0,61,92,0,

43,135,0,60,91,0,

43,156,0,105,91,0,

43,155,0,176,90,0,

43,154,0,175,90,0,

42,153,0,173,89,0,

42,153,0,172,89,0,

41,152,0,171,89,0,

41,151,0,170,88,0,

41,150,0,169,88,0,

41,150,0,167,88,0,

41,149,0,167,87,0,

41,148,0,167,87,0,

39,147,0,166,86,0,

39,147,0,165,86,0,

93,146,0,164,85,0,

92,145,0,163,85,0,

92,144,0,163,85,0,

91,143,0,162,86,0,

90,143,0,161,86,0,

90,142,0,159,85,0,

89,142,0,159,85,0,

89,141,0,158,84,0,

89,140,0,158,84,0,

88,139,0,157,83,0,

88,139,0,156,83,0,

87,138,0,156,83,0,

86,137,0,155,83,0,

86,135,0,154,82,0,

86,135,0,153,82,0,

85,135,0,153,81,0,

85,135,0,152,81,0,

84,134,0,152,80,0,

84,134,0,150,80,0,

83,133,0,150,79,0,

83,132,0,150,79,0,

83,131,0,148,79,0,

82,131,0,148,79,0,

82,130,0,147,78,0,

81,130,0,146,78,0,

81,129,0,146,78,0,

80,129,0,145,77,0,

80,127,0,144,77,0,

79,127,0,143,77,0,

79,127,0,143,76,0,

79,156,0,142,76,0,

78,155,0,142,76,1,

78,154,0,141,75,0,

78,153,0,141,75,0,

77,152,0,140,75,0,

77,152,0,139,74,0,

77,151,0,139,73,0,

76,179,0,139,73,0,

76,178,0,137,73,0,

76,176,0,137,73,0,

75,176,0,135,73,0,

75,174,1,135,71,0,

74,174,0,135,71,0,

74,173,0,135,71,0,

73,172,0,134,71,0,

76,171,0,133,71,0,

76,170,0,133,71,0,

76,169,0,132,70,0,

76,168,0,131,70,0,

76,167,0,131,70,0,

75,167,0,131,69,0,

74,166,0,130,69,0,

74,165,0,129,69,0,

73,164,0,129,68,0,

73,163,0,127,68,0,

73,163,0,127,67,0,

73,162,0,127,67,0,

71,161,0,126,67,0,

71,160,0,126,67,0,

71,159,0,125,66,0,

71,195,0,125,66,0,

71,193,0,124,66,0,

70,192,0,124,66,0,

70,191,0,123,65,0,

70,190,1,123,65,0,

70,189,0,122,65,0,

69,188,0,121,64,0,

69,187,0,121,64,0,

68,185,0,121,63,0,

68,185,0,120,63,0,

68,184,0,120,63,0,

67,183,0,120,63,0,

67,182,0,118,62,0,

67,181,0,118,62,0,

66,180,0,118,62,0,

66,179,0,117,62,0,

66,179,0,117,61,0,

65,178,0,116,61,0,

65,177,0,115,61,0,

65,176,0,115,61,0,

64,175,0,115,60,0,

64,174,0,167,60,0,

63,174,0,167,60,0,

63,173,0,166,60,0,

63,172,0,165,59,0,

63,171,0,165,59,0,

62,170,0,163,59,0,

62,169,0,163,59,0,

62,167,0,162,58,0,

62,167,0,161,58,0,

62,167,1,160,57,0,

62,166,0,159,57,0,

61,165,0,159,57,0,

60,164,0,158,57,0,

60,163,0,157,56,0,

60,163,0,156,56,0,

60,162,0,156,56,0,

60,161,0,155,56,0,

60,161,0,155,56,0,

59,159,0,153,56,0,

59,159,0,153,55,0,

59,158,0,152,55,1,

58,158,1,152,54,0,

58,157,0,151,54,0,

57,156,0,151,54,0,

58,156,0,149,54,0,

57,155,0,149,54,0,

57,154,0,148,53,0,

57,153,0,147,53,0,

56,153,0,147,66,0,

56,152,0,146,77,0,

56,151,0,146,76,0,

56,150,0,144,76,0,

56,150,0,143,75,0,

55,149,0,143,75,0,

55,148,0,143,75,0,

55,147,0,142,74,0,

54,147,0,141,73,0,

54,146,0,141,73,0,

54,146,0,140,73,0,

53,145,0,139,73,0,

53,143,0,139,72,1,

53,206,0,139,71,0,

53,203,0,137,71,0,

52,202,0,137,71,0,

52,199,0,135,71,0,

52,199,0,135,70,0,

51,199,0,135,70,0,

51,197,0,135,69,0,

51,196,0,134,69,0,

51,195,0,133,69,0,

51,194,0,133,68,0,

50,193,0,132,68,0,

50,192,0,131,67,0,

50,192,0,131,67,0,

50,190,0,131,67,0,

50,189,0,130,66,0,

49,188,0,129,67,0,

49,188,0,129,66,0,

49,187,0,127,65,0,

48,185,0,127,65,0,

48,185,0,127,65,0,

48,184,0,127,65,0,

48,183,0,126,65,0,

52,182,0,126,64,0,

94,181,0,125,63,0,

92,180,0,124,63,0,

92,179,0,123,63,0,

91,179,1,123,63,0,

91,178,0,123,62,0,

90,177,0,122,62,0,

89,176,0,121,62,0,

89,176,0,121,62,0,

88,174,0,120,61,1,

88,173,0,120,61,0,

88,173,0,120,61,0,

88,172,0,120,106,0,

87,171,0,119,127,0,

86,170,0,118,126,0,

86,169,0,117,126,0,

85,167,0,117,125,0,

85,167,0,116,124,0,

85,167,0,116,124,0,

83,166,0,115,123,0,

83,165,0,115,122,0,

83,164,0,114,121,0,

83,163,0,114,121,0,

82,163,0,113,120,0,

82,162,0,113,120,0,

81,161,0,112,119,0,

81,160,0,112,118,0,

81,159,0,111,117,0,

79,159,0,111,117,0,

79,158,0,110,116,0,

79,157,0,110,115,0,

79,157,0,109,115,0,

78,156,0,109,115,0,

78,210,0,108,114,0,

77,207,0,108,113,0,

77,206,0,108,113,0,

77,205,0,107,112,0,

76,204,0,106,112,0,

76,203,0,106,111,0,

76,201,0,105,110,0,

75,199,0,105,110,0,

79,199,0,152,109,0,

79,199,0,236,110,0,

79,197,0,234,110,0,

78,196,0,231,109,0,

78,195,0,230,108,0,

77,194,1,229,135,0,

77,193,0,227,134,0,

76,192,0,226,134,0,

76,192,0,225,133,0,

76,190,1,224,131,0,

75,189,0,223,131,0,

75,188,0,222,131,1,

118,188,0,220,130,0,

116,186,0,219,129,0,

115,185,0,217,128,1,

115,184,0,217,127,0,

114,184,1,216,126,0,

113,182,1,214,126,0,

112,181,0,213,125,0,

112,180,0,212,125,0,

111,179,0,211,124,0,

110,178,0,210,123,0,

110,177,0,209,123,1,

110,177,0,207,122,0,

109,176,0,207,121,0,

109,175,1,206,120,0,

108,174,0,204,120,0,

108,173,0,204,126,1,

107,172,0,203,125,1,

106,171,0,201,124,0,

106,171,0,199,126,0,

105,169,0,199,126,0,

105,169,0,198,125,1,

103,167,0,197,124,1,

105,167,0,196,123,1,

105,166,1,195,123,0,

103,165,0,195,121,0,

103,164,0,193,121,0,

103,163,1,193,121,0,

102,162,0,192,120,0,

102,162,0,191,120,1,

101,161,0,190,119,1,

101,159,1,189,118,0,

100,159,0,188,117,0,

99,159,0,187,117,1,

99,158,0,187,116,1,

99,157,1,185,115,0,

98,156,1,185,115,0,

98,156,1,184,115,0,

97,155,0,183,114,0,

97,154,1,182,113,0,

96,153,1,181,113,1,

96,153,0,180,112,0,

96,152,0,179,112,0,

95,151,0,179,112,0,

94,151,0,178,111,1,

96,150,0,177,110,0,

95,149,1,176,110,0,

95,148,1,175,109,0,

94,148,1,175,108,1,

94,147,1,174,108,0,

93,146,1,173,108,1,

93,146,1,172,107,0,

92,145,1,172,106,1,

92,144,1,171,105,1,

91,143,1,170,105,0,

91,143,1,169,105,0,

90,142,1,167,103,1,

90,142,1,167,103,1,

90,141,1,167,103,0,

89,140,1,166,103,1,

89,140,1,166,102,1,

88,139,1,165,102,1,

88,138,1,163,101,1,

88,137,1,163,101,1,

87,137,1,162,101,1,

86,135,1,162,99,1,

86,135,1,161,99,1,

86,135,1,160,99,1,

85,135,1,159,98,0,

85,134,1,159,98,1,

85,133,1,158,97,0,

84,133,1,158,98,1,

84,132,1,157,97,1,

83,131,1,156,97,1,

83,131,1,155,105,1,

82,130,1,155,104,1,

82,130,1,154,103,1,

81,129,1,153,103,1,

81,129,1,153,103,1,

81,127,1,152,103,1,

81,127,1,152,102,1,

79,126,1,151,101,1,

79,126,1,150,101,1,

79,126,1,149,100,1,

79,125,1,149,99,1,

78,124,1,148,99,1,

78,124,1,147,99,1,

78,123,1,147,99,0,

77,123,1,146,99,1,

77,123,1,146,98,1,

77,122,1,145,98,0,

76,121,1,144,97,1,

76,121,1,143,96,1,

76,120,1,143,96,1,

75,120,1,143,96,1,

75,167,1,142,127,1,

74,166,1,142,126,1,

74,164,1,141,125,1,

74,163,1,140,124,1,

73,163,1,140,124,1,

73,161,1,139,123,1,

71,161,1,138,122,1,

71,159,1,137,121,1,

98,159,1,137,121,1,

97,158,1,135,120,0,

96,157,1,135,120,1,

96,157,1,135,120,1,

95,156,1,135,119,0,

94,155,1,134,118,1,

93,154,1,134,117,1,

93,153,1,133,117,0,

93,152,0,133,116,0,

92,152,1,132,115,1,

92,151,1,131,115,1,

