
26,71,15,44,24,15,

25,71,14,44,24,14,

25,71,15,44,24,15,

25,71,15,43,24,14,

26,70,14,43,24,15,

25,70,14,43,24,14,

25,70,15,43,24,14,

25,69,15,43,24,15,

25,69,14,42,24,15,

25,69,15,42,24,14,

25,68,14,43,24,15,

25,68,14,42,24,14,

25,67,14,42,24,14,

25,67,14,42,24,15,

24,67,15,42,24,14,

24,67,14,41,24,14,

25,67,14,41,23,14,

25,66,14,41,23,14,

25,66,14,41,23,15,

25,66,15,41,22,14,

25,65,15,39,23,14,

25,65,15,40,23,14,

24,66,15,41,23,14,

24,67,15,41,23,14,

24,66,14,39,23,14,

24,66,14,39,24,14,

24,66,15,39,23,14,

24,65,14,39,22,14,

23,65,15,39,23,15,

24,64,14,39,23,14,

24,64,15,39,24,14,

24,63,14,39,23,15,

24,64,15,39,24,14,

24,64,14,39,23,14,

23,64,15,39,24,15,

23,65,15,39,23,15,

23,64,14,39,23,15,

23,63,14,39,23,14,

24,63,15,38,23,14,

23,63,14,38,23,15,

24,63,14,38,24,15,

24,63,14,38,23,15,

23,63,14,38,22,15,

24,62,15,38,22,14,

23,62,14,37,22,14,

23,62,15,37,23,14,

24,62,14,37,22,14,

23,62,15,37,22,15,

22,61,14,36,22,15,

23,61,14,37,23,14,

23,61,15,37,22,14,

22,61,15,37,22,15,

23,61,15,36,22,14,

37,60,15,37,22,15,

37,60,15,36,22,15,

37,59,15,36,22,14,

37,60,14,36,22,15,

35,60,14,36,22,15,

35,59,14,36,22,14,

36,59,14,35,22,15,

36,59,15,35,22,14,

36,58,14,35,21,14,

35,57,14,35,21,15,

35,58,14,35,21,14,

35,57,14,35,20,14,

34,57,15,35,21,15,

35,57,15,35,22,15,

35,57,15,35,21,15,

35,57,14,34,21,14,

34,57,15,34,21,15,

34,57,15,34,21,15,

34,56,15,34,21,14,

34,56,14,34,21,15,

33,56,14,34,20,14,

34,56,15,34,20,15,

33,56,14,34,21,14,

34,55,14,34,22,14,

33,56,14,34,22,15,

33,56,14,33,22,15,

33,54,14,33,22,14,

34,54,15,33,21,15,

32,58,15,32,22,15,

33,60,14,33,21,14,

33,59,14,33,21,14,

32,59,14,32,21,14,

31,58,15,32,22,14,

32,58,14,33,21,14,

32,58,15,33,21,14,

31,57,15,31,21,15,

31,58,15,31,21,14,

31,57,15,31,21,14,

31,57,14,33,21,14,

31,57,15,39,21,15,

31,64,15,38,20,15,

31,63,15,38,20,15,

31,63,15,38,21,14,

31,63,14,37,20,15,

31,63,14,37,21,14,

30,63,15,38,20,14,

31,62,14,37,20,14,

30,62,15,37,20,15,

31,62,14,37,20,14,

30,62,14,37,19,14,

30,61,14,37,20,14,

30,61,14,36,21,14,

30,70,15,37,20,15,

30,71,15,36,20,15,

30,70,15,36,20,15,

30,69,14,35,20,15,

29,69,14,35,19,14,

30,68,14,35,19,14,

30,68,14,35,19,15,

29,67,15,35,20,15,

30,67,15,35,19,15,

29,67,14,35,19,15,

29,67,14,34,20,14,

28,66,15,34,19,14,

29,66,14,35,19,14,

28,67,14,34,19,15,

29,66,15,34,19,14,

28,65,14,34,19,15,

28,65,15,34,19,14,

29,64,14,34,19,14,

28,64,15,34,20,15,

28,64,15,34,21,14,

29,64,14,34,20,14,

28,63,14,33,20,14,

28,63,14,34,20,15,

27,63,14,33,20,15,

28,63,15,33,20,15,

27,63,14,33,20,14,

27,62,14,33,20,15,

27,63,15,32,20,15,

27,62,14,33,19,14,

27,62,15,33,19,14,

27,62,14,32,19,15,

28,62,14,33,19,15,

37,61,14,33,19,14,

37,60,15,31,19,14,

36,61,14,31,19,14,

37,61,14,31,19,15,

37,60,15,31,19,15,

36,61,15,31,19,15,

36,60,14,32,19,15,

36,60,14,31,19,15,

36,60,15,31,19,15,

35,59,15,31,19,14,

35,58,14,31,19,14,

35,59,15,31,19,14,

35,59,15,31,19,15,

35,58,15,31,20,14,

35,57,15,31,19,14,

35,59,14,31,19,15,

35,58,15,30,18,14,

34,57,14,31,18,15,

34,57,15,31,19,14,

34,57,14,30,18,15,

34,56,14,30,19,14,

34,56,14,30,19,14,

33,56,15,30,18,14,

35,56,14,29,19,15,

34,56,15,30,18,15,

33,55,14,30,19,14,

33,56,15,29,18,15,

33,56,14,29,19,15,

33,55,15,29,18,15,

32,54,15,28,18,15,

33,54,15,28,19,14,

33,55,15,29,19,15,

32,54,15,29,18,14,

31,54,14,28,20,14,

32,53,15,28,19,14,

33,54,14,29,19,14,

33,53,14,29,19,15,

33,53,15,30,19,14,

32,53,15,29,19,15,

33,53,14,29,19,14,

31,52,15,29,19,15,

32,53,14,29,19,14,

32,51,14,29,19,14,

31,51,14,28,20,14,

31,51,14,29,19,14,

31,51,15,28,19,15,

31,51,15,28,19,15,

31,51,14,29,19,15,

31,51,14,28,19,14,

31,51,14,29,19,14,

31,51,14,33,19,15,

31,51,14,35,19,15,

31,50,15,35,19,15,

31,51,14,35,19,14,

31,50,14,35,18,14,

30,50,15,35,18,14,

30,50,15,35,19,14,

30,49,14,35,19,15,

31,49,14,36,19,15,

30,49,14,37,19,14,

30,49,14,37,18,14,

30,49,14,37,19,14,

29,49,14,37,18,14,

29,49,14,36,19,14,

30,48,14,37,19,15,

29,49,14,36,18,14,

29,48,14,36,18,15,

29,48,14,36,18,15,

29,48,15,35,18,14,

29,48,14,36,17,15,

29,48,15,35,18,15,

28,47,14,35,18,14,

29,47,14,35,18,14,

28,48,14,35,17,14,

29,47,14,35,18,14,

29,47,14,34,18,14,

28,47,14,34,18,14,

38,47,15,35,19,15,

147,46,15,36,18,15,

224,46,15,35,18,15,

221,46,15,34,19,15,

220,45,14,34,18,14,

217,46,15,33,19,14,

216,45,15,34,18,15,

216,46,15,33,19,15,

214,45,15,34,19,14,

213,45,15,34,18,14,

211,44,15,34,19,14,

211,44,14,33,18,14,

209,44,14,33,18,14,

208,44,14,33,18,14,

207,44,14,33,18,14,

206,44,14,33,19,14,

205,44,14,33,18,15,

205,43,15,33,18,14,

203,43,14,33,18,15,

203,49,15,33,18,15,

201,48,15,33,18,14,

199,49,15,32,18,15,

199,48,14,31,18,14,

199,48,15,31,18,14,

197,48,14,31,18,14,

196,48,15,31,18,14,

195,48,14,31,18,15,

195,48,14,31,19,14,

194,47,15,31,18,14,

192,47,15,31,19,15,

192,47,15,31,18,15,

191,49,15,31,19,15,

190,49,14,31,18,14,

190,50,15,31,19,15,

189,49,15,31,19,15,

188,49,15,32,19,15,

188,49,15,32,18,15,

186,49,16,32,19,15,

185,49,15,32,19,16,

184,48,15,32,19,15,

184,48,15,31,19,15,

184,48,15,31,19,15,

182,47,15,31,19,15,

181,47,15,31,19,15,

180,47,15,31,19,15,

179,48,15,31,19,15,

179,47,15,31,19,15,

178,47,15,31,19,15,

177,46,16,31,19,15,

177,46,16,31,19,15,

176,46,15,30,19,15,

175,46,16,30,20,16,

175,96,16,31,19,16,

174,108,15,31,19,16,

172,107,16,30,19,15,

172,107,16,31,18,16,

171,105,15,29,19,15,

171,106,16,30,69,16,

170,103,16,29,68,16,

167,103,17,30,67,17,

167,103,17,30,67,15,

167,103,16,29,66,16,

166,102,17,29,67,17,

166,102,18,35,66,17,

165,102,17,35,66,17,

165,101,17,36,65,17,

163,101,17,35,64,16,

163,100,17,35,64,17,

162,99,17,35,63,17,

161,99,17,35,63,17,

160,99,18,34,65,17,

159,98,18,35,63,17,

159,98,18,34,63,17,

158,97,18,34,63,17,

158,97,18,37,63,18,

158,97,18,47,63,18,

156,97,18,47,62,17,

156,97,18,46,62,18,

155,96,18,46,62,18,

154,96,18,45,62,18,

154,96,18,46,62,18,

153,95,19,46,67,18,

152,95,18,45,69,18,

152,94,19,45,68,18,

152,93,18,45,68,19,

150,93,18,45,67,18,

150,92,18,45,67,18,

149,92,18,45,67,18,

149,92,19,44,67,19,

147,91,18,46,67,18,

147,92,19,46,66,18,

147,90,19,45,66,18,

146,91,18,45,65,18,

145,90,19,44,65,19,

144,89,18,44,65,18,

143,88,18,44,64,18,

143,88,18,44,63,18,

143,88,18,44,63,17,

142,88,18,44,63,18,

141,87,18,44,63,18,

140,86,18,44,62,17,

140,86,18,43,62,18,

139,85,18,43,61,17,

139,85,18,42,62,17,

139,85,18,42,69,17,

138,84,18,42,68,17,

137,84,18,43,68,17,

135,83,18,42,68,18,

136,83,18,42,67,18,

135,83,18,41,67,17,

135,82,17,41,67,17,

134,82,17,41,67,17,

134,82,17,41,66,17,

133,82,18,41,66,17,

133,82,17,41,65,17,

132,81,17,40,65,17,

131,81,17,40,64,18,

131,79,17,40,65,17,

131,79,18,39,65,17,

131,86,18,48,64,17,

129,90,17,51,63,17,

130,89,17,51,63,17,

127,89,17,50,62,17,

127,89,17,50,63,17,

127,89,18,49,62,17,

126,88,17,49,63,17,

126,87,16,49,62,17,

126,87,17,49,62,17,

125,86,17,48,62,17,

124,87,17,49,61,17,

125,86,17,51,65,17,

124,99,17,51,65,16,

124,98,17,50,63,17,

123,97,16,50,63,16,

122,97,17,50,74,17,

122,97,17,49,114,16,

121,96,17,50,113,17,

120,96,16,49,112,17,

120,94,17,49,112,17,

120,94,16,49,111,17,

119,94,17,49,111,16,

119,93,16,48,110,17,

119,93,17,48,109,17,

118,93,17,62,109,16,

117,92,17,62,108,16,

117,92,16,62,108,17,

116,91,16,61,107,16,

115,91,17,61,108,16,

115,91,16,61,107,16,

115,90,16,61,107,16,

114,89,16,60,106,16,

114,89,17,60,106,16,

113,89,17,60,103,15,

113,91,16,60,103,16,

112,90,17,59,103,17,

112,91,16,60,103,16,

112,90,16,59,103,17,

112,90,16,59,108,16,

111,89,16,58,108,16,

110,89,16,57,107,16,

110,88,16,57,106,16,

109,88,16,57,106,15,

108,88,16,57,105,17,

108,87,15,57,105,16,

108,86,16,56,103,15,

107,88,16,56,103,15,

107,86,16,56,103,16,

106,85,16,56,103,16,

108,85,16,56,103,16,

107,84,15,56,103,16,

107,84,16,55,103,15,

107,83,16,55,102,15,

106,83,17,55,102,16,

106,88,17,55,101,16,

105,102,16,54,101,15,

104,101,15,54,100,16,

103,100,16,53,100,15,

103,99,16,54,99,16,

103,99,16,53,99,15,

103,99,16,52,98,16,

103,98,16,53,99,16,

102,99,17,52,97,16,

102,97,15,52,97,16,

101,97,16,52,96,16,

101,97,15,52,96,15,

100,97,16,52,96,16,

100,96,16,51,96,15,

99,96,16,52,95,15,

99,95,16,51,94,16,

99,94,15,51,94,16,

99,94,16,51,94,17,

99,94,16,51,160,15,

99,93,15,50,158,15,

97,93,15,50,157,15,

97,92,16,51,156,15,

97,92,16,50,156,15,

97,91,15,50,154,15,

96,91,15,49,154,15,

97,92,16,49,153,15,

115,90,15,49,152,15,

114,89,15,49,152,15,

114,89,16,49,151,16,

112,89,15,48,150,15,

112,88,15,48,150,15,

111,88,16,49,148,15,

111,88,16,48,147,15,

111,88,15,48,147,15,

110,88,16,48,146,16,

110,88,16,47,145,15,

109,88,16,47,145,15,

109,87,16,48,143,16,

108,86,16,48,143,16,

108,86,15,47,142,15,

107,86,16,46,142,15,

106,85,15,45,141,15,

105,84,16,46,140,15,

105,84,15,46,140,15,

105,102,16,46,140,16,

103,179,16,45,138,15,

103,176,15,45,138,15,

103,175,16,45,137,15,

103,174,15,45,137,16,

103,173,16,45,135,15,

110,172,15,45,135,15,

109,171,15,45,134,15,

109,170,15,44,134,15,

108,169,16,44,134,15,

107,167,16,44,133,15,

107,167,16,43,131,15,

107,166,15,44,132,15,

106,165,16,52,131,15,

106,164,15,51,130,16,

105,163,15,51,129,15,

103,163,15,51,129,15,

103,162,15,51,127,16,

103,161,15,51,127,15,

103,161,15,51,127,15,

102,159,15,50,127,16,

102,158,15,49,126,15,

102,158,15,49,125,15,

101,157,15,49,124,16,

101,156,15,49,124,15,

100,155,15,48,124,15,

100,154,15,49,123,15,

99,154,15,48,122,15,

99,153,15,48,121,15,

99,152,16,48,121,14,

98,151,15,48,121,15,

97,151,15,48,120,14,

97,150,15,48,119,15,

96,149,15,48,119,15,

96,148,15,47,118,15,

96,148,15,48,118,15,

96,147,15,47,117,16,

96,146,16,48,117,15,

95,146,16,47,116,15,

94,145,16,47,117,15,

144,144,15,48,115,15,

143,144,15,48,115,15,

142,180,15,48,114,15,

140,178,15,48,113,15,

140,177,15,47,113,15,

139,177,15,48,113,15,

139,175,15,47,112,15,

139,176,15,47,124,15,

137,174,15,46,122,15,

135,172,15,46,121,15,

135,172,16,46,121,15,

135,171,15,46,121,15,

135,169,15,45,119,15,

134,169,15,45,119,15,

132,167,15,45,119,15,

132,167,15,45,118,15,

131,166,15,45,117,15,

131,165,15,44,116,15,

130,164,15,44,116,15,

129,163,15,45,115,15,

129,163,16,44,115,15,

128,162,15,45,114,15,

127,161,15,43,114,15,

127,159,15,43,113,15,

127,159,15,43,112,15,

126,158,15,58,112,15,

125,158,15,58,111,15,

124,157,15,57,111,15,

125,156,15,57,111,15,

124,155,15,57,110,15,

124,155,15,56,110,15,

123,153,15,57,109,15,

122,153,14,56,108,15,

121,152,15,56,108,15,

121,151,15,56,107,15,

120,151,15,56,107,15,

120,150,15,55,106,15,

120,149,16,55,137,15,

121,149,15,55,214,15,

120,147,15,54,211,15,

120,147,14,54,209,15,

119,146,15,54,207,15,

118,146,15,53,207,15,

117,145,15,53,206,15,

117,143,15,53,205,16,

117,143,14,53,204,15,

115,143,15,52,203,15,

116,142,15,52,201,15,

115,141,15,51,199,14,

115,141,14,52,199,15,

114,140,15,51,198,15,

113,139,15,51,196,15,

113,139,15,50,195,15,

112,137,15,51,195,14,

133,137,15,50,193,15,

131,135,15,50,192,14,

131,135,15,50,192,15,

130,135,15,49,190,15,

130,135,15,49,190,14,

129,134,15,49,189,15,

127,134,15,49,188,15,

127,133,14,48,187,15,

127,132,15,48,186,15,

126,131,15,48,185,15,

126,130,15,48,184,15,

125,130,15,48,183,14,

124,129,15,48,182,14,

124,129,15,48,181,14,

124,128,14,47,179,15,

122,128,15,47,179,16,

122,127,15,63,178,15,

121,127,14,62,177,15,

120,126,15,62,176,15,

121,131,15,63,177,15,

120,195,15,61,175,15,

120,195,14,61,238,15,

119,193,15,61,236,15,

118,192,15,61,235,15,

117,190,15,61,231,15,

117,190,15,61,231,15,

116,188,15,60,230,15,

117,188,16,60,291,15,

115,187,15,60,292,15,

115,185,16,59,290,15,

114,185,15,59,287,15,

114,184,15,59,286,15,

113,183,15,59,284,15,

113,181,15,58,283,15,

112,180,15,58,281,15,

111,179,15,58,280,15,

112,179,15,58,278,16,

111,177,15,60,277,15,

110,177,15,83,275,15,

110,176,16,82,273,16,

110,174,16,82,271,15,

109,174,16,81,270,16,

108,173,16,81,269,16,

108,172,15,80,267,15,

107,171,16,79,265,15,

107,170,16,79,264,16,

107,170,16,79,263,15,

105,167,16,78,261,15,

105,168,17,79,260,15,

105,167,15,78,259,15,

103,166,17,78,257,15,

103,165,15,77,255,15,

103,164,15,76,254,15,

103,163,16,77,253,16,

103,163,17,76,252,17,

103,163,16,76,251,16,

103,162,16,76,249,16,

102,161,17,75,248,17,

102,159,16,75,247,17,

101,159,17,74,246,17,

100,159,17,75,245,17,

100,158,17,74,243,17,

99,157,17,74,242,17,

99,156,17,73,240,18,

99,156,18,73,239,17,

98,155,18,72,238,17,

98,154,18,73,237,18,

97,154,19,71,237,18,

99,153,18,71,235,18,

99,152,19,71,233,18,

98,152,19,71,233,18,

98,152,18,71,231,18,

97,151,19,71,230,18,

96,151,19,70,229,18,

96,149,18,70,228,19,

96,149,19,70,227,19,

95,147,19,69,226,19,

95,147,19,68,225,19,

133,147,19,69,224,19,

131,146,19,68,223,19,

130,145,20,69,222,19,

130,145,19,69,221,19,

129,143,19,67,220,19,

127,143,20,67,218,19,

127,142,19,67,217,19,

126,141,19,66,216,19,

126,141,19,66,214,20,

125,140,19,66,214,19,

124,140,19,65,212,19,

123,138,19,66,211,19,

123,137,19,65,211,19,

123,137,18,70,209,19,

121,135,19,70,209,19,

122,135,19,69,207,19,

121,135,19,69,207,19,

121,135,19,69,205,18,

120,134,19,69,205,18,

119,133,19,68,204,19,

120,132,19,67,203,19,

158,133,19,68,201,18,

179,131,18,67,201,19,

179,131,19,67,199,19,

177,130,18,67,199,19,

177,129,18,66,198,18,

176,129,18,66,197,19,

175,127,19,66,196,18,

173,127,19,65,195,18,

173,127,18,65,194,18,

172,126,18,65,193,18,

171,126,18,64,193,18,

170,126,18,65,192,18,

169,125,18,64,191,18,

167,124,19,63,190,18,

167,123,18,63,189,19,

166,123,18,63,188,18,

165,123,18,63,187,18,

164,122,18,63,186,17,

164,121,18,62,185,18,

163,121,18,62,184,18,

162,120,18,62,184,18,

161,120,18,61,183,18,

160,120,17,61,182,18,

159,118,17,61,181,17,

159,118,18,61,181,18,

159,118,18,61,179,17,

163,118,18,61,179,18,

164,116,18,60,178,17,

163,116,17,60,177,18,

163,115,17,59,176,18,

161,115,18,59,176,18,

161,114,17,59,175,18,

159,114,18,58,174,18,

159,113,17,59,173,17,

158,114,17,59,172,17,

158,113,17,58,172,18,

156,112,17,57,171,17,

156,112,17,57,171,18,

155,112,17,57,169,17,

154,112,18,56,167,17,

153,110,17,57,167,17,

153,110,17,56,167,17,

152,109,17,56,166,17,

152,109,17,56,166,18,

151,131,17,56,165,17,

150,131,17,56,164,17,

149,130,17,55,163,17,

148,129,17,55,163,17,

147,129,17,55,162,17,

147,127,17,55,161,17,

146,127,17,54,160,17,

145,126,17,54,159,17,

145,126,17,54,159,16,

144,125,17,54,158,17,

143,124,17,54,157,17,

147,125,17,53,157,16,

147,124,17,53,156,17,

146,124,16,53,156,16,

145,123,16,52,155,17,

144,122,17,53,155,17,

143,121,17,51,154,16,

143,121,16,52,153,16,

143,120,17,51,152,17,

141,119,17,51,152,17,

141,119,17,51,151,16,

140,119,16,51,150,17,

140,118,16,51,150,17,

139,117,16,50,149,16,

138,117,16,51,149,16,

137,116,17,50,147,17,

137,115,16,49,147,17,

137,115,16,49,147,17,

135,114,17,50,146,16,

135,114,17,50,145,16,

135,113,16,49,143,15,

133,112,16,49,143,15,

132,112,16,49,143,16,

132,111,15,49,142,15,

131,111,15,48,141,16,

131,110,15,49,141,15,

130,110,15,48,141,15,

129,109,15,48,140,16,

129,109,16,48,139,16,

128,108,16,48,138,15,

127,108,15,47,137,15,

127,107,15,47,137,15,

126,107,15,47,137,15,

126,105,15,46,136,15,

125,105,16,47,135,15,

125,103,16,46,135,15,

159,103,15,47,135,16,

156,103,15,46,134,16,

156,103,15,46,133,15,

154,103,15,46,132,15,

154,103,15,45,132,15,

153,103,15,45,131,15,

152,102,15,45,131,16,

152,101,15,44,131,16,

151,101,15,44,130,15,

150,101,15,45,129,16,

149,100,15,44,129,15,

148,99,16,44,128,15,

147,99,15,44,127,16,

147,99,15,43,127,15,

146,98,15,44,127,15,

146,98,15,44,126,15,

145,98,15,43,125,15,

143,97,16,43,125,15,

143,97,15,43,124,15,

143,96,15,42,124,15,

142,96,15,43,124,15,

141,96,16,42,123,15,

140,95,15,42,123,15,

140,95,15,42,122,15,

140,95,16,41,122,15,

138,94,15,42,121,15,

139,94,15,42,121,15,

137,99,15,42,120,15,

135,98,15,41,120,15,

135,98,15,40,120,15,

135,97,15,41,119,15,

135,97,15,39,118,16,

134,96,16,40,118,15,

134,96,16,41,117,15,

132,96,15,41,117,15,

131,95,15,40,115,16,

131,95,15,39,116,15,

131,94,16,39,116,15,

130,93,15,39,115,15,

130,93,15,39,115,15,

129,93,15,39,114,15,

128,93,15,39,114,15,

128,92,15,39,113,15,

127,92,15,39,112,15,

127,91,15,39,135,15,

126,91,15,39,164,15,

126,91,15,38,163,15,

125,93,15,39,162,16,

124,94,15,38,161,14,

124,93,15,39,159,15,

123,93,15,38,159,15,

123,93,15,37,159,14,

122,92,15,38,158,15,

121,91,15,37,157,15,

121,91,15,38,157,15,

120,91,15,38,156,15,

120,90,15,37,154,15,

129,91,15,38,154,15,

167,90,16,36,153,15,

165,89,15,37,152,15,

164,89,15,36,152,15,

163,88,15,37,152,15,

162,88,15,36,150,15,

161,88,14,36,150,14,

161,88,15,35,147,15,

159,87,15,36,147,15,

159,87,15,35,147,15,

158,86,15,35,146,14,

157,86,15,36,146,15,

157,135,15,35,145,15,

155,135,15,35,145,15,

155,134,15,35,146,15,

155,133,15,35,149,15,

153,132,15,34,148,15,

152,131,14,35,147,15,

152,131,14,35,147,15,

152,130,15,34,147,15,

150,129,15,34,152,15,

150,128,15,34,150,15,

149,128,15,34,150,14,

147,127,15,33,148,15,

147,126,15,33,148,16,

146,126,15,33,147,14,

145,125,15,33,146,15,

145,125,15,33,145,14,

143,125,15,53,148,15,

143,123,15,61,151,15,

143,123,15,61,150,15,

142,123,15,61,149,15,

142,121,15,61,149,15,

140,121,15,60,150,15,

140,120,15,60,149,15,

139,120,15,59,148,15,

139,120,15,60,147,15,

137,118,15,59,146,15,

137,118,15,58,146,15,

137,118,15,58,145,15,

135,117,15,58,144,15,

135,117,15,58,143,15,

135,115,15,57,143,15,

135,115,14,57,142,15,

133,115,15,57,141,15,

133,114,15,57,140,15,

132,114,14,56,140,15,

131,113,15,56,140,15,

130,112,15,56,139,15,

130,112,15,55,138,14,

129,112,15,56,137,15,

129,111,15,56,135,15,

129,111,14,56,135,15,

127,110,15,56,135,15,

127,110,15,56,135,15,

126,108,15,55,134,15,

127,110,16,115,195,15,

126,107,14,116,195,15,

124,107,15,115,193,15,

124,107,15,115,192,15,

123,106,14,114,191,15,

123,106,15,113,189,15,

123,105,15,113,189,15,

122,123,15,112,188,15,

121,121,15,112,187,15,

121,121,15,112,252,15,

120,120,15,110,268,14,

120,119,15,110,266,15,

119,119,14,109,263,15,

118,118,15,108,263,15,

118,117,15,108,261,15,

117,117,15,107,259,15,

116,115,15,107,257,14,

116,115,14,106,255,15,

115,115,15,106,254,15,

115,115,15,105,253,15,

114,113,15,103,252,14,

114,113,15,103,249,15,

113,113,14,103,249,15,

113,111,15,102,248,15,

112,111,15,102,246,15,

111,110,15,102,244,15,

111,110,15,102,243,15,

112,118,14,101,241,14,

112,116,15,101,240,14,

111,116,14,99,239,14,

110,115,15,100,237,15,

110,114,15,99,236,15,

110,114,15,99,235,15,

109,113,14,98,233,15,

108,112,15,98,233,15,

108,112,14,97,231,15,

107,112,14,97,230,16,

107,112,15,97,229,15,

106,110,14,96,227,15,

105,110,15,96,238,15,

106,110,15,96,241,15,

105,109,15,95,240,15,

113,109,15,94,239,15,

112,108,14,93,237,15,

112,108,15,93,236,14,

112,107,15,93,234,15,

111,107,15,92,233,15,

111,106,15,97,231,15,

110,105,15,96,231,15,

109,103,15,95,230,15,

108,103,15,95,227,15,

108,103,16,94,227,15,

108,103,15,94,227,15,

108,103,15,94,225,15,

108,103,15,93,224,16,

106,102,16,93,224,15,

106,102,16,92,222,16,

106,102,16,92,220,16,

105,101,15,92,220,16,

105,101,16,91,218,15,

104,99,15,91,217,16,

103,99,16,90,216,15,

103,99,15,89,230,15,

103,99,15,89,228,15,

102,98,16,89,227,15,

102,98,15,89,226,15,

102,97,16,88,225,15,

101,97,16,88,223,15,

101,100,15,88,222,15,

100,99,15,88,221,15,

99,99,15,87,220,15,

99,98,15,87,219,15,

99,98,15,86,218,16,

99,98,15,86,217,16,

98,97,15,85,216,15,

98,96,15,85,215,16,

97,96,15,84,214,15,

97,96,15,85,213,15,

97,96,15,84,211,15,

96,96,15,84,210,15,

96,95,16,83,210,15,

95,94,15,83,209,15,

95,94,15,83,207,15,

95,94,16,82,207,15,

95,93,15,82,206,15,

94,93,15,82,205,15,

93,93,15,82,204,15,

93,92,15,81,204,15,

92,92,15,80,203,15,

92,92,15,80,202,15,

92,91,15,80,201,15,

91,91,15,80,199,15,

92,90,15,79,199,16,

91,89,15,79,198,16,

90,90,16,79,197,16,

91,89,15,79,196,15,

90,89,15,78,195,15,

89,88,15,78,195,15,

89,88,15,77,194,15,

89,88,15,78,193,15,

89,88,15,78,192,16,

88,87,15,77,192,15,

88,87,15,76,191,16,

88,86,16,76,190,15,

88,86,15,76,189,15,

88,85,16,75,188,16,

86,85,16,76,188,15,

86,85,15,75,186,15,

86,85,15,74,185,15,

86,84,15,75,185,15,

85,84,15,74,184,15,

85,83,15,73,184,15,

85,83,16,73,183,15,

85,83,15,73,182,16,

85,82,15,72,181,15,

84,82,15,71,181,15,

83,82,15,73,179,16,

84,81,16,71,178,15,

83,81,15,71,178,15,

82,80,15,71,177,15,

82,80,15,71,177,16,

83,81,15,71,175,16,

82,80,15,71,176,16,

81,80,15,70,175,15,

81,79,15,70,173,15,

81,79,15,70,173,16,

81,79,15,70,172,16,

80,79,16,69,171,15,

79,78,15,69,171,16,

79,78,15,69,170,16,

135,78,16,69,169,15,

160,77,15,69,167,16,

159,77,16,68,167,16,

159,81,15,68,167,16,

157,79,15,68,166,15,

156,79,16,67,165,16,

156,79,15,66,165,15,

154,79,15,67,163,15,

154,79,15,66,163,15,

153,78,15,66,163,15,

152,78,15,66,162,15,

151,77,15,65,161,15,

150,77,15,65,159,15,

149,77,15,64,159,14,

149,76,15,64,159,15,

147,75,14,63,158,15,

147,75,15,63,157,15,

146,75,15,63,157,15,

145,75,15,63,156,15,

145,75,15,62,155,15,

143,73,14,62,155,15,

143,74,14,62,154,14,

143,73,15,63,153,15,

142,73,15,62,152,15,

142,71,15,62,152,15,

141,73,15,61,152,15,

140,71,15,61,151,15,

140,71,15,61,150,15,

139,71,14,61,149,15,

138,71,15,61,148,15,

138,71,14,60,148,14,

137,71,15,60,147,15,

135,70,15,59,147,15,

135,70,15,60,146,15,

135,70,15,59,145,15,

135,70,15,59,145,15,

134,69,14,59,145,15,

134,103,15,58,143,15,

133,100,15,58,143,15,

131,100,15,58,142,15,

131,99,15,58,142,15,

131,99,14,57,142,15,

131,99,15,57,141,15,

129,98,15,57,140,15,

129,98,15,57,140,15,

137,97,15,57,139,15,

135,96,15,56,138,15,

135,96,15,56,138,15,

135,96,15,56,137,14,

135,96,14,56,135,15,

134,96,15,56,135,15,

133,95,15,56,135,15,

132,94,15,56,135,15,

131,94,15,55,135,15,

131,93,15,55,134,15,

130,93,15,55,133,15,

130,92,15,54,133,15,

129,92,15,54,132,15,

129,94,15,54,131,15,

128,93,15,54,131,15,

127,93,15,53,131,15,

126,92,15,53,130,15,

126,92,15,52,130,15,

126,92,15,53,129,15,

125,91,15,53,128,15,

125,90,15,52,127,15,

124,90,15,53,127,15,

124,89,14,51,127,15,

123,89,14,51,126,15,

122,88,14,51,126,14,

121,88,15,51,125,15,

121,88,15,51,125,15,

121,88,14,51,124,15,

120,87,15,50,124,15,

120,88,15,50,124,15,

120,87,15,50,123,15,

118,86,15,50,122,15,

118,85,15,50,121,14,

118,85,15,50,121,15,

116,88,15,50,121,15,

116,88,15,50,120,14,

115,88,15,50,120,15,

115,88,15,49,120,15,

115,87,15,49,119,15,

114,86,15,49,118,15,

114,85,15,48,118,15,

113,85,15,48,118,15,

112,85,14,48,116,15,

112,84,15,48,117,15,

112,84,15,48,116,15,

111,84,15,48,115,15,

111,83,15,48,115,15,

110,83,15,48,115,15,

110,83,15,46,114,15,

109,82,15,47,113,14,

109,82,15,47,113,15,

109,81,15,46,113,15,

107,81,15,46,112,14,

108,81,14,46,112,15,

107,83,15,46,112,15,

107,112,15,46,111,14,

105,112,15,46,111,15,

105,111,15,45,111,15,

133,110,15,45,110,15,

131,110,15,45,109,15,

130,109,15,45,109,14,

129,108,15,45,108,14,

129,108,15,44,108,15,

127,108,15,44,107,14,

127,107,15,43,107,15,

127,105,15,44,107,15,

126,105,15,44,106,15,

125,105,14,43,106,15,

125,104,14,43,106,15,

124,103,15,44,103,15,

123,103,15,43,103,15,

123,103,14,43,104,15,

122,102,15,42,103,15,

121,102,15,43,103,15,

120,101,15,42,102,15,

120,101,15,42,102,15,

120,103,15,43,102,15,

120,103,15,42,101,15,

131,103,15,42,101,14,

139,102,15,41,100,14,

138,102,15,41,100,15,

137,101,15,40,99,15,

135,101,15,40,99,15,

135,99,15,40,99,15,

135,99,15,40,99,15,

135,115,15,41,99,15,

134,152,15,39,98,14,

133,151,14,39,97,15,

133,149,14,39,97,15,

132,149,15,39,96,15,

131,147,15,39,96,14,

130,147,15,39,95,14,

130,146,16,40,132,15,

129,145,15,39,146,15,

128,143,15,39,145,15,

128,143,15,39,143,14,

127,143,15,39,143,15,

127,142,14,39,142,15,

126,141,14,39,142,14,

126,141,15,38,141,15,

125,140,15,39,140,15,

124,139,15,38,140,14,

124,139,15,38,139,15,

123,138,15,38,139,14,

122,137,15,37,137,15,

122,137,15,38,137,15,

121,135,15,38,135,15,

121,135,15,37,135,15,

120,134,15,38,134,15,

119,134,15,37,133,15,

119,133,14,37,133,14,

119,132,15,36,133,15,

118,131,15,37,132,14,

117,131,15,36,131,15,

117,131,15,37,131,15,

115,130,14,36,130,15,

115,129,15,36,129,14,

115,129,15,36,129,15,

149,127,15,35,127,15,

147,127,15,35,127,15,

147,127,14,36,126,15,

146,125,15,35,126,15,

145,125,15,35,125,15,

144,125,15,35,125,15,

143,124,15,35,124,15,

143,124,15,35,124,14,

142,123,15,34,123,15,

141,122,15,34,122,15,

140,121,14,35,121,14,

140,121,15,34,121,15,

139,120,15,35,120,15,

140,120,15,35,120,15,

140,119,14,34,119,15,

139,119,15,34,119,15,

138,119,15,34,119,15,

137,118,15,39,118,15,

135,117,15,39,117,15,

135,122,15,39,117,14,

135,147,15,39,115,15,

135,147,14,39,115,15,

134,146,15,39,115,15,

133,145,15,38,114,14,

132,143,15,38,114,15,

131,143,15,38,113,15,

131,143,14,38,112,14,

131,142,15,38,112,15,

130,141,15,37,114,15,

129,141,14,37,115,14,

129,141,14,36,114,14,

128,139,14,37,114,15,

127,138,15,37,113,15,

127,137,15,37,113,15,

126,135,15,36,112,15,

126,136,15,37,112,14,

125,135,14,35,111,15,

124,135,14,35,110,15,

123,134,15,36,110,15,

123,133,15,35,109,15,

123,132,15,35,109,15,

121,131,15,35,108,15,

144,143,14,35,108,14,

143,142,15,35,107,15,

142,142,15,35,107,15,

141,141,15,34,106,15,

140,140,15,34,105,14,

140,139,15,34,105,15,

139,139,15,34,103,14,

138,137,15,33,103,15,

137,137,15,34,103,14,

137,135,14,34,103,14,

135,135,14,34,103,14,

135,135,14,33,102,15,

135,134,15,33,101,15,

134,134,15,33,102,15,

213,134,16,33,101,14,

231,132,15,32,100,14,

229,132,15,33,100,15,

227,131,15,32,99,15,

226,130,15,32,98,15,

225,129,15,34,99,15,

223,129,14,34,98,15,

222,129,14,33,97,15,

221,127,15,33,97,15,

220,127,15,34,97,15,

219,126,15,33,96,15,

217,126,15,33,96,14,

217,125,15,32,96,15,

216,124,15,34,96,15,

214,124,15,34,95,15,

213,131,15,33,95,14,

212,130,15,33,94,14,

211,130,15,32,93,14,

210,128,15,32,93,15,

208,129,15,32,93,15,

207,127,15,33,92,14,

206,127,15,32,93,14,

206,126,15,33,92,15,

204,126,15,31,92,15,

203,125,15,32,91,14,

202,124,15,31,91,15,

201,124,15,31,91,15,

201,123,15,32,90,15,

199,122,15,31,90,15,

198,122,15,31,89,15,

198,121,15,32,89,15,

197,120,15,31,89,15,

195,120,15,31,89,14,

195,120,14,31,88,15,

194,119,15,31,88,15,

193,119,15,31,88,14,

192,118,15,31,88,15,

193,119,16,83,88,15,

190,118,15,83,88,15,

190,117,15,82,87,15,

189,117,15,82,86,15,

188,116,15,81,86,15,

187,115,15,81,86,15,

186,115,16,79,85,15,

185,114,15,80,85,16,

185,114,15,79,84,15,

184,113,15,79,85,15,

183,113,15,79,85,15,

182,113,15,79,83,15,

181,113,15,78,83,15,

180,112,15,78,83,15,

179,111,15,78,83,15,

178,111,15,77,83,16,

178,111,15,77,82,15,

177,110,15,76,81,15,

176,109,15,76,82,15,

175,109,15,75,82,15,

210,109,16,75,81,16,

207,108,16,75,81,15,

207,158,16,75,81,15,

206,159,16,74,80,15,

204,158,15,74,79,15,

204,156,15,73,79,15,

202,156,16,74,79,15,

201,156,15,73,79,16,

199,154,15,72,79,16,

199,154,16,73,100,15,

198,152,15,72,99,15,

197,152,15,71,99,15,

196,151,15,71,99,16,

195,150,16,71,98,15,

194,150,16,71,97,15,

193,149,15,70,97,15,

192,148,15,70,97,15,

192,147,15,70,99,15,

190,147,15,69,127,16,

189,146,15,70,126,16,

189,145,15,69,125,15,

187,144,16,69,125,16,

186,144,16,70,124,16,

185,143,15,69,123,16,

184,142,16,69,123,15,

184,141,16,69,121,16,

183,141,15,69,121,15,

182,140,16,68,121,16,

181,139,15,68,120,15,

179,138,15,68,120,16,

178,138,16,67,120,15,

178,137,15,67,118,17,

178,137,15,83,118,16,

176,136,15,83,117,15,

176,135,15,82,115,16,

174,135,16,82,115,15,

174,134,16,81,115,15,

173,133,15,81,115,16,

172,132,15,80,114,16,

171,132,15,80,113,16,

170,131,15,80,112,15,

169,131,15,80,112,16,

169,130,15,79,112,15,

167,129,16,78,111,15,

167,128,15,78,111,16,

167,128,16,78,112,15,

166,127,15,78,111,16,

165,127,15,77,110,16,

164,127,15,77,110,15,

163,126,15,76,109,16,

162,125,15,76,108,15,

161,125,16,76,108,16,

161,124,15,76,107,15,

159,123,15,75,107,15,

159,123,15,75,106,16,

159,121,15,75,106,15,

158,121,15,75,105,16,

157,121,15,74,105,15,

157,120,16,73,118,15,

156,120,16,73,118,15,

155,120,16,73,117,16,

155,118,16,71,117,15,

154,118,15,72,117,16,

153,118,15,71,116,15,

153,117,15,72,115,16,

217,117,17,71,115,16,

249,115,15,71,113,15,

248,115,15,71,113,16,

247,115,15,71,112,16,

244,114,15,70,112,15,

242,113,15,70,137,16,

241,113,15,69,155,15,

240,112,15,69,153,15,

238,112,15,69,152,15,

237,111,15,69,151,15,

235,110,15,68,151,16,

234,110,15,67,149,15,

231,109,15,67,149,15,

231,109,15,67,147,15,

230,109,15,67,147,15,

229,108,15,67,146,15,

228,108,15,66,145,15,

227,108,15,66,144,15,

226,106,15,66,144,15,

224,107,15,65,143,15,

223,105,15,65,142,15,

222,105,15,64,142,15,

221,105,15,64,141,15,

220,103,15,63,140,15,

219,103,15,64,139,15,

217,103,15,63,139,15,

216,103,15,63,138,15,

216,102,15,63,137,14,

214,101,15,62,137,15,

213,108,15,62,135,15,

211,106,15,62,137,16,

211,106,15,103,176,15,

209,105,15,102,175,15,

208,105,15,102,175,15,

207,105,15,102,174,16,

206,104,15,101,173,16,

205,103,16,100,172,16,

204,103,15,99,171,16,

204,103,15,99,170,15,

203,102,15,99,169,16,

201,102,15,98,167,16,

201,101,16,97,167,15,

199,101,15,97,167,15,

199,100,16,97,165,15,

198,99,16,96,164,15,

197,99,15,96,164,16,

195,99,15,95,163,15,

195,98,16,95,163,15,

194,98,15,94,161,15,

193,98,16,94,161,16,

192,97,15,93,159,15,

191,96,15,93,159,15,

190,96,15,93,158,16,

189,96,15,93,158,15,

188,95,15,92,157,16,

188,95,15,91,156,16,

187,94,15,91,155,16,

186,94,16,90,154,15,

185,94,16,90,154,15,

184,94,15,90,153,15,

184,93,16,89,152,15,

183,93,16,89,152,16,

181,93,15,89,152,16,

180,92,15,88,150,16,

180,92,15,88,150,16,

179,91,15,87,149,15,

178,91,16,87,148,15,

178,91,15,88,147,15,

177,91,16,86,147,15,

176,90,15,86,146,15,

176,90,15,85,145,15,

175,90,15,86,145,16,

174,97,16,85,143,15,

172,96,15,84,143,15,

172,95,15,83,143,16,

172,96,15,83,142,15,

170,94,15,83,142,15,

169,94,15,82,141,15,

169,94,15,83,141,16,

173,93,15,82,140,15,

172,93,16,81,139,16,

171,92,15,81,138,15,

170,92,15,81,137,15,

169,91,15,81,137,16,

169,91,15,79,137,15,

167,90,15,79,135,15,

167,90,15,80,135,15,

166,89,15,79,135,15,

165,89,15,79,134,15,

164,89,15,79,134,15,

163,88,15,78,133,15,

163,88,15,78,132,15,

162,88,15,78,132,15,

161,88,16,77,131,15,

160,87,14,76,130,15,

159,86,14,76,129,14,

159,86,14,76,129,15,

158,85,15,76,127,15,

158,85,14,75,127,15,

157,84,15,75,127,15,

156,84,15,79,127,15,

156,83,15,79,126,15,

155,86,15,78,125,15,

153,84,14,78,124,15,

153,85,15,78,124,15,

152,84,15,78,123,15,

152,84,15,76,123,15,

152,83,15,76,123,15,

152,83,15,76,122,14,

150,83,15,76,121,15,

149,82,15,76,121,15,

149,82,15,76,120,14,

148,82,14,75,120,15,

147,82,15,74,120,15,

147,81,15,74,119,14,

146,80,15,74,119,15,

146,80,15,74,118,14,

145,79,15,73,117,15,

143,79,14,73,117,15,

143,79,15,71,116,15,

143,79,15,71,116,15,

143,78,15,71,115,14,

142,78,14,71,115,14,

142,86,15,71,114,15,

141,88,15,71,115,15,

140,110,15,71,113,14,

140,110,15,71,113,15,

139,109,15,70,112,14,

139,108,14,69,112,15,

137,108,15,70,111,14,

137,107,15,69,111,15,

135,106,15,69,110,15,

135,106,15,68,110,14,

135,105,15,69,109,15,

135,105,15,69,108,14,

134,105,15,67,108,15,

134,103,15,67,108,15,

133,103,15,67,107,15,

133,103,14,67,107,15,

132,103,15,67,107,14,

131,102,15,66,105,15,

130,102,15,66,105,14,

130,101,15,66,105,14,

129,101,14,65,105,15,

129,99,15,65,103,14,

128,99,14,64,103,15,

127,99,15,64,103,14,

127,99,15,63,102,15,

126,98,14,63,102,15,

126,98,15,63,102,15,

126,97,14,63,102,14,

125,97,15,63,101,15,

124,96,15,63,101,15,

124,96,15,63,100,15,

123,96,14,62,99,15,

123,95,14,62,99,15,

122,95,15,62,99,16,

171,95,15,62,98,14,

169,94,15,61,99,15,

167,93,15,61,98,15,

167,93,14,60,97,15,

167,93,15,61,97,15,

166,92,15,60,96,15,

165,91,15,60,96,15,

164,92,15,60,96,15,

163,91,14,60,96,14,

163,91,15,59,96,14,

162,91,15,59,96,15,

161,89,15,59,94,15,

161,89,15,58,94,14,

159,89,14,59,93,14,

159,88,15,59,93,15,

158,88,15,58,93,14,

158,88,14,58,93,15,

156,88,15,57,92,15,

156,88,15,57,92,15,

155,87,15,57,91,15,

154,88,15,57,91,15,

157,87,15,57,92,15,

231,103,14,57,90,15,

230,102,15,57,90,14,

228,102,14,56,89,14,

227,101,15,56,89,15,

226,101,15,56,88,14,

224,100,15,55,89,15,

224,99,14,56,88,15,

223,99,15,56,88,15,

221,99,15,55,88,15,

221,117,16,54,87,15,

219,154,15,54,87,14,

218,152,14,54,86,14,

216,152,15,54,86,14,

216,151,15,54,86,15,

214,150,15,53,85,15,

213,149,15,53,85,14,

212,147,15,53,84,15,

211,147,14,53,84,15,

210,147,14,52,83,14,

209,146,15,53,83,14,

207,145,15,52,83,15,

207,144,15,51,83,15,

205,143,15,51,82,15,

205,143,15,51,82,14,

204,142,15,51,82,15,

203,141,15,51,82,15,

201,140,14,51,81,15,

201,140,14,51,81,15,

199,139,15,51,80,14,

199,138,14,51,79,15,

198,139,14,50,80,15,

197,137,14,50,79,15,

195,135,15,50,79,14,

195,135,15,49,78,14,

195,135,15,50,78,15,

194,135,15,50,79,15,

193,135,15,49,79,16,

192,134,15,48,78,15,

191,133,15,49,78,15,

190,133,15,49,77,15,

189,131,15,49,77,15,

188,131,16,48,76,15,

187,131,16,48,77,15,

187,130,16,48,76,15,

185,130,15,48,76,15,

185,129,15,48,76,15,

184,128,15,47,76,15,

183,127,15,48,75,15,

182,127,15,47,75,15,

181,126,15,47,74,15,

180,126,15,47,74,15,

179,125,15,46,75,15,

179,125,16,47,73,15,

177,124,15,46,73,15,

177,123,15,46,73,15,

176,124,15,46,73,15,

175,123,15,46,73,15,

175,121,15,45,73,15,

174,121,15,45,71,16,

173,121,15,45,71,15,

172,120,15,45,71,15,

171,119,15,44,71,15,

171,119,15,45,71,15,

170,118,15,45,71,15,

169,118,15,44,71,15,

167,117,15,44,70,15,

167,116,15,44,70,15,

167,116,15,44,70,15,

166,115,15,44,69,14,

165,115,15,44,70,15,

164,115,15,43,69,15,

163,114,15,43,69,15,

163,113,15,44,69,15,

163,114,15,56,69,15,

161,112,15,56,68,15,

161,112,14,56,67,15,

159,112,15,56,67,15,

159,111,15,54,67,15,

159,111,15,55,67,15,

158,110,15,54,67,15,

157,110,15,53,67,15,

156,109,15,54,66,15,

156,109,15,53,66,15,

155,108,15,54,67,16,

154,166,15,53,66,15,

154,164,15,53,65,15,

153,163,16,52,65,15,

152,162,15,52,65,15,

181,162,15,52,65,15,

190,160,15,51,64,15,

188,159,15,51,64,15,

188,158,15,51,63,15,

186,158,15,51,63,15,

185,157,15,50,63,15,

184,156,15,50,63,15,

184,155,15,50,62,15,

182,154,15,50,62,14,

180,153,15,50,62,15,

179,153,14,49,62,15,

179,152,14,49,61,14,

178,151,15,49,62,15,

177,150,15,48,61,15,

177,150,15,48,61,15,

176,149,15,48,60,15,

175,147,15,48,60,15,

174,147,15,48,61,15,

173,146,15,48,60,15,

172,146,15,48,60,15,

171,145,14,47,60,15,

170,144,15,47,59,15,

169,143,15,46,59,15,

169,142,15,46,59,14,

167,142,14,46,58,15,

167,142,15,46,59,14,

167,140,15,46,58,15,

165,140,15,46,58,14,

164,140,15,46,57,14,

164,139,15,45,58,15,

163,139,15,45,57,15,

162,138,15,45,57,15,

162,137,15,45,56,15,

161,136,14,44,57,14,

159,135,15,45,57,15,

159,135,14,44,56,14,

158,134,14,44,56,15,

158,134,15,44,57,15,

158,134,15,44,56,16,

157,134,16,45,56,15,

