
28,5,0,61,16,0,

28,5,0,60,17,0,

27,4,0,60,16,0,

27,5,0,60,16,0,

27,5,0,65,16,0,

29,5,0,64,16,0,

29,5,0,64,16,0,

29,5,0,63,15,0,

29,5,0,63,15,0,

29,5,0,63,15,0,

29,5,0,63,16,0,

29,5,0,63,16,0,

28,5,0,62,15,0,

28,5,0,62,15,0,

28,4,0,62,15,0,

28,5,0,62,15,0,

28,4,0,61,15,0,

28,4,0,61,15,0,

28,4,0,61,15,0,

28,4,0,61,15,0,

27,4,0,60,15,0,

27,4,0,60,15,0,

27,4,0,60,14,0,

27,4,0,60,15,0,

27,4,0,59,14,0,

27,4,0,59,15,0,

26,4,0,59,15,0,

26,4,0,59,15,0,

26,4,0,58,15,0,

26,4,0,58,14,0,

26,4,0,58,15,0,

26,4,0,57,14,0,

26,6,0,57,14,0,

25,6,0,57,14,0,

25,6,0,57,14,0,

25,6,0,57,14,0,

25,6,0,56,14,0,

25,6,0,56,19,0,

25,6,0,56,21,0,

25,6,0,56,20,0,

24,6,0,55,20,0,

25,6,0,55,20,0,

24,5,0,55,20,0,

24,6,0,55,19,0,

24,5,0,54,20,0,

24,5,0,54,19,0,

25,6,0,54,20,0,

25,6,0,54,19,0,

25,5,0,53,20,0,

25,5,0,53,19,0,

24,6,0,53,19,0,

24,5,0,53,19,0,

25,5,0,53,19,0,

25,5,0,52,19,0,

24,5,0,52,19,0,

24,5,0,52,19,0,

24,5,0,51,19,0,

24,5,0,51,18,0,

24,5,0,51,18,0,

24,5,0,51,18,0,

24,6,0,51,18,0,

24,6,0,51,18,0,

24,6,0,50,18,0,

24,6,0,50,18,0,

24,6,0,50,17,0,

24,6,0,50,18,0,

24,6,0,50,17,0,

24,6,0,49,17,0,

24,6,0,49,17,0,

23,6,0,49,17,0,

23,6,0,49,17,0,

23,6,0,49,17,0,

23,6,0,49,17,0,

23,6,0,48,17,0,

23,6,0,48,17,0,

23,6,0,65,17,0,

23,5,0,69,17,0,

23,5,0,68,16,0,

23,5,0,68,16,0,

22,5,0,67,16,0,

22,5,0,67,16,0,

22,6,0,67,16,0,

22,5,0,67,16,0,

22,6,0,66,16,0,

22,5,0,66,15,0,

22,5,0,66,15,0,

21,5,0,66,15,0,

21,6,0,65,15,0,

24,7,0,65,15,0,

25,22,0,65,15,0,

24,21,0,64,15,0,

24,21,0,64,15,0,

24,21,0,63,20,0,

24,21,0,63,21,0,

24,21,0,63,21,0,

24,21,0,63,21,0,

24,21,0,62,21,0,

24,20,0,62,21,0,

23,20,0,62,21,0,

24,20,0,62,20,0,

24,20,0,62,21,0,

27,20,0,61,20,0,

27,20,0,61,20,0,

27,19,0,61,20,0,

27,19,0,61,19,0,

27,19,0,60,19,0,

27,19,0,60,19,0,

27,19,0,59,19,0,

27,19,0,59,19,0,

26,19,0,59,19,0,

26,19,0,59,19,0,

26,19,0,58,19,0,

25,19,0,58,18,0,

26,18,0,58,19,0,

25,18,0,58,19,0,

25,18,0,57,18,0,

25,18,0,57,18,0,

25,18,0,57,18,0,

25,18,0,56,19,0,

25,18,0,57,19,0,

25,18,0,56,19,0,

25,17,0,56,19,0,

25,17,0,56,19,0,

25,17,0,56,19,0,

24,17,0,56,19,0,

24,17,0,55,19,0,

24,17,0,55,18,0,

24,17,0,54,18,0,

24,17,0,54,18,0,

24,17,0,54,18,0,

24,17,0,54,18,0,

24,16,0,53,18,0,

24,17,0,53,18,0,

23,16,0,53,18,0,

23,16,0,53,17,0,

23,16,0,53,18,0,

23,16,0,52,17,0,

22,16,0,52,17,0,

23,15,0,51,17,0,

23,15,0,60,17,0,

23,16,0,59,17,0,

22,15,0,59,17,0,

22,15,0,59,17,0,

22,15,0,59,17,0,

22,15,0,58,16,0,

22,15,0,57,16,0,

22,15,0,57,17,0,

22,15,0,57,16,0,

21,15,0,57,16,0,

21,15,0,57,16,0,

21,15,0,56,16,0,

21,15,0,56,16,0,

21,14,0,56,16,0,

24,15,0,56,15,0,

24,14,0,56,16,0,

24,14,0,56,15,0,

24,14,0,55,15,0,

24,14,0,55,15,0,

24,14,0,54,16,0,

23,14,0,54,39,0,

23,14,0,54,40,0,

23,14,0,54,39,0,

23,14,0,53,39,0,

22,14,0,53,39,0,

22,14,0,53,39,0,

22,14,0,53,39,0,

25,13,0,52,39,0,

26,13,0,52,39,0,

26,13,0,51,38,0,

26,13,0,51,38,0,

26,13,0,51,47,0,

25,13,0,51,47,0,

25,13,0,51,46,0,

25,13,0,51,46,0,

25,13,0,50,46,0,

25,13,0,50,46,0,

25,13,0,50,45,0,

25,13,0,49,45,0,

25,13,0,49,45,0,

28,15,0,49,45,0,

29,15,0,49,44,0,

29,15,0,49,44,1,

28,15,0,48,44,0,

28,15,0,48,44,0,

28,15,0,48,44,0,

28,15,0,48,43,0,

28,15,0,48,43,0,

28,15,0,48,43,0,

27,15,0,48,43,0,

27,15,0,48,43,0,

27,15,0,47,42,0,

27,15,0,47,42,0,

29,15,0,46,42,0,

33,15,0,46,41,0,

33,14,0,46,41,0,

33,14,0,46,41,0,

32,14,0,46,41,0,

32,14,0,45,41,0,

31,14,0,46,39,0,

32,14,0,45,39,0,

31,14,0,45,39,0,

31,14,0,45,39,0,

31,14,0,45,39,0,

31,14,0,45,39,0,

31,14,0,89,39,0,

31,14,0,99,39,0,

31,14,0,99,39,0,

31,13,0,99,39,0,

31,13,0,98,39,0,

30,13,0,97,38,0,

30,13,0,97,38,0,

30,13,0,96,38,0,

30,13,0,96,38,0,

30,13,0,96,38,0,

30,13,0,95,37,0,

29,13,0,94,37,0,

30,13,0,94,37,0,

29,13,0,94,36,0,

30,13,0,93,37,0,

31,13,1,93,36,0,

31,13,0,92,36,0,

31,12,0,92,36,0,

30,12,0,92,36,0,

30,12,0,92,35,0,

30,12,0,91,35,0,

30,13,0,90,35,0,

30,12,0,90,35,0,

29,12,0,89,35,0,

29,12,0,89,35,0,

29,12,0,89,35,0,

29,12,0,88,35,0,

29,12,0,88,34,0,

29,12,0,88,34,0,

29,12,0,88,34,0,

29,11,0,87,34,0,

28,11,0,87,34,0,

28,12,0,86,33,0,

28,11,0,86,34,0,

28,11,0,85,34,0,

28,11,0,85,33,0,

28,11,0,85,33,0,

28,11,0,84,33,0,

27,11,0,83,33,1,

27,11,0,83,33,0,

27,12,0,90,33,0,

27,12,0,90,33,0,

27,12,0,89,32,0,

27,12,0,89,31,0,

26,12,0,89,31,0,

27,11,0,88,54,0,

26,12,0,88,66,0,

26,11,0,88,66,0,

26,11,0,87,65,0,

26,11,0,86,64,0,

26,11,0,86,64,0,

25,11,0,86,63,0,

25,11,0,85,63,0,

25,11,0,85,63,0,

26,11,0,84,63,0,

27,19,0,84,63,0,

27,19,0,83,62,0,

27,19,0,83,62,0,

27,19,0,83,62,0,

26,19,0,83,61,0,

26,19,0,82,61,0,

25,18,0,82,61,0,

26,19,0,81,61,0,

25,18,0,81,60,0,

25,18,0,81,60,0,

25,18,0,80,60,0,

25,18,0,85,59,0,

25,18,0,114,60,0,

25,17,0,113,59,0,

25,24,0,112,58,0,

25,25,0,112,58,0,

25,24,0,111,58,0,

25,24,0,110,57,0,

25,24,0,110,57,0,

25,24,0,109,57,0,

25,24,0,109,57,0,

24,24,0,108,56,0,

24,24,0,108,56,0,

24,23,0,107,56,0,

24,24,0,107,56,0,

24,23,0,106,56,0,

24,23,0,106,56,0,

24,23,0,105,55,0,

24,22,0,105,55,0,

24,22,0,103,54,0,

23,22,0,103,54,0,

23,22,0,103,54,0,

23,22,0,103,53,0,

23,22,0,103,53,0,

23,22,0,102,53,0,

23,22,0,102,53,0,

33,21,0,101,52,0,

36,21,0,100,51,0,

36,21,0,100,51,0,

35,21,0,99,51,0,

35,21,0,99,51,0,

35,21,0,99,51,0,

35,22,0,98,51,0,

35,22,0,98,51,0,

35,22,0,97,51,0,

34,22,0,97,50,0,

34,22,0,97,50,0,

34,22,0,96,50,0,

34,21,0,96,49,0,

34,21,0,96,49,0,

33,21,0,95,49,0,

33,21,0,95,48,0,

33,21,0,94,49,0,

33,21,0,94,48,0,

33,20,0,94,48,0,

33,21,0,93,48,0,

33,20,0,93,47,0,

32,20,0,92,48,0,

32,20,0,92,48,0,

31,20,0,92,48,0,

31,19,0,91,48,0,

31,19,0,91,47,0,

36,19,0,90,47,0,

42,20,0,90,47,0,

42,19,0,89,47,0,

42,19,0,89,47,0,

41,19,0,89,47,0,

41,19,0,89,46,0,

41,19,0,88,46,0,

41,19,0,88,46,0,

41,19,0,88,45,0,

39,19,0,87,45,0,

39,19,0,87,45,0,

39,19,0,86,45,0,

39,19,0,86,45,0,

39,19,0,86,44,0,

39,18,0,85,44,0,

39,18,0,85,44,0,

39,18,0,85,44,0,

39,18,0,84,44,0,

39,18,0,83,44,0,

39,18,0,83,43,1,

38,18,0,83,43,0,

38,18,0,83,43,0,

38,17,0,82,43,0,

38,18,0,82,42,0,

38,18,0,82,42,0,

37,17,0,82,42,0,

37,17,0,83,42,0,

37,17,0,83,41,0,

37,17,0,83,41,0,

37,17,0,82,41,0,

36,17,0,82,41,1,

36,17,0,81,41,0,

36,18,0,81,41,0,

35,18,0,81,41,0,

35,21,0,80,39,0,

35,20,1,79,40,0,

35,20,0,79,39,0,

35,20,0,79,39,0,

35,19,0,79,39,0,

35,19,0,78,39,0,

34,19,0,78,39,0,

35,34,0,78,39,0,

35,80,0,78,39,0,

35,79,0,77,39,0,

35,79,0,77,39,0,

35,78,0,77,39,0,

34,78,0,76,39,0,

34,77,0,76,39,0,

34,77,0,76,39,0,

34,77,0,76,39,0,

33,76,0,75,39,0,

33,76,0,75,38,0,

34,76,0,74,38,0,

33,75,0,74,38,0,

33,75,0,74,38,0,

33,75,0,73,37,0,

33,74,0,73,37,0,

33,73,0,73,37,0,

33,73,0,73,37,0,

32,73,0,73,36,0,

31,73,0,71,37,0,

31,71,0,71,39,0,

31,71,0,71,39,0,

31,71,0,71,39,0,

31,71,0,71,39,1,

31,71,0,71,39,0,

39,71,0,71,39,0,

102,76,0,70,39,0,

101,76,0,70,39,0,

100,75,0,69,38,0,

100,75,0,69,39,1,

99,74,0,69,38,0,

99,74,0,69,37,0,

98,73,0,68,38,0,

97,73,0,67,38,1,

97,73,1,67,37,0,

97,71,0,67,37,0,

96,71,1,78,37,1,

96,71,0,82,37,0,

95,71,0,82,37,0,

95,71,0,81,36,0,

94,71,0,81,36,0,

94,71,0,81,35,0,

93,70,0,80,48,0,

93,70,1,80,62,0,

92,69,0,79,61,0,

92,69,0,79,61,0,

92,69,0,79,61,0,

91,68,0,78,60,0,

91,83,0,78,60,0,

91,83,0,78,60,0,

90,82,0,79,60,0,

89,82,0,79,59,0,

89,81,0,78,59,0,

89,81,0,78,58,0,

89,81,0,78,58,0,

88,80,0,77,58,0,

88,79,0,77,57,0,

88,79,0,76,57,0,

87,79,0,76,57,0,

87,79,0,76,57,0,

86,78,1,76,57,0,

86,78,0,75,56,0,

86,77,0,75,56,0,

89,77,0,111,56,0,

89,77,0,110,56,0,

89,76,0,110,56,0,

88,76,0,109,55,0,

88,76,0,109,55,0,

88,75,0,108,55,1,

87,76,0,108,55,0,

87,75,0,107,55,0,

86,75,0,107,55,0,

86,74,0,106,54,0,

85,73,0,105,54,0,

85,73,0,105,54,0,

84,73,0,103,53,0,

84,73,0,103,53,1,

84,71,0,103,53,0,

83,71,0,103,53,0,

83,71,0,103,52,0,

83,71,0,102,60,1,

82,71,0,102,64,0,

82,71,0,101,63,0,

81,70,0,101,63,0,

81,70,0,100,63,0,

81,69,0,99,62,1,

80,69,0,99,62,0,

79,69,0,99,62,1,

79,69,1,99,61,0,

79,68,0,98,61,0,

79,67,0,97,61,0,

79,67,0,97,61,0,

79,67,0,97,60,0,

78,67,0,96,60,0,

78,67,0,96,60,0,

77,67,0,96,60,0,

77,66,0,95,59,0,

77,66,0,95,59,0,

77,65,0,94,59,0,

76,65,1,94,59,1,

76,65,0,93,58,0,

76,65,0,93,58,0,

75,64,0,93,58,0,

75,126,0,92,57,0,

75,124,0,92,57,0,

74,124,0,92,66,1,

74,123,0,91,66,0,

73,122,0,91,65,0,

73,121,0,90,65,0,

73,121,0,90,64,0,

71,120,0,89,63,0,

71,120,0,89,63,0,

71,120,0,89,63,0,

71,118,0,89,63,0,

71,118,0,88,62,0,

71,117,0,88,62,0,

71,117,0,88,62,0,

70,115,0,87,62,0,

70,115,0,86,61,1,

70,115,0,86,61,0,

69,114,0,86,67,0,

69,114,0,85,74,0,

69,113,0,85,74,0,

68,141,0,84,73,0,

68,149,1,84,73,0,

68,147,0,83,73,1,

67,147,0,83,71,0,

67,145,0,83,71,0,

67,145,0,83,71,0,

67,144,0,82,71,0,

66,143,0,82,71,0,

66,143,0,81,70,0,

66,142,0,81,70,0,

65,141,0,81,70,0,

65,140,0,80,69,0,

64,140,0,80,69,0,

64,140,0,79,68,0,

78,139,0,79,68,0,

77,138,0,81,68,0,

77,137,0,81,67,0,

162,139,0,80,67,1,

159,138,0,79,67,0,

158,137,0,79,67,0,

157,135,0,79,73,0,

156,135,0,79,71,1,

155,135,0,79,71,0,

155,135,1,78,71,0,

153,134,0,78,71,0,

153,133,0,77,71,0,

152,133,0,77,71,0,

152,131,0,77,70,0,

151,131,0,76,70,0,

150,131,1,76,70,0,

149,130,0,76,69,1,

148,129,0,76,69,0,

147,129,0,75,69,0,

147,127,0,75,68,0,

146,127,0,75,68,0,

145,127,0,74,67,0,

144,126,0,74,67,0,

143,126,0,73,67,1,

143,125,0,73,67,0,

142,124,0,73,66,0,

142,124,0,71,66,0,

141,123,0,71,65,0,

140,122,0,71,65,0,

140,122,0,71,65,0,

139,121,0,71,64,0,

138,121,0,71,64,0,

138,120,0,71,63,0,

137,120,0,70,63,0,

137,120,0,70,63,0,

135,119,0,69,63,1,

135,118,0,69,63,0,

135,118,1,99,62,0,

134,117,0,111,62,0,

133,116,0,110,62,0,

132,115,0,110,78,0,

132,115,0,109,123,0,

131,115,0,108,123,0,

131,114,0,108,121,0,

130,113,0,108,121,0,

129,113,0,107,120,0,

128,112,0,106,120,0,

156,112,1,106,119,1,

172,112,0,105,118,0,

171,111,0,103,117,0,

169,110,0,103,116,0,

167,110,0,103,116,0,

167,110,0,103,115,0,

167,109,0,102,115,0,

166,108,0,102,114,0,

165,108,0,101,113,0,

163,107,0,101,113,0,

163,107,0,100,112,0,

162,127,0,99,112,0,

161,129,0,99,111,0,

160,127,0,99,110,0,

159,127,0,98,109,0,

159,126,0,98,109,1,

158,126,0,97,108,0,

157,125,0,97,108,0,

156,124,0,96,107,0,

155,124,0,96,107,0,

155,123,0,95,107,0,

154,122,0,95,106,0,

153,121,1,94,105,0,

152,121,0,94,105,0,

152,121,0,94,104,0,

152,120,0,94,103,0,

150,120,0,93,103,0,

149,119,0,93,103,0,

148,118,0,92,102,0,

147,118,0,92,102,0,

147,117,0,91,101,0,

146,116,0,91,100,0,

146,115,0,91,100,0,

145,138,0,90,99,0,

144,137,0,89,99,0,

143,135,0,89,98,0,

143,135,1,89,98,0,

142,135,0,88,123,0,

141,134,0,88,121,0,

141,133,0,88,121,1,

140,132,0,87,120,0,

140,131,0,87,119,0,

139,131,0,86,119,0,

138,130,0,86,118,0,

137,130,0,85,117,0,

135,129,0,85,117,0,

135,129,0,85,115,0,

135,127,1,84,115,0,

135,127,0,83,115,0,

134,127,0,83,114,0,

133,126,0,83,113,0,

133,125,0,83,113,0,

132,124,0,82,112,0,

131,124,0,82,112,0,

131,123,0,81,112,0,

130,123,0,81,111,0,

129,121,0,80,110,0,

129,121,0,79,109,0,

128,121,0,79,109,0,

127,120,0,79,108,0,

127,120,0,79,108,0,

126,119,0,78,108,0,

126,118,0,78,107,0,

125,118,0,78,106,0,

125,117,0,77,105,0,

124,117,0,77,105,0,

124,116,0,77,105,0,

123,115,0,76,103,0,

123,115,0,76,103,0,

122,114,0,76,103,0,

121,113,0,76,103,0,

121,113,0,75,102,0,

120,113,0,75,102,0,

120,112,0,74,101,0,

119,111,0,74,101,0,

118,111,0,74,100,0,

117,110,0,73,99,0,

117,110,0,73,99,0,

117,109,0,72,99,0,

116,109,0,71,98,0,

116,109,0,71,98,0,

115,108,0,71,97,0,

115,108,0,71,97,0,

114,107,0,71,96,0,

114,107,0,71,96,0,

114,107,0,71,96,0,

113,105,0,70,95,0,

113,105,0,70,95,0,

112,105,0,70,94,0,

112,103,0,70,94,0,

111,103,0,69,93,0,

111,103,0,69,93,0,

110,103,0,68,93,0,

110,103,0,68,92,0,

109,102,0,67,92,0,

109,102,0,67,91,0,

109,101,0,67,93,0,

108,138,0,67,105,0,

107,158,0,66,105,0,

107,157,0,66,103,0,

106,156,0,66,103,0,

105,155,0,66,103,0,

105,154,0,65,103,0,

105,153,0,65,102,0,

103,153,0,64,101,0,

103,152,0,64,101,0,

103,152,0,63,100,0,

103,150,0,63,99,0,

103,149,0,63,99,0,

102,148,0,63,99,0,

101,147,0,63,98,1,

101,147,0,63,97,0,

100,146,0,62,97,0,

100,146,0,62,97,0,

99,145,0,62,97,0,

130,144,0,62,96,0,

128,143,0,61,96,0,

127,143,0,61,95,0,

127,142,0,60,94,0,

126,142,0,60,94,0,

125,141,0,60,94,1,

125,140,0,60,93,0,

124,139,0,60,93,0,

124,139,0,59,92,0,

123,138,0,59,92,0,

122,137,0,59,91,0,

121,137,0,58,91,0,

121,135,0,58,91,0,

120,150,0,58,90,0,

120,149,0,57,90,0,

120,147,0,57,89,0,

119,147,0,57,90,0,

118,146,0,57,89,0,

118,145,0,57,89,0,

117,144,0,56,88,0,

116,143,0,56,88,0,

116,143,0,56,88,0,

115,143,0,56,87,0,

115,142,0,56,87,0,

114,141,0,56,87,1,

114,140,0,55,86,0,

113,140,0,54,86,0,

112,139,0,54,85,0,

112,139,0,54,85,0,

111,137,0,54,84,0,

111,137,0,54,83,0,

110,135,0,53,83,0,

110,135,0,53,83,0,

109,135,0,53,83,0,

109,134,0,53,83,0,

108,134,0,52,82,0,

108,133,0,52,82,0,

108,132,0,52,81,0,

107,131,1,51,81,0,

106,131,0,51,81,0,

105,131,0,51,80,0,

105,130,0,51,79,0,

105,129,0,51,79,0,

103,129,0,50,79,0,

103,128,0,50,79,0,

103,127,0,50,78,0,

103,127,0,49,78,1,

102,126,0,49,78,0,

102,126,0,49,78,0,

101,162,0,49,77,0,

101,161,0,49,77,0,

100,160,0,48,90,0,

99,159,0,48,89,0,

99,158,0,48,88,0,

99,158,0,48,88,0,

99,157,0,48,88,0,

98,156,0,48,88,0,

98,155,0,71,87,0,

97,155,0,79,86,0,

176,153,0,79,86,0,

207,153,0,79,85,0,

206,152,0,78,85,0,

205,152,0,78,84,0,

203,151,0,78,83,0,

202,150,0,77,83,0,

201,149,0,76,83,0,

199,149,0,76,83,0,

199,147,0,76,82,1,

198,147,0,76,81,0,

197,146,0,75,82,0,

196,146,0,75,81,0,

195,145,0,74,80,0,

194,143,0,74,80,0,

193,143,0,73,79,0,

192,143,0,73,79,0,

191,142,0,73,79,1,

190,141,0,73,79,0,

189,141,0,71,78,0,

188,140,0,71,78,0,

187,139,0,71,78,0,

187,139,1,71,77,0,

185,138,0,71,77,0,

185,137,0,70,77,0,

184,189,0,70,76,0,

184,188,0,70,76,0,

182,187,0,69,75,0,

181,185,0,69,75,0,

180,184,0,69,74,0,

179,184,0,68,74,0,

179,183,0,68,74,0,

178,182,0,67,73,0,

177,180,0,67,73,0,

176,180,0,67,73,0,

176,179,0,66,71,0,

174,178,0,67,71,0,

174,177,0,67,71,0,

173,176,0,67,71,0,

172,175,0,66,71,0,

171,174,0,66,71,0,

171,173,0,65,71,0,

169,172,0,66,70,0,

169,172,0,65,70,0,

167,171,0,65,70,0,

167,170,0,65,69,0,

166,169,0,64,69,0,

166,167,0,63,69,0,

165,167,0,75,69,0,

164,167,0,75,68,0,

163,166,0,74,67,0,

163,165,0,73,67,0,

162,164,0,73,67,0,

161,163,0,73,67,0,

160,163,0,73,67,0,

159,162,0,71,67,0,

159,162,0,71,67,0,

158,160,0,71,67,0,

158,159,0,71,67,0,

157,159,0,71,66,0,

156,158,0,70,66,0,

159,157,0,70,66,0,

158,157,0,70,65,0,

158,156,0,69,65,0,

157,156,1,69,65,0,

156,155,0,69,64,0,

156,153,0,68,64,0,

155,153,0,67,63,0,

154,152,0,67,63,0,

153,152,0,67,63,0,

152,152,0,69,63,0,

152,151,0,69,63,0,

152,150,0,69,63,0,

150,149,0,68,62,0,

150,148,1,67,62,0,

149,147,0,67,62,0,

148,147,0,67,62,0,

147,146,0,67,61,1,

147,145,0,66,61,0,

146,145,0,66,61,0,

146,143,0,66,61,0,

145,143,0,65,60,0,

144,143,0,71,60,1,

143,142,0,71,60,0,

143,142,0,71,60,1,

142,140,0,71,60,0,

142,140,0,71,59,0,

141,140,0,71,59,0,

140,139,0,70,58,1,

140,138,0,70,58,0,

139,137,0,70,58,0,

139,137,0,69,58,0,

138,135,0,69,57,1,

137,135,0,68,57,0,

137,135,0,67,57,0,

135,134,0,67,57,0,

135,134,1,93,56,0,

135,140,0,92,56,0,

135,139,0,91,56,1,

134,139,0,91,56,0,

133,137,0,90,56,0,

133,137,0,90,55,0,

132,135,0,89,55,1,

131,135,0,89,55,0,

131,135,0,88,55,0,

130,135,0,90,54,0,

130,134,0,98,54,0,

129,133,1,98,54,0,

129,133,0,97,53,0,

128,132,0,96,53,0,

127,131,0,96,53,0,

127,131,0,95,53,0,

126,130,0,95,52,0,

126,130,0,94,52,0,

125,129,0,94,52,0,

125,127,0,93,51,0,

124,127,0,93,51,0,

124,127,0,92,51,0,

123,127,0,92,51,0,

123,126,0,92,51,0,

122,125,0,91,50,0,

121,125,0,91,50,0,

121,124,0,90,50,0,

120,124,0,89,50,0,

120,123,0,89,50,0,

120,123,0,89,49,0,

119,122,0,88,49,0,

118,121,0,88,49,0,

118,121,0,88,49,0,

118,177,0,87,48,0,

117,182,0,87,48,0,

117,180,0,87,48,0,

115,179,0,86,48,0,

115,179,0,85,47,0,

115,178,0,85,56,0,

114,177,1,84,94,0,

113,176,0,84,93,0,

114,175,1,83,93,0,

113,174,0,83,92,0,

112,173,0,83,91,0,

112,172,0,83,91,0,

111,171,0,82,91,0,

111,171,0,82,90,1,

110,169,0,81,89,0,

110,169,0,81,89,0,

109,167,0,80,88,0,

109,167,0,80,88,0,

108,166,0,79,88,0,

108,166,0,79,88,0,

108,165,0,79,87,0,

107,163,0,79,86,0,

107,163,0,78,86,0,

106,162,0,78,86,0,

106,161,0,78,85,0,

105,160,0,78,85,0,

105,159,0,77,84,0,

103,159,0,76,83,0,

103,158,0,76,83,1,

103,158,0,76,83,0,

103,157,0,76,86,0,

103,156,0,75,86,0,

102,155,0,75,85,0,

102,155,0,74,84,0,

102,154,0,74,84,0,

101,153,0,73,83,0,

100,152,0,73,83,0,

100,216,0,73,83,0,

99,213,0,73,82,0,

99,211,0,73,82,0,

99,210,0,71,82,0,

98,209,0,71,81,0,

98,207,0,71,81,0,

97,207,0,71,81,0,

97,206,0,71,80,0,

97,205,0,71,79,0,

96,204,0,70,79,0,

96,203,0,70,79,0,

96,202,0,69,78,0,

95,201,0,69,78,0,

95,199,0,69,78,0,

145,199,0,68,77,0,

143,198,0,68,77,0,

143,197,0,67,77,0,

142,195,0,67,76,0,

141,195,0,67,76,0,

141,194,0,67,76,0,

140,193,0,66,75,0,

139,192,0,66,75,0,

139,192,0,66,75,0,

137,190,0,66,74,0,

137,189,0,66,74,0,

135,188,0,66,73,0,

135,187,0,65,73,0,

135,186,0,65,73,0,

134,185,0,65,71,0,

134,184,0,65,71,0,

133,184,0,64,71,0,

132,183,0,63,71,0,

132,182,0,63,71,0,

131,181,0,63,71,0,

131,180,0,71,70,0,

130,179,0,98,70,0,

129,179,0,97,70,0,

128,178,0,96,70,0,

127,177,0,96,69,0,

127,176,0,95,69,0,

127,175,0,95,68,0,

126,175,0,94,67,0,

125,174,0,93,67,0,

125,173,0,93,67,0,

124,172,0,93,67,0,

124,172,0,92,67,0,

123,171,0,92,66,0,

123,169,0,92,66,0,

122,169,0,91,66,0,

121,167,0,90,65,0,

121,167,0,89,65,0,

120,167,0,89,64,0,

120,166,0,89,64,0,

120,165,0,88,64,0,

119,164,0,88,63,0,

118,163,0,88,63,0,

117,163,0,87,63,0,

117,162,0,87,63,0,

116,161,0,86,63,0,

115,160,0,86,62,0,

115,159,0,86,62,0,

115,159,0,85,62,0,

114,158,0,85,61,1,

114,158,0,84,61,0,

113,156,0,84,61,0,

112,156,0,83,60,0,

112,155,0,83,60,0,

111,155,0,83,60,0,

111,154,0,82,60,0,

110,153,0,89,59,0,

116,153,0,90,59,0,

115,152,0,90,59,0,

115,151,0,89,59,0,

115,150,0,89,58,0,

114,150,0,88,58,1,

113,149,0,88,58,0,

113,148,0,88,57,0,

112,148,0,87,57,0,

112,147,0,87,57,1,

111,146,1,86,57,0,

111,146,0,86,56,0,

110,145,0,85,56,0,

110,144,0,85,56,0,

109,143,0,84,55,0,

108,143,0,83,56,0,

108,142,0,83,55,0,

108,142,0,83,55,0,

107,142,0,83,94,0,

106,141,0,82,92,0,

106,140,0,82,92,0,

105,140,0,81,91,1,

105,139,0,81,91,0,

105,138,1,81,90,0,

103,138,0,80,89,0,

103,137,0,79,89,0,

103,135,0,79,89,0,

103,135,0,79,89,0,

102,156,0,79,88,0,

102,155,0,78,88,0,

101,155,0,78,88,0,

101,153,0,78,87,0,

100,153,0,77,86,0,

100,152,0,77,86,0,

99,151,0,76,85,0,

99,151,0,76,85,0,

98,150,0,76,84,0,

98,149,0,76,84,1,

119,155,0,76,83,0,

118,154,0,76,83,0,

117,153,0,75,83,0,

116,153,0,74,82,0,

116,152,0,74,82,0,

115,151,0,74,81,0,

115,150,0,73,81,0,

114,149,0,73,81,0,

114,149,0,73,80,0,

113,148,0,71,79,0,

112,147,0,71,79,0,

112,147,0,71,79,0,

112,146,0,71,79,0,

111,150,0,71,78,0,

111,171,0,71,78,0,

109,171,0,71,90,0,

109,169,0,70,112,0,

109,167,0,70,112,0,

108,167,0,69,110,0,

108,166,0,69,110,0,

107,166,0,69,109,0,

107,164,0,69,109,0,

106,164,0,68,108,0,

105,163,0,67,107,0,

105,162,0,68,107,0,

103,161,0,67,106,1,

103,160,0,67,106,0,

103,159,0,67,105,0,

103,159,0,66,103,0,

102,158,0,66,103,0,

102,157,0,66,103,0,

101,156,0,65,103,0,

101,156,0,65,103,0,

100,155,0,65,102,0,

99,154,0,65,101,0,

114,153,0,65,101,0,

114,152,0,63,100,0,

113,152,0,63,99,0,

112,152,0,63,99,0,

112,151,0,63,99,0,

111,150,0,63,98,0,

110,149,0,62,97,0,

110,148,0,62,97,0,

109,147,0,62,97,0,

111,147,0,62,96,0,

159,146,1,61,96,0,

158,159,0,61,96,0,

156,193,0,61,95,0,

156,192,0,60,95,0,

155,191,0,60,94,0,

154,190,0,60,94,0,

153,189,0,60,93,0,

152,188,0,60,93,0,

152,187,0,59,92,0,

151,186,0,59,92,0,

150,185,0,58,92,0,

149,185,0,86,92,0,

149,184,0,103,91,0,

148,182,0,103,90,0,

147,182,1,102,89,0,

146,181,0,101,89,0,

145,179,0,101,89,0,

145,184,0,100,88,0,

143,211,0,99,88,0,

143,210,0,99,88,0,

142,208,0,99,88,0,

142,207,0,98,87,0,

141,206,0,97,86,0,

140,205,0,97,86,0,

140,204,0,97,86,0,

139,203,0,96,85,0,

138,202,0,96,85,0,

138,201,0,96,83,0,

137,199,0,95,83,0,

136,199,0,94,83,0,

135,198,1,94,83,0,

135,197,0,94,83,0,

135,196,0,93,82,0,

134,195,0,93,82,0,

134,195,0,92,82,0,

133,193,0,92,81,0,

132,192,0,91,81,0,

131,192,0,91,80,0,

131,190,0,91,80,0,

130,190,0,90,79,0,

130,189,0,89,87,0,

129,188,0,89,86,0,

128,187,0,89,86,0,

127,186,0,88,86,0,

127,185,0,88,85,0,

127,184,0,88,84,0,

127,184,0,88,84,0,

137,182,0,87,83,0,

135,182,0,86,83,0,

135,181,0,86,83,0,

135,180,0,86,83,0,

135,179,0,85,82,0,

134,179,0,85,82,0,

133,177,0,84,81,0,

133,176,0,83,81,0,

132,176,0,83,80,0,

131,175,0,83,79,0,

131,174,0,83,79,1,

130,173,0,82,79,0,

129,173,0,82,78,0,

129,172,0,81,78,0,

127,171,0,81,78,0,

127,170,0,81,78,0,

127,169,0,80,77,0,

126,167,0,79,77,0,

126,167,0,79,77,0,

125,167,0,79,76,0,

124,166,0,79,76,0,

124,165,1,78,76,0,

123,165,0,78,75,0,

123,163,0,78,75,0,

122,238,0,77,75,0,

121,275,0,77,74,0,

121,273,0,77,74,0,

121,271,0,76,73,0,

120,269,0,76,73,0,

120,268,0,76,73,0,

119,267,0,75,71,1,

118,265,0,75,71,0,

118,263,0,75,71,0,

117,262,0,74,71,0,

117,261,0,76,71,0,

116,259,0,79,71,0,

115,258,0,79,71,0,

115,257,0,78,70,1,

115,255,0,78,70,0,

114,254,0,78,70,0,

113,252,1,78,71,0,

113,251,1,77,70,0,

112,250,0,76,69,0,

112,248,0,76,69,0,

112,248,0,76,69,0,

111,246,0,76,69,1,

111,245,0,75,69,0,

110,243,0,75,68,0,

109,243,0,74,68,0,

109,241,0,74,67,1,

108,240,0,73,67,0,

108,239,0,73,67,0,

107,238,0,73,66,0,

107,236,0,73,66,1,

106,236,0,71,66,0,

106,234,0,71,65,0,

105,233,0,71,65,0,

105,231,0,71,65,0,

105,231,1,86,65,0,

103,230,0,88,64,0,

103,229,0,87,63,0,

103,227,0,86,63,1,

103,227,0,86,63,0,

102,225,0,85,63,0,

102,224,0,85,63,0,

101,224,0,84,62,0,

100,222,0,84,62,0,

100,221,0,83,62,0,

99,220,0,83,62,0,

99,219,1,83,61,0,

99,218,1,82,61,0,

99,217,0,82,61,1,

98,216,0,81,60,0,

98,216,0,81,60,0,

97,215,0,81,60,0,

97,214,0,80,59,0,

96,212,1,80,60,1,

96,211,1,79,59,0,

96,210,0,79,59,0,

96,210,0,79,59,0,

95,209,0,78,59,1,

94,207,0,78,58,0,

94,207,0,79,58,0,

94,227,1,107,57,1,

93,261,1,105,57,0,

93,259,0,105,57,0,

92,257,0,103,57,0,

92,255,0,103,57,0,

92,254,0,103,56,0,

91,253,0,103,56,0,

91,251,0,103,56,0,

90,250,0,102,56,0,

90,248,0,101,56,1,

90,248,1,101,55,0,

89,247,0,100,55,0,

141,245,0,129,55,0,

140,243,0,127,54,1,

139,242,1,127,54,0,

138,241,0,126,54,0,

137,240,0,125,54,0,

136,238,0,125,53,0,

135,237,1,124,53,0,

135,236,0,123,53,0,

134,234,1,123,52,1,

133,233,0,122,52,0,

133,231,0,122,52,0,

132,231,0,121,51,0,

131,230,0,120,51,0,

131,228,1,120,51,0,

130,227,0,120,51,0,

129,226,1,119,51,1,

129,225,0,118,71,1,

127,224,0,117,71,0,

127,223,1,117,71,0,

127,222,0,116,70,0,

126,220,1,115,70,0,

125,220,0,115,69,1,

125,219,0,115,69,0,

124,217,1,114,69,0,

124,216,0,113,68,0,

123,216,0,113,67,1,

122,214,0,112,67,0,

121,213,0,112,67,0,

121,212,0,111,67,0,

120,211,0,110,67,0,

120,210,0,110,66,0,

119,209,0,110,66,0,

118,207,0,109,65,1,

118,207,0,108,65,1,

117,206,1,108,65,0,

116,205,1,108,64,0,

116,204,0,107,64,0,

120,203,1,107,63,0,

119,202,0,106,63,0,

118,201,0,105,63,0,

118,199,1,105,63,0,

117,199,0,103,62,0,

116,198,0,103,62,0,

115,197,0,103,61,0,

115,196,0,126,61,0,

115,195,0,126,61,0,

114,194,0,125,61,0,

113,193,0,125,71,0,

113,193,0,124,71,0,

112,192,0,124,71,0,

112,191,0,123,71,1,

111,190,0,122,71,0,

111,189,1,121,70,1,

110,188,1,121,70,0,

109,187,1,121,69,0,

109,187,0,120,69,0,

108,185,1,119,69,1,

108,184,0,119,68,0,

107,184,0,118,67,1,

107,183,1,117,67,0,

106,182,0,117,67,0,

117,181,1,116,67,0,

116,180,1,115,67,0,

115,179,0,115,66,1,

115,179,0,114,66,0,

114,177,0,114,66,0,

113,177,1,113,65,0,

113,176,0,113,65,0,

112,175,0,112,64,0,

112,174,0,112,64,0,

111,174,0,111,63,0,

110,173,0,111,63,0,

110,172,0,110,63,0,

110,171,0,110,63,0,

109,171,1,109,62,0,

108,169,0,108,62,0,

108,169,0,108,62,0,

107,167,0,108,61,0,

107,167,0,107,61,1,

106,166,0,107,61,0,

105,166,0,106,61,1,

105,165,0,105,60,0,

105,164,0,105,60,0,

103,163,0,103,60,0,

103,163,1,103,59,0,

103,162,0,103,59,0,

103,161,0,103,58,0,

102,161,0,102,58,0,

102,159,0,102,57,1,

101,159,0,101,58,0,

101,159,0,101,57,0,

167,158,1,100,57,0,

166,157,0,99,56,1,

165,157,0,99,56,0,

163,156,1,99,57,0,

163,155,0,99,57,0,

162,154,1,98,56,0,

161,154,0,98,56,0,

160,153,1,97,56,0,

159,152,0,97,56,0,

159,152,0,96,55,0,

158,151,0,96,56,0,

157,150,0,96,55,0,

156,149,0,95,55,0,

156,149,0,94,54,0,

156,148,0,94,54,0,

155,147,0,94,54,0,

154,147,0,93,53,0,

153,146,0,93,53,0,

152,146,0,92,53,0,

152,145,0,92,52,0,

151,144,0,91,52,0,

150,143,0,91,52,0,

149,143,0,91,51,0,

149,143,0,91,51,0,

147,142,0,90,51,0,

147,141,0,90,51,0,

147,141,0,89,51,0,

145,140,1,89,50,0,

145,140,1,88,50,0,

144,139,0,88,50,0,

143,139,0,88,50,0,

143,138,0,87,49,0,

142,137,0,87,49,0,

142,137,0,86,49,0,

141,135,0,86,49,0,

140,135,0,86,49,0,

140,135,0,85,48,0,

139,135,0,85,48,0,

139,134,0,84,48,0,

137,133,0,84,48,0,

137,133,0,83,48,0,

137,132,0,83,47,0,

135,131,0,83,47,0,

135,131,0,82,47,0,

135,131,0,82,47,0,

134,130,0,82,46,0,

133,129,0,81,46,0,

133,129,0,81,46,0,

132,128,0,81,46,0,

131,127,0,80,45,0,

170,127,0,80,46,0,

207,127,0,79,45,0,

206,126,0,79,45,0,

205,126,0,79,45,0,

204,125,0,79,45,0,

202,124,0,78,45,0,

201,124,0,78,44,0,

199,124,0,79,44,0,

199,123,0,79,44,0,

198,123,0,78,44,0,

197,122,0,78,44,0,

196,121,0,77,43,0,

195,121,0,77,43,0,

194,121,0,77,43,0,

193,120,0,76,43,0,

192,129,0,76,43,0,

192,127,0,76,43,0,

190,127,0,75,42,0,

189,127,0,75,42,0,

188,126,0,75,42,0,

187,125,0,74,41,0,

186,125,0,74,41,0,

185,124,0,74,41,0,

185,124,0,73,41,0,

184,123,0,73,41,0,

183,123,0,71,41,0,

182,122,0,72,39,0,

181,121,0,71,39,0,

181,121,0,71,40,0,

179,120,0,71,39,0,

178,120,0,71,39,0,

178,119,0,71,39,0,

177,119,0,71,39,0,

176,118,0,70,39,0,

175,117,0,70,39,0,

175,117,0,69,39,0,

174,116,0,69,39,0,

173,116,0,69,39,0,

172,115,0,68,38,0,

171,115,0,68,38,0,

170,115,0,67,38,0,

169,114,0,67,38,0,

169,113,0,81,38,0,

167,113,0,82,38,0,

167,113,0,81,37,0,

167,112,0,80,37,0,

166,112,0,80,39,0,

165,111,0,79,39,0,

164,111,0,79,38,0,

163,110,0,79,38,0,

163,110,0,79,38,0,

162,110,0,78,38,0,

161,109,0,78,37,0,

161,108,0,77,37,0,

159,108,0,77,37,0,

159,108,0,77,37,0,

158,107,0,76,36,0,

158,107,0,76,36,0,

181,106,0,76,37,1,

193,176,0,75,36,0,

192,192,0,75,36,0,

190,191,0,74,35,0,

189,190,0,74,35,0,

188,189,0,74,35,0,

187,188,0,73,35,0,

186,186,0,73,35,0,

185,185,0,72,35,0,

184,185,0,71,35,0,

184,184,0,71,34,0,

182,184,0,71,34,1,

182,182,0,71,34,0,

180,182,0,71,34,0,

179,180,0,71,34,0,

178,179,0,70,33,0,

178,179,0,70,34,0,

177,178,0,69,33,0,

176,176,0,69,33,0,

175,176,0,69,33,1,

174,175,0,68,33,0,

174,174,0,68,33,0,

173,173,0,68,32,0,

172,173,0,67,32,0,

171,172,0,67,31,0,

171,171,0,67,32,0,

169,170,0,67,31,0,

169,169,0,66,31,0,

167,169,0,66,31,0,

167,167,0,66,31,0,

167,167,0,65,31,0,

166,166,0,65,31,0,

165,165,0,65,31,0,

164,165,0,64,31,0,

163,163,0,64,31,0,

163,163,0,63,31,0,

162,162,0,63,30,0,

161,161,0,63,31,0,

159,160,0,63,30,0,

159,159,0,63,30,1,

159,159,0,62,30,0,

158,158,0,62,30,0,

157,157,0,105,29,0,

156,157,0,103,29,0,

156,156,0,103,29,0,

155,155,0,103,29,0,

154,154,0,102,29,0,

153,153,0,101,29,0,

153,153,0,101,29,0,

152,152,0,100,29,0,

152,152,0,99,28,0,

151,151,0,99,28,0,

150,150,0,99,28,0,

149,149,0,98,28,0,

149,148,0,98,28,0,

148,148,0,97,28,0,

147,147,0,97,27,0,

147,147,0,96,27,0,

146,146,0,96,27,0,

145,145,0,96,30,0,

145,144,0,95,29,0,

144,143,0,94,29,0,

143,143,0,94,29,0,

143,143,0,93,29,0,

142,142,0,93,28,0,

142,141,0,93,28,0,

141,140,0,92,29,0,

140,140,0,92,28,0,

140,139,0,91,28,0,

139,139,0,91,28,0,

138,138,0,90,28,0,

138,137,0,90,36,0,

137,137,0,89,58,0,

137,135,0,89,57,0,

135,135,0,88,57,0,

135,135,1,88,56,0,

135,134,0,88,56,0,

134,134,0,88,56,0,

134,133,0,87,56,0,

133,133,0,87,55,0,

132,131,0,86,55,0,

131,131,0,86,54,0,

131,131,0,85,54,0,

131,130,0,85,54,0,

130,130,0,85,54,0,

129,129,0,84,53,0,

129,128,0,83,53,0,

128,127,0,83,52,0,

127,127,0,83,53,0,

127,127,0,83,52,0,

126,126,0,82,51,0,

126,125,0,82,51,0,

125,125,0,82,51,0,

125,124,0,81,51,0,

124,124,0,80,51,0,

124,123,0,80,51,0,

124,123,0,79,50,0,

123,122,0,79,50,0,

122,121,0,79,49,0,

122,121,0,79,49,0,

121,120,0,79,49,0,

121,120,0,78,49,1,

120,120,0,78,48,0,

120,119,0,77,48,0,

119,119,0,77,48,0,

119,118,0,77,48,0,

118,117,0,76,48,0,

118,117,0,76,47,0,

117,116,0,76,47,0,

117,116,0,75,47,0,

116,115,0,75,46,0,

115,115,0,74,46,0,

115,114,0,75,46,0,

115,113,0,74,46,0,

114,113,0,74,45,0,

114,113,0,73,45,0,

113,112,0,73,45,0,

112,112,0,73,44,0,

112,111,0,73,45,0,

112,111,0,72,48,0,

111,110,0,71,48,0,

111,110,0,71,47,0,

110,110,0,71,47,0,

110,109,0,71,47,0,

109,108,0,71,46,0,

109,108,0,71,46,0,

108,108,0,70,46,0,

108,107,0,70,45,0,

107,107,0,70,46,0,

107,106,0,69,45,0,

106,106,0,69,45,0,

106,105,0,69,45,0,

105,103,0,68,44,0,

105,103,0,67,44,0,

104,103,0,67,44,0,

103,141,0,67,44,0,

103,140,0,67,44,0,

103,140,0,66,43,0,

103,139,0,66,43,0,

103,138,0,66,43,0,

102,137,0,66,43,0,

102,135,0,65,42,0,

101,135,0,65,42,0,

100,135,0,65,43,0,

100,135,0,64,42,0,

99,134,0,64,42,0,

99,133,0,63,41,0,

99,132,0,63,41,0,

99,132,0,63,41,0,

98,131,0,63,41,0,

98,131,0,63,41,0,

97,130,0,63,41,0,

97,129,0,62,39,0,

96,129,0,62,39,0,

96,128,0,62,92,0,

96,127,0,61,91,0,

95,127,0,61,90,0,

95,127,0,61,90,0,

95,126,0,60,89,0,

94,125,0,60,89,0,

94,125,0,61,88,0,

94,124,0,61,88,0,

93,123,0,60,88,0,

93,123,0,60,87,0,

92,123,0,60,87,0,

92,122,0,59,87,0,

92,121,0,59,86,0,

91,121,0,59,86,0,

91,120,0,59,85,0,

91,120,0,58,85,0,

90,119,0,59,84,0,

90,119,0,58,83,0,

89,118,0,57,83,0,

89,118,0,57,83,0,

89,116,0,57,83,0,

88,116,0,57,82,0,

88,115,0,57,82,0,

93,115,0,57,81,0,

93,115,0,56,81,0,

93,114,0,56,81,0,

94,114,0,56,80,0,

94,113,0,56,79,0,

93,113,0,56,79,0,

92,112,0,56,79,0,

92,112,0,55,79,0,

92,111,0,63,78,0,

91,111,0,69,78,0,

91,110,0,68,77,0,

90,110,0,68,77,0,

90,109,0,67,77,1,

89,109,0,67,77,0,

89,108,0,67,84,0,

88,108,0,66,83,0,

88,108,0,66,83,0,

88,107,0,66,83,0,

88,106,0,66,82,0,

88,106,0,65,82,0,

87,105,0,65,81,0,

87,105,0,65,81,0,

86,103,0,65,81,0,

86,103,0,63,79,0,

85,103,0,63,79,0,

85,103,0,63,79,0,

85,103,0,63,79,0,

84,102,0,63,78,0,

83,102,0,62,78,0,

83,102,0,62,78,1,

83,101,0,62,77,0,

83,101,0,62,77,0,

83,100,0,61,77,0,

82,99,0,61,76,0,

82,100,0,60,76,0,

81,99,0,60,76,0,

81,99,0,61,75,0,

81,98,0,60,75,0,

80,98,0,60,75,0,

80,97,0,59,74,0,

80,97,1,59,74,0,

79,97,0,59,73,0,

79,96,0,59,73,0,

79,96,0,59,73,0,

79,96,0,58,73,0,

78,96,0,57,73,0,

78,95,0,57,73,0,

78,95,0,57,71,0,

77,94,0,57,71,0,

77,94,0,57,71,0,

77,94,0,56,71,0,

77,93,0,56,71,0,

76,93,0,56,71,0,

76,93,0,56,70,0,

76,92,0,56,70,0,

76,92,0,56,70,0,

76,91,0,55,70,0,

75,91,0,55,69,0,

75,91,0,55,69,0,

74,90,0,55,69,0,

74,90,0,54,68,0,

73,89,0,54,67,0,

73,89,0,54,67,0,

73,89,0,54,67,0,

73,89,0,53,67,0,

73,89,0,53,67,0,

72,88,0,53,67,0,

71,88,0,52,66,0,

71,88,0,52,66,0,

71,88,0,52,65,0,

71,87,0,52,65,0,

71,86,0,51,65,0,

71,86,0,51,65,0,

71,86,0,54,64,0,

70,86,0,53,63,0,

70,85,0,53,64,0,

70,85,0,53,63,0,

70,84,0,53,63,0,

69,84,0,53,70,0,

69,84,0,52,71,0,

68,83,0,51,71,0,

68,83,0,51,71,0,

68,83,0,51,71,0,

67,83,0,51,71,0,

67,83,0,51,70,0,

67,82,0,51,70,0,

67,82,0,50,70,0,

67,81,0,50,70,0,

79,81,0,50,69,0,

79,81,0,50,69,0,

79,81,0,50,68,0,

78,117,0,49,68,0,

78,116,0,49,67,0,

77,115,0,49,67,0,

77,115,0,49,67,0,

77,114,0,49,67,0,

76,114,0,48,66,0,

76,113,0,48,66,0,

76,112,0,48,66,0,

76,112,0,48,65,0,

75,111,0,48,65,0,

75,111,0,48,65,1,

74,110,0,48,64,0,

74,110,0,48,64,0,

73,109,0,48,63,0,

73,109,0,47,63,0,

73,108,0,47,63,0,

73,108,0,47,63,0,

71,107,0,46,63,0,

71,107,0,46,62,0,

71,106,0,46,62,0,

71,105,0,56,62,0,

71,105,0,56,61,0,

71,105,0,55,61,0,

70,103,0,55,61,0,

70,103,0,54,60,0,

70,103,0,54,60,0,

69,103,0,54,60,0,

69,102,0,53,61,0,

68,102,0,54,61,0,

68,101,1,53,60,0,

68,101,0,52,60,0,

67,100,0,52,60,0,

67,99,0,52,59,0,

67,99,0,52,59,0,

66,99,0,51,59,0,

66,98,0,51,59,0,

66,98,0,51,58,0,

66,97,0,51,58,0,

66,97,0,51,57,0,

65,97,0,51,57,0,

65,96,0,50,57,0,

65,96,0,50,57,0,

64,96,0,50,57,0,

64,95,0,49,57,0,

64,95,0,49,56,0,

63,94,0,49,56,0,

63,94,0,67,56,0,

63,94,0,67,56,0,

63,93,0,67,56,0,

63,93,0,66,56,0,

71,92,0,66,56,0,

71,92,0,65,55,0,

70,92,0,65,54,0,

70,91,0,64,54,0,

70,91,0,64,54,1,

69,91,0,64,54,0,

69,90,0,63,54,0,

69,89,0,63,53,0,

68,89,0,63,53,0,

68,89,0,63,53,0,

67,88,0,63,53,0,

67,126,0,62,52,0,

67,124,0,62,52,0,

67,123,0,62,51,0,

102,123,0,61,54,0,

170,122,0,61,53,0,

167,121,0,61,53,0,

167,120,0,61,53,0,

166,120,0,60,52,0,

165,120,0,60,52,0,

164,119,0,60,51,0,

163,118,0,59,51,0,

163,117,0,59,51,0,

162,117,0,59,51,0,

161,115,0,58,51,0,

160,115,0,58,50,0,

159,115,0,57,54,0,

159,114,0,58,53,0,

158,113,0,57,53,0,

156,113,0,57,53,0,

156,112,0,57,52,0,

156,112,0,56,52,0,

155,112,0,56,51,0,

154,111,0,56,51,0,

153,111,0,56,51,0,

152,110,0,56,51,0,

152,109,0,55,50,0,

152,109,0,55,50,0,

151,108,0,54,50,0,

150,108,0,54,50,0,

149,107,1,54,49,0,

148,107,0,53,49,0,

147,106,0,53,49,0,

147,105,0,53,49,0,

147,105,0,53,49,0,

146,105,0,53,48,0,

145,103,0,53,48,0,

143,103,0,52,48,0,

143,103,0,52,48,0,

143,103,0,51,47,0,

142,102,0,51,48,0,

141,102,0,51,48,0,

141,101,0,51,47,0,

140,101,0,51,47,0,

140,100,0,50,46,0,

139,99,1,50,46,0,

138,99,0,86,46,0,

138,99,0,85,46,0,

137,98,0,85,45,0,

135,98,0,84,45,0,

135,98,0,83,45,0,

135,97,0,83,45,0,

135,96,0,83,45,0,

134,96,0,82,44,0,

133,96,0,82,44,0,

133,96,0,82,44,0,

132,95,0,81,44,0,

131,94,0,81,43,0,

131,94,0,80,43,0,

131,94,0,79,43,0,

130,93,0,79,43,0,

129,93,0,79,43,0,

129,92,0,79,43,0,

128,92,0,79,42,0,

127,91,0,78,41,0,

127,91,0,78,53,0,

127,91,0,77,52,0,

126,90,0,77,52,0,

125,89,0,76,51,0,

125,89,0,76,51,0,

124,89,0,76,51,0,

124,89,0,75,51,0,

123,89,0,76,51,0,

123,89,0,75,50,0,

122,89,0,75,50,0,

121,89,0,74,50,0,

121,88,0,73,49,0,

121,88,0,73,49,0,

120,87,0,73,49,0,

120,87,0,73,49,0,

119,86,0,73,49,0,

118,86,0,71,48,0,

118,86,0,71,48,0,

118,86,0,71,48,0,

117,85,0,71,48,0,

116,85,0,71,47,0,

116,84,0,71,47,0,

115,83,0,70,47,0,

115,83,0,70,48,0,

115,83,0,70,48,0,

114,82,0,69,48,0,

113,82,0,69,47,0,

113,82,0,68,47,0,

112,81,0,68,47,0,

112,81,0,67,47,0,

112,81,0,67,46,0,

111,80,0,67,46,1,

111,80,0,67,46,0,

110,79,0,67,45,0,

110,79,0,66,45,0,

109,79,0,66,45,0,

109,79,0,66,45,0,

108,78,0,66,45,0,

108,79,0,65,45,0,

107,78,0,65,44,0,

107,78,0,65,44,0,

107,77,0,64,44,0,

106,77,0,64,44,0,

105,77,0,63,43,0,

105,76,0,63,43,0,

103,76,0,63,43,0,

103,76,0,63,43,0,

103,76,0,62,42,0,

103,75,0,62,42,0,

103,75,0,62,42,0,

103,74,0,62,42,0,