
54,10,0,61,22,0,

54,10,0,60,22,0,

53,10,0,60,21,0,

54,10,0,60,22,0,

53,10,0,60,22,0,

53,9,0,59,21,0,

52,9,0,59,21,0,

52,9,0,59,21,0,

52,9,0,59,21,0,

52,9,0,58,21,0,

51,9,0,85,21,0,

51,9,0,84,21,0,

51,9,0,83,21,0,

51,9,0,84,21,0,

50,9,0,83,20,1,

51,9,0,83,20,0,

50,9,0,82,20,0,

50,9,0,82,20,0,

50,9,0,81,20,0,

50,9,0,81,19,0,

49,9,0,81,19,0,

49,9,0,80,20,0,

49,9,0,79,19,0,

49,9,0,79,19,0,

48,7,0,79,19,0,

48,8,0,79,19,0,

48,8,0,79,19,0,

48,8,0,79,21,0,

48,7,0,78,22,0,

47,8,0,77,22,0,

48,7,0,77,22,0,

47,7,0,77,22,0,

47,7,0,77,22,0,

46,7,0,76,21,0,

46,7,0,76,21,0,

46,7,0,76,21,0,

48,7,0,76,21,0,

48,7,0,75,21,0,

48,7,0,75,21,0,

48,7,0,74,21,0,

48,7,0,74,21,0,

48,7,0,74,20,0,

47,7,0,73,20,0,

47,7,0,73,20,0,

47,7,0,73,20,0,

46,7,0,73,20,0,

46,7,0,73,20,0,

46,7,0,71,20,0,

46,7,0,71,19,0,

46,7,0,71,20,0,

46,7,0,71,19,0,

45,7,0,71,19,0,

45,7,0,71,19,0,

45,7,0,71,19,0,

44,7,0,70,19,0,

44,7,0,70,19,0,

44,7,0,69,19,0,

44,7,0,69,19,0,

44,7,0,69,19,0,

44,7,0,69,19,0,

44,7,0,69,19,0,

43,7,0,68,18,0,

43,7,0,67,18,0,

43,7,0,68,18,0,

43,7,0,67,18,0,

43,7,0,67,18,0,

42,7,0,67,18,0,

42,7,0,67,18,0,

42,7,0,66,18,0,

41,6,0,66,18,0,

41,7,0,66,18,0,

41,7,0,65,17,0,

41,6,0,66,17,0,

41,6,0,65,18,0,

41,6,0,65,17,0,

39,6,0,64,17,0,

41,6,0,64,17,0,

39,6,0,63,17,0,

39,6,0,63,17,0,

39,6,0,63,17,0,

39,6,0,63,17,0,

39,6,0,63,17,0,

39,6,0,62,16,0,

39,6,0,62,16,0,

39,6,0,62,16,0,

39,6,0,62,16,0,

39,6,0,62,16,0,

39,6,0,61,16,0,

38,6,0,61,16,0,

38,6,0,61,16,0,

38,6,0,61,16,0,

38,6,0,60,15,0,

38,6,0,60,16,0,

37,6,0,60,15,0,

38,5,0,60,15,0,

37,6,0,59,15,0,

37,6,0,59,15,0,

37,6,0,59,15,0,

37,6,0,59,15,0,

37,5,0,58,15,0,

36,5,0,58,15,0,

36,5,0,58,15,0,

36,5,0,58,15,0,

35,5,0,57,15,0,

35,5,0,57,15,0,

35,5,0,57,15,0,

35,5,0,57,15,0,

35,5,0,57,14,0,

35,5,0,56,14,0,

35,5,0,56,14,0,

35,5,0,56,14,0,

34,5,0,56,14,0,

34,5,0,56,15,0,

34,5,0,55,18,0,

34,5,0,55,20,0,

34,5,0,55,19,0,

33,5,0,54,19,0,

33,5,0,54,19,0,

33,4,0,54,19,0,

33,5,0,54,19,0,

34,5,0,54,19,0,

34,4,0,54,19,0,

34,5,0,53,18,0,

33,12,0,53,19,0,

33,17,0,53,18,0,

33,17,0,53,18,0,

33,17,0,52,18,0,

33,16,0,52,18,0,

32,16,0,52,18,0,

32,16,0,52,18,0,

32,16,0,51,17,0,

31,17,0,51,18,0,

31,16,0,52,18,0,

31,16,0,52,17,0,

31,16,0,51,17,0,

31,16,0,51,17,0,

31,15,0,51,17,0,

31,15,0,51,17,0,

31,15,0,51,17,0,

31,15,0,51,17,0,

31,15,0,51,17,0,

31,15,0,50,17,0,

30,15,0,50,16,0,

30,15,0,50,16,0,

30,15,0,49,16,0,

30,15,0,76,16,0,

31,15,0,75,16,0,

31,15,0,75,16,0,

31,14,0,75,15,0,

31,14,0,74,16,0,

31,14,0,74,15,0,

31,14,0,73,15,0,

31,14,0,73,21,0,

31,14,0,73,21,0,

30,14,0,71,21,0,

30,14,0,71,21,0,

30,14,0,71,20,0,

30,14,0,71,20,0,

30,13,0,71,20,0,

30,13,0,71,20,0,

30,14,0,70,21,0,

29,13,0,71,19,0,

29,14,0,70,19,0,

29,13,0,70,19,0,

29,13,0,69,19,0,

29,13,0,69,24,0,

29,13,0,68,24,0,

29,13,0,68,24,0,

28,13,0,68,24,0,

28,13,0,67,23,0,

28,13,0,67,23,0,

28,13,0,67,24,0,

28,13,0,67,23,0,

28,12,0,67,22,0,

28,12,0,66,22,0,

28,12,0,66,22,0,

27,12,0,66,22,0,

28,12,0,65,22,0,

27,12,0,65,31,0,

27,12,0,65,38,0,

27,12,0,64,38,0,

27,12,0,64,37,0,

27,12,0,64,37,0,

27,11,0,63,37,0,

26,11,0,63,37,0,

26,12,0,63,36,0,

26,11,0,63,36,0,

26,12,0,63,35,0,

26,12,0,62,35,0,

26,11,0,62,35,0,

25,12,0,62,36,0,

25,11,0,61,35,0,

25,11,0,61,35,0,

25,11,0,61,35,0,

25,11,0,60,35,0,

25,11,0,60,35,0,

25,11,0,60,35,0,

25,11,0,60,34,0,

25,11,0,60,34,0,

27,11,0,59,34,0,

27,11,0,59,34,0,

27,10,0,59,34,0,

27,10,0,59,34,0,

27,10,0,59,33,0,

26,10,0,58,33,0,

26,10,0,58,33,0,

26,10,0,57,33,0,

26,10,0,57,32,0,

25,10,0,57,33,0,

26,10,1,57,32,0,

27,10,0,57,32,0,

31,10,0,57,32,0,

30,9,0,56,32,0,

30,10,0,56,31,0,

30,9,0,56,31,0,

30,9,0,56,31,0,

30,9,0,56,33,0,

30,9,0,56,33,0,

30,9,0,55,32,0,

29,9,0,55,32,0,

29,9,0,55,31,0,

29,9,0,54,31,0,

29,9,0,54,31,0,

29,9,0,54,31,0,

28,9,0,54,31,0,

28,9,0,54,31,0,

28,9,0,53,31,0,

28,9,0,53,31,0,

28,9,0,53,31,0,

28,9,0,53,30,0,

28,9,0,53,31,0,

28,9,0,52,30,0,

28,9,0,51,30,0,

28,8,0,52,30,0,

27,9,0,51,30,0,

27,9,0,51,30,0,

27,8,0,51,30,0,

27,8,0,51,29,0,

29,7,0,51,29,0,

31,8,0,51,30,0,

31,7,0,51,29,0,

31,7,0,50,29,0,

30,8,0,50,29,0,

31,7,0,49,29,0,

30,7,0,49,33,0,

30,7,0,49,32,0,

30,7,0,49,32,0,

30,7,0,49,32,0,

30,7,0,49,32,0,

30,7,0,48,32,0,

29,7,0,48,31,0,

31,7,0,60,31,0,

70,7,0,60,31,0,

70,7,0,60,31,0,

70,7,0,60,31,0,

69,7,0,60,31,0,

69,7,0,59,31,0,

68,7,0,59,31,0,

68,7,0,59,30,0,

68,7,0,59,30,0,

67,7,1,59,30,0,

67,7,0,58,30,0,

67,7,0,58,30,0,

67,7,0,58,30,0,

66,7,0,57,30,0,

66,7,0,57,29,0,

68,7,0,57,29,0,

68,7,0,57,29,0,

67,7,0,56,29,0,

67,7,0,56,29,0,

67,7,0,56,29,0,

66,7,0,56,29,0,

66,7,0,56,29,0,

66,7,0,55,29,0,

66,7,0,55,29,0,

65,7,0,55,28,0,

65,7,0,55,28,0,

65,7,0,54,28,0,

64,7,0,54,28,0,

64,7,0,69,27,0,

63,7,0,75,27,0,

63,7,0,74,27,0,

63,7,0,74,27,0,

63,7,0,73,27,0,

63,7,0,73,27,0,

63,7,0,71,27,0,

62,7,0,71,27,0,

62,7,0,71,26,0,

62,6,0,71,26,0,

61,7,0,71,26,0,

61,6,0,71,26,0,

61,7,0,71,26,0,

61,6,0,71,25,0,

60,6,0,70,25,0,

60,7,0,70,26,0,

60,6,0,70,25,0,

59,6,0,70,25,0,

59,6,0,69,25,0,

59,6,0,69,25,0,

59,6,0,68,25,0,

59,6,0,68,25,0,

58,6,0,68,25,0,

58,6,0,67,25,0,

58,6,0,67,25,0,

57,6,0,67,24,0,

57,6,0,67,24,0,

57,6,0,66,24,0,

56,7,1,66,24,0,

56,6,0,66,24,0,

56,6,0,66,24,0,

56,7,0,65,24,0,

56,6,0,65,24,0,

56,6,0,65,24,0,

56,6,0,64,25,0,

55,6,0,64,25,0,

55,6,0,63,24,0,

55,6,0,63,24,0,

54,7,0,63,25,0,

54,6,0,63,24,0,

54,6,0,63,24,0,

54,6,0,62,24,0,

53,6,0,62,24,0,

53,6,0,62,24,0,

53,6,0,62,24,0,

53,13,0,61,24,0,

52,14,0,61,24,0,

52,14,0,61,23,0,

51,13,0,61,23,0,

51,14,0,61,23,0,

51,14,0,60,23,0,

51,14,0,60,22,0,

51,13,0,60,23,0,

51,13,0,59,23,0,

50,13,0,59,23,0,

50,13,0,59,22,0,

50,13,0,59,22,0,

50,13,0,58,22,0,

50,13,0,58,22,0,

49,13,0,58,36,0,

49,13,0,57,41,0,

49,13,0,57,41,0,

48,13,0,57,39,0,

48,13,0,57,40,0,

48,13,0,56,40,0,

48,12,0,56,39,0,

48,12,0,56,39,0,

48,12,0,56,39,0,

48,12,0,56,39,0,

48,12,0,56,39,0,

47,12,0,55,39,0,

47,12,0,55,39,0,

46,12,0,55,39,0,

46,12,0,54,38,0,

46,12,0,54,38,0,

46,12,0,54,38,0,

46,12,0,54,38,0,

45,12,0,53,38,0,

45,12,0,53,37,0,

45,12,0,53,37,0,

45,12,0,53,37,0,

45,12,0,53,37,0,

44,12,0,52,37,0,

44,11,0,52,36,0,

44,12,0,52,36,0,

44,12,0,51,36,0,

44,11,0,51,36,0,

43,11,0,51,35,0,

44,11,0,51,35,0,

43,11,0,50,35,0,

43,11,0,50,35,0,

43,11,0,50,35,0,

43,11,0,50,35,0,

42,11,0,50,35,0,

42,11,0,50,34,0,

42,11,0,50,34,0,

42,11,1,49,34,0,

41,11,0,49,34,0,

41,10,0,49,33,0,

41,10,0,48,34,0,

41,10,0,48,33,0,

41,10,0,48,33,1,

39,10,0,48,33,0,

39,10,0,48,33,0,

39,10,0,48,32,0,

39,9,0,47,32,0,

39,10,0,47,32,0,

39,9,0,47,32,0,

39,9,0,56,31,0,

39,10,0,56,31,0,

39,9,0,56,31,0,

39,9,0,56,31,0,

38,9,0,55,31,0,

38,9,0,55,31,0,

39,9,0,54,31,0,

38,9,0,54,31,0,

38,9,0,54,31,0,

38,9,0,54,31,0,

37,9,0,54,30,0,

38,9,0,53,30,0,

37,9,0,53,30,0,

37,9,0,80,30,0,

37,8,0,79,30,0,

37,9,0,79,29,0,

37,9,0,79,29,1,

36,9,0,78,29,0,

36,9,0,78,29,0,

36,9,0,77,29,0,

35,9,0,77,29,0,

36,7,0,77,29,0,

35,9,0,77,29,0,

35,7,0,76,28,0,

35,8,0,76,28,0,

35,7,0,76,28,0,

35,7,0,76,28,0,

35,7,0,75,28,0,

35,7,0,74,28,0,

35,7,0,74,27,0,

35,7,0,73,28,0,

35,7,0,73,27,0,

35,7,0,73,27,0,

35,7,0,73,27,0,

35,7,0,73,27,0,

35,7,0,71,27,0,

34,7,0,71,27,0,

34,7,0,71,26,0,

34,7,0,71,26,0,

34,7,0,71,26,0,

34,7,0,71,26,0,

34,7,0,71,26,0,

34,12,0,70,26,0,

34,14,0,70,26,0,

34,14,0,70,25,0,

34,14,0,69,25,0,

33,14,0,69,25,0,

33,14,0,69,25,0,

33,14,0,68,25,0,

33,14,0,68,25,0,

33,14,0,67,25,0,

33,13,0,67,24,0,

32,13,0,67,24,0,

32,13,0,67,24,0,

32,13,0,67,24,0,

33,13,0,66,24,0,

33,13,0,66,24,0,

33,13,0,66,24,0,

32,13,0,65,24,0,

32,13,0,65,24,0,

32,13,0,65,24,0,

32,13,0,65,24,0,

31,13,0,64,23,0,

31,13,0,63,23,0,

31,12,0,63,23,0,

31,12,0,63,23,0,

31,13,0,63,23,0,

31,12,0,63,22,0,

31,12,0,63,23,0,

31,12,0,63,23,0,

30,12,0,63,22,0,

30,12,0,63,22,0,

30,12,0,63,22,0,

30,12,0,62,22,0,

30,12,0,62,22,0,

30,12,0,62,22,0,

30,12,0,61,21,0,

30,12,0,61,22,0,

29,12,0,61,21,0,

29,12,0,61,21,0,

29,12,0,63,21,0,

30,12,0,63,21,0,

30,12,0,63,21,0,

30,11,0,62,21,0,

30,12,0,62,21,0,

30,11,0,62,20,0,

30,11,0,61,20,0,

29,11,0,61,20,0,

29,11,0,61,20,0,

29,11,0,60,21,0,

29,11,0,60,21,0,

29,11,0,60,21,0,

29,11,0,60,20,0,

29,11,0,60,20,0,

28,11,0,59,21,0,

29,11,0,59,20,1,

29,11,0,59,20,0,

29,10,0,58,20,0,

29,11,0,58,35,0,

29,11,0,58,59,0,

29,10,0,57,63,0,

28,10,0,57,63,0,

28,10,0,57,62,0,

28,10,0,57,62,0,

28,9,0,57,61,0,

28,10,0,57,61,0,

28,9,0,56,61,0,

30,10,0,74,60,0,

35,10,0,74,60,0,

35,10,0,73,60,0,

35,9,0,73,60,0,

34,9,0,73,59,0,

34,9,0,73,59,0,

34,9,0,71,59,0,

34,9,0,71,59,0,

33,9,0,71,59,0,

33,9,0,71,58,0,

33,9,0,71,58,0,

33,9,0,71,57,0,

33,9,0,70,57,0,

33,9,0,70,57,0,

33,9,0,70,57,0,

33,9,0,69,56,0,

33,9,0,69,56,0,

32,9,0,69,56,0,

32,9,0,68,56,0,

31,9,0,68,56,0,

31,9,0,67,55,0,

31,8,0,67,55,0,

31,9,0,67,55,0,

31,7,0,67,55,0,

31,8,0,67,54,0,

31,8,0,66,54,0,

31,7,0,66,54,0,

31,7,0,66,54,0,

31,7,0,65,53,0,

30,9,0,65,53,0,

31,9,0,65,53,0,

30,9,0,65,53,0,

30,9,0,65,52,0,

30,9,0,64,52,0,

30,9,0,63,51,0,

30,9,0,63,51,0,

30,9,0,63,51,0,

29,9,0,63,51,0,

29,9,0,63,51,0,

29,9,0,63,50,0,

29,9,0,62,50,0,

39,9,0,62,50,0,

41,9,0,62,50,0,

40,8,0,62,50,0,

39,7,0,61,49,0,

39,7,0,61,49,0,

39,7,0,61,49,0,

39,7,0,61,49,0,

39,7,0,60,48,0,

39,7,0,60,48,0,

39,7,0,60,48,0,

39,7,0,59,48,0,

38,7,0,59,48,0,

38,7,0,59,48,0,

38,7,0,59,48,0,

38,7,0,59,47,0,

38,7,0,58,47,0,

38,7,0,58,47,0,

38,7,0,57,46,0,

37,7,0,57,46,0,

37,7,0,57,46,0,

37,7,0,57,46,0,

37,7,0,57,46,0,

36,7,0,57,45,0,

36,7,0,57,45,0,

36,7,0,56,45,0,

36,7,0,56,45,0,

35,7,0,56,45,0,

35,7,0,56,44,0,

35,7,0,71,44,0,

35,7,0,71,44,0,

35,7,0,71,44,0,

35,7,0,70,43,0,

35,7,0,70,44,0,

35,7,0,70,44,0,

34,7,0,70,43,0,

34,7,0,69,43,0,

34,7,0,69,42,0,

34,7,0,69,42,0,

34,7,0,68,42,0,

34,6,0,67,42,0,

34,6,0,67,42,0,

33,6,0,67,41,0,

34,7,0,67,41,0,

34,7,0,67,41,0,

33,6,0,67,41,0,

33,6,0,66,41,0,

33,6,0,66,41,0,

33,6,0,66,39,0,

33,6,0,65,39,0,

33,6,0,65,39,0,

33,6,0,65,39,0,

32,6,0,65,39,0,

32,6,0,64,39,0,

32,6,0,64,39,0,

31,6,0,66,39,0,

31,6,0,115,39,0,

32,6,0,117,39,0,

33,6,0,115,39,0,

32,6,0,115,38,0,

31,6,0,115,39,0,

32,6,0,114,38,0,

31,6,0,114,63,0,

31,6,0,113,103,0,

31,6,0,112,102,0,

31,6,0,112,101,0,

31,5,0,112,100,0,

31,6,0,111,99,0,

31,5,0,110,99,0,

31,5,0,110,99,0,

32,5,0,109,98,0,

33,5,0,109,98,0,

33,5,0,109,97,0,

33,5,0,108,97,0,

33,5,0,108,96,0,

33,5,0,107,96,0,

33,5,0,107,96,0,

32,5,0,106,95,0,

32,5,0,106,95,0,

32,5,0,105,94,0,

31,5,0,105,94,0,

31,5,0,103,93,0,

31,5,0,103,93,0,

34,5,0,103,92,0,

34,5,0,103,92,0,

34,5,0,103,92,0,

34,5,0,102,91,0,

33,5,0,102,91,0,

33,5,0,101,91,0,

33,5,0,101,90,0,

33,5,0,100,90,0,

33,5,0,100,89,0,

33,5,0,99,89,0,

32,5,0,99,89,0,

32,5,0,99,88,0,

32,5,0,98,88,0,

31,5,0,98,88,0,

31,4,0,98,87,0,

31,4,0,97,87,0,

31,5,0,97,87,0,

31,5,0,96,86,0,

31,4,0,96,86,0,

31,5,0,96,85,0,

31,4,0,96,85,0,

30,5,0,95,84,0,

31,4,0,94,84,0,

30,4,0,94,83,0,

30,4,0,94,83,0,

30,4,0,94,83,0,

30,4,0,93,83,0,

30,4,0,93,82,0,

30,5,0,92,83,0,

30,4,0,92,82,0,

30,5,0,92,81,0,

30,4,0,91,81,0,

29,4,0,91,81,0,

29,4,0,91,80,0,

29,5,0,90,79,0,

29,4,0,90,79,0,

28,4,0,89,79,0,

29,4,0,89,79,0,

28,4,0,89,78,0,

28,4,0,88,78,0,

28,4,0,88,78,0,

35,4,0,88,78,0,

35,4,0,88,78,0,

38,4,0,87,77,0,

37,4,0,87,77,0,

37,4,0,87,76,0,

37,4,0,86,76,0,

37,4,0,86,76,0,

37,4,0,85,76,0,

36,4,0,85,75,1,

36,4,0,84,75,0,

36,4,0,85,75,0,

36,4,0,84,74,0,

35,4,0,83,74,0,

35,4,0,83,73,0,

39,5,0,83,73,0,

39,5,0,83,73,0,

38,5,0,82,73,0,

38,5,0,82,73,0,

38,5,0,82,71,0,

38,5,0,81,71,0,

38,5,0,81,71,0,

37,5,0,81,71,0,

37,5,0,80,71,0,

37,5,0,79,71,0,

37,5,0,80,71,0,

36,5,0,79,70,0,

36,5,0,79,70,0,

36,5,0,79,70,0,

36,5,0,79,69,0,

36,4,0,78,69,0,

36,5,0,78,69,0,

36,5,0,78,68,0,

35,5,0,78,68,0,

35,4,0,77,68,0,

35,4,0,77,67,0,

35,5,0,77,67,0,

35,4,0,76,67,0,

35,4,0,76,67,0,

35,4,0,76,67,0,

35,4,0,76,66,0,

34,4,0,75,66,0,

35,4,0,75,66,0,

34,4,0,75,65,0,

34,4,0,75,65,0,

34,4,0,74,65,0,

34,4,0,74,64,0,

33,4,0,73,64,0,

33,4,0,73,64,0,

33,3,0,73,63,0,

33,4,0,73,63,0,

33,4,0,73,63,0,

33,4,0,71,63,0,

32,3,0,71,63,0,

32,3,0,71,62,0,

32,4,0,99,62,0,

34,4,0,98,62,1,

50,7,0,98,62,0,

49,7,0,97,62,0,

49,7,0,97,61,0,

49,7,0,97,61,0,

48,7,0,96,61,0,

48,7,0,96,60,0,

48,7,0,95,61,0,

48,7,0,95,60,0,

48,7,0,94,60,0,

47,7,0,94,60,0,

47,7,0,94,60,0,

47,7,0,93,59,0,

46,7,0,93,59,0,

46,7,0,93,59,0,

46,7,0,92,59,0,

46,7,0,92,58,0,

46,7,0,91,58,0,

46,6,0,91,57,0,

45,7,0,91,57,0,

45,7,0,90,57,0,

45,6,0,90,57,0,

45,7,0,89,56,0,

45,6,0,89,57,0,

44,7,0,89,56,0,

44,6,0,88,56,0,

44,6,0,88,56,0,

44,6,0,88,56,0,

44,6,0,88,56,0,

44,6,0,87,55,0,

43,6,0,86,55,0,

43,6,0,86,55,0,

43,6,0,86,55,0,

43,6,0,86,54,0,

43,6,0,85,54,0,

42,6,0,85,54,1,

42,6,0,84,54,0,

42,6,0,84,53,0,

41,6,0,84,53,0,

42,6,0,83,53,0,

41,5,0,83,53,0,

60,9,0,83,52,0,

60,9,0,83,52,0,

60,9,0,82,51,0,

59,9,0,82,52,0,

59,9,0,82,51,0,

59,9,0,81,51,0,

58,9,0,81,51,0,

58,9,0,81,51,0,

57,9,0,80,51,0,

57,9,0,79,50,0,

57,8,0,79,50,0,

57,7,0,79,50,0,

57,7,0,79,50,0,

56,7,0,78,49,0,

57,8,0,79,50,0,

57,7,0,78,49,0,

57,9,0,78,49,0,

56,8,0,78,49,0,

56,8,0,77,49,0,

56,7,0,77,49,0,

56,7,0,76,48,0,

56,7,0,76,48,0,

56,7,0,76,48,0,

55,7,0,76,48,0,

55,7,0,76,48,0,

55,7,0,75,48,0,

54,7,0,75,48,0,

54,7,0,74,47,0,

54,7,0,74,47,0,

54,7,0,73,47,0,

53,7,0,73,46,0,

53,7,0,73,46,0,

53,7,0,73,46,0,

53,7,0,71,46,0,

53,7,0,71,46,0,

52,7,0,71,46,0,

52,7,0,71,45,0,

51,7,0,71,46,0,

51,7,0,71,45,0,

51,7,0,71,44,0,

51,7,0,71,45,0,

51,7,0,70,44,0,

51,7,0,70,44,0,

50,7,0,70,44,0,

50,7,0,70,44,0,

50,7,0,69,44,0,

50,7,0,69,43,0,

49,7,0,69,43,0,

49,7,0,68,43,0,

49,7,0,68,43,0,

49,7,0,68,43,0,

48,6,0,67,43,0,

48,7,0,67,42,0,

48,7,0,67,42,0,

48,7,0,67,42,0,

48,6,0,67,42,0,

48,6,0,66,42,0,

47,7,0,66,41,0,

47,7,0,66,41,0,

47,7,0,66,41,0,

47,8,0,65,41,0,

46,7,0,65,51,0,

46,7,0,65,51,0,

46,7,0,65,50,0,

46,7,0,64,50,0,

46,7,0,64,50,0,

46,7,0,63,50,0,

45,7,0,63,49,0,

45,7,0,63,49,0,

45,7,0,63,49,0,

45,7,0,63,49,0,

45,7,0,63,49,0,

44,7,0,62,49,0,

44,7,0,62,48,0,

44,7,0,62,48,0,

44,7,0,62,48,0,

44,7,0,61,48,0,

44,7,0,61,47,0,

43,7,0,61,47,0,

43,7,0,60,47,0,

43,7,0,60,47,0,

43,7,0,60,47,0,

42,7,0,60,46,0,

42,7,0,60,46,0,

42,7,0,59,46,0,

41,7,0,59,45,0,

42,12,0,59,46,0,

41,12,0,59,45,0,

41,12,0,59,45,0,

41,12,0,58,45,0,

41,12,0,58,44,0,

39,12,0,58,47,0,

41,12,0,57,47,0,

39,12,0,57,47,0,

39,12,0,57,46,0,

39,11,0,57,46,0,

39,11,0,57,46,0,

39,11,0,60,46,0,

39,11,0,59,45,0,

39,11,0,59,45,0,

39,11,0,59,45,0,

39,11,0,59,45,0,

39,11,0,58,44,0,

38,11,0,58,44,0,

38,11,0,57,44,0,

38,11,0,57,44,0,

38,11,0,57,44,0,

38,10,0,57,44,0,

38,11,0,57,44,0,

37,11,0,56,43,0,

37,10,0,56,43,0,

37,10,0,56,43,0,

37,10,0,56,42,0,

36,10,0,56,42,0,

36,10,0,56,42,0,

36,10,0,56,42,0,

36,10,0,55,41,0,

36,10,0,55,42,0,

35,10,0,55,41,0,

35,10,0,55,41,0,

35,10,0,54,41,0,

35,9,0,54,41,0,

35,9,0,54,39,0,

36,9,0,54,41,0,

36,10,0,53,39,0,

35,10,0,53,39,0,

35,9,0,53,39,0,

35,9,0,53,39,0,

35,9,0,53,39,0,

35,9,0,52,39,0,

35,9,0,51,39,0,

34,9,0,51,39,0,

34,9,0,51,39,0,

34,9,0,51,39,0,

35,9,0,51,39,0,

34,9,0,51,39,0,

34,9,0,51,38,0,

51,9,0,51,39,0,

51,9,0,51,38,0,

51,9,0,51,38,0,

51,9,0,51,38,0,

51,9,0,51,37,0,

50,7,0,50,37,0,

50,8,0,50,37,0,

50,8,0,50,37,0,

49,7,0,50,37,0,

49,8,0,50,37,0,

49,9,0,49,36,0,

49,7,0,49,36,0,

48,7,0,49,36,0,

48,7,0,49,36,0,

51,8,0,49,36,0,

51,7,0,48,35,0,

50,7,0,48,35,0,

50,7,0,48,35,0,

50,7,0,48,35,0,

50,7,0,48,35,0,

50,7,0,48,35,0,

49,7,0,47,35,0,

49,7,0,47,35,0,

49,7,0,47,34,0,

49,7,0,47,34,0,

48,7,0,46,34,0,

48,7,0,46,34,0,

48,7,0,46,34,0,

48,7,0,46,34,0,

47,7,0,46,34,0,

47,7,0,46,33,0,

47,7,0,46,33,0,

47,7,0,45,33,0,

46,7,0,45,33,0,

47,7,0,45,33,0,

46,7,0,45,33,0,

46,7,0,44,32,0,

46,7,0,44,33,0,

45,7,0,44,33,0,

45,7,0,44,31,0,

45,7,0,44,31,0,

45,7,0,111,31,0,

45,7,0,110,31,0,

44,7,0,109,31,0,

44,7,0,108,31,0,

44,7,0,108,31,0,

44,6,0,108,31,0,

44,7,0,107,46,0,

43,6,0,106,45,0,

43,6,0,106,45,0,

43,6,0,105,45,0,

43,7,0,104,44,0,

43,6,0,103,44,0,

42,6,0,103,44,1,

42,6,0,103,44,0,

43,6,0,103,43,0,

42,6,0,102,43,0,

42,6,0,102,43,0,

42,6,0,102,43,0,

41,6,0,101,43,0,

41,6,0,101,44,0,

41,6,0,100,44,0,

41,6,0,99,44,0,

41,6,0,99,44,0,

41,6,0,99,44,0,

39,6,0,99,43,0,

40,6,0,98,43,0,

39,6,0,97,43,0,

39,6,0,97,43,0,

39,5,0,97,43,0,

39,6,0,96,42,0,

39,5,0,96,42,0,

39,5,0,96,42,0,

39,5,0,96,41,0,

39,5,0,95,41,0,

39,5,0,95,41,0,

39,5,0,94,41,0,

38,5,0,94,41,0,

38,5,0,93,41,0,

38,5,0,93,39,0,

38,5,0,93,39,0,

37,5,0,92,39,0,

37,5,0,92,39,0,

37,5,0,92,39,0,

37,6,0,92,39,0,

37,26,0,91,39,0,

37,79,0,90,39,0,

37,97,0,90,39,0,

37,96,0,89,39,0,

37,95,0,89,39,0,

37,95,0,89,38,0,

36,94,0,89,38,0,

36,93,1,88,38,0,

36,93,0,88,38,0,

35,93,0,88,38,0,

38,92,0,88,37,0,

70,92,0,87,37,0,

70,91,0,87,37,0,

69,91,0,86,37,0,

69,90,0,86,36,0,

68,90,0,85,36,0,

68,89,0,85,36,0,

67,89,0,84,35,0,

67,89,0,84,36,0,

67,88,0,83,35,0,

66,88,0,83,36,0,

67,88,0,83,36,0,

66,87,0,83,35,0,

66,87,0,83,35,0,

65,86,0,83,35,0,

65,94,0,83,34,0,

65,94,0,83,35,0,

64,93,0,82,35,0,

64,93,0,82,39,0,

64,92,0,81,39,0,

63,92,0,81,39,0,

63,92,0,80,39,0,

63,91,0,80,39,0,

63,91,0,79,38,0,

62,91,0,79,38,0,

62,90,0,79,38,0,

62,89,0,79,37,0,

62,89,0,79,37,0,

61,88,0,78,37,0,

61,88,0,78,37,0,

61,88,0,78,37,0,

60,88,0,77,36,0,

60,87,0,77,36,0,

60,87,0,77,36,0,

60,86,0,77,36,0,

60,86,0,76,35,0,

59,86,0,76,36,0,

59,85,0,76,35,0,

59,84,0,76,35,0,

59,84,0,75,35,0,

58,84,0,75,35,0,

58,83,0,74,35,0,

58,83,0,74,34,0,

57,83,0,74,34,0,

57,83,0,73,64,0,

57,83,0,73,71,0,

57,82,0,73,71,0,

56,82,0,71,71,0,

56,82,0,71,71,1,

56,81,0,71,71,0,

77,81,0,71,70,0,

76,80,0,71,70,0,

76,80,0,71,70,0,

76,79,0,71,69,0,

75,79,0,70,69,0,

75,79,0,70,69,0,

75,79,0,70,67,0,

74,78,0,70,67,0,

74,78,0,70,69,0,

73,78,0,69,79,1,

73,78,0,69,78,0,

73,77,0,68,78,0,

72,78,0,68,78,0,

71,78,0,67,77,0,

71,77,1,67,77,0,

71,77,0,67,77,0,

93,77,0,67,76,0,

102,77,0,67,76,0,

101,76,0,67,75,0,

100,76,0,66,75,0,

99,75,0,66,78,0,

99,75,0,66,78,0,

99,75,0,65,78,0,

98,74,0,65,77,0,

98,74,0,65,77,0,

97,73,0,65,77,0,

97,73,0,64,76,0,

96,73,0,63,76,0,

96,73,0,63,76,0,

142,71,0,63,75,0,

140,76,0,63,75,0,

139,76,0,63,75,0,

139,75,0,63,86,0,

138,75,0,62,112,0,

137,105,0,62,111,0,

135,162,0,62,110,0,

135,160,0,62,110,0,

135,159,0,61,109,0,

134,158,0,61,108,0,

133,157,0,61,108,0,

162,156,0,61,108,0,

221,155,0,61,107,0,

219,155,0,61,106,0,

217,154,0,60,105,0,

216,153,0,61,105,0,

214,152,0,60,103,0,

213,152,0,60,103,0,

211,151,0,60,103,0,

210,150,1,59,103,0,

209,149,0,59,102,0,

207,149,0,58,101,0,

207,147,0,126,101,0,

206,147,0,128,100,0,

205,146,0,127,100,0,

204,145,0,126,99,0,

203,144,0,126,99,0,

201,143,1,124,98,0,

199,143,0,124,98,1,

199,143,0,123,97,0,

199,142,0,123,97,0,

198,141,0,122,96,0,

196,140,0,121,96,0,

195,140,0,159,96,0,

194,139,0,157,95,0,

193,138,0,156,94,1,

192,137,1,155,94,0,

192,137,0,154,93,0,

190,135,0,153,93,0,

189,135,0,152,93,1,

188,135,0,152,92,0,

188,134,0,151,91,1,

187,134,0,150,91,0,

186,133,0,149,91,1,

185,132,1,148,90,0,

184,131,0,147,90,0,

184,133,0,147,89,0,

182,131,0,146,89,0,

181,131,0,145,88,0,

180,131,0,144,88,0,

179,129,1,143,87,0,

179,129,0,143,87,0,

177,128,0,142,87,0,

176,127,1,142,86,0,

176,127,0,141,86,0,

175,126,0,140,85,0,

174,186,0,140,85,0,

174,201,1,139,84,0,

173,199,0,138,84,0,

172,199,0,137,83,0,

171,197,0,137,83,1,

170,197,0,136,83,0,

169,195,0,135,82,0,

169,195,1,135,186,0,

167,193,0,135,188,0,

167,216,1,134,186,0,

166,231,1,133,185,1,

166,229,0,132,184,0,

164,227,0,131,183,0,

163,227,0,131,181,0,

163,224,0,130,179,0,

162,223,1,130,179,1,

161,222,1,129,178,0,

160,220,0,128,177,0,

159,219,1,127,176,1,

159,218,0,127,175,1,

158,217,1,127,174,1,

157,216,1,126,173,0,

157,215,0,125,172,0,

156,213,1,124,171,1,

155,212,1,124,171,1,

154,211,1,124,169,0,

153,210,1,123,167,0,

153,209,1,122,167,1,

152,207,1,121,167,1,

152,207,1,121,166,1,

151,205,1,120,165,1,

150,204,1,120,164,1,

149,203,1,120,163,1,

166,202,1,119,163,1,

165,201,0,118,162,1,

163,199,1,118,161,1,

163,199,1,117,159,1,

162,198,1,116,159,1,

161,197,1,115,158,1,

159,195,1,115,157,1,

159,195,1,114,156,1,

158,194,1,114,156,1,

157,193,1,113,155,1,

204,192,1,113,154,1,

230,190,1,113,153,1,

229,190,1,112,153,1,

227,189,1,112,152,1,

225,188,1,111,151,1,

224,187,1,111,150,1,

223,186,1,110,149,1,

222,185,1,109,149,1,

220,184,1,109,147,1,

219,183,1,108,147,1,

218,182,1,108,147,1,

217,181,1,122,146,1,

216,180,1,121,145,1,

214,179,1,120,143,1,

213,178,1,120,143,1,

211,178,1,119,143,1,

211,177,1,118,142,1,

209,176,1,118,141,1,

208,175,1,117,141,1,

207,174,1,117,140,1,

206,173,1,115,140,1,

205,172,1,115,139,1,

204,171,1,115,138,1,

203,171,1,114,137,1,

201,169,1,114,137,1,

201,167,1,113,135,1,

199,167,1,112,135,1,

199,167,1,112,135,1,

198,166,1,111,134,1,

197,165,1,111,148,1,

195,164,1,110,195,1,

195,164,1,109,194,1,

193,163,1,109,192,1,

192,162,1,108,191,1,

192,161,1,108,190,1,

190,160,1,108,189,1,

190,159,1,107,188,1,

189,159,1,107,187,1,

188,158,1,106,186,1,

187,157,1,105,184,1,

185,157,1,105,184,1,

185,156,1,103,182,1,

184,155,1,103,181,1,

183,155,1,134,181,1,

182,153,1,133,179,1,

181,153,1,132,179,1,

180,152,1,131,177,1,

179,152,1,131,177,1,

178,151,1,130,176,1,

177,150,1,129,175,1,

177,149,1,129,174,1,

176,148,1,128,173,1,

175,148,1,127,172,1,

174,147,1,135,171,1,

173,146,1,141,170,1,

172,145,1,140,169,1,

171,145,1,140,167,1,

170,144,1,139,167,1,

169,143,1,138,167,1,

169,157,1,137,166,1,

167,156,1,135,165,1,

167,156,1,135,164,1,

167,155,1,135,169,1,

166,153,1,134,167,1,

164,153,1,134,167,1,

163,152,1,133,167,1,

163,152,1,132,166,1,

162,150,1,131,165,1,

161,149,1,130,164,1,

160,149,1,130,163,1,

159,148,1,129,162,1,

159,147,1,128,161,1,

158,147,1,127,161,1,

157,145,1,127,159,1,

156,145,1,127,159,1,

156,143,1,126,158,1,

155,143,1,125,158,1,

154,184,1,125,157,1,

153,183,1,124,156,1,

153,181,1,123,155,1,

152,180,1,122,154,1,

152,179,1,122,153,1,

150,178,1,121,152,1,

150,177,1,121,152,1,

149,176,1,120,152,1,

148,175,0,120,150,1,

147,174,1,119,150,1,

147,173,0,119,149,1,

146,172,1,118,147,1,

146,171,1,117,147,1,

145,170,1,117,147,1,

143,169,1,116,146,1,

143,167,1,115,145,1,

143,167,1,115,145,1,

142,167,1,114,143,1,

141,166,0,114,143,1,

141,165,1,113,142,0,

140,164,1,113,142,1,

140,163,0,112,141,1,

139,162,1,112,140,0,

138,161,1,111,140,1,

137,161,1,110,139,0,

137,159,0,110,138,1,

135,159,0,110,137,1,

135,158,1,109,137,1,

135,157,1,108,135,1,

134,156,0,108,135,0,

134,156,1,108,135,1,

134,155,1,107,134,1,

133,154,1,107,133,0,

132,153,0,105,133,0,

131,152,1,105,132,1,

131,152,1,105,131,0,

130,151,0,103,131,0,

130,150,0,103,130,0,

129,149,1,103,130,0,

128,148,0,103,129,1,

127,147,1,102,128,0,

127,147,0,102,127,1,

127,146,0,101,127,0,

126,145,1,101,127,0,

126,144,0,100,126,1,

125,143,1,100,126,0,

124,143,0,99,125,0,

124,143,0,99,124,1,

123,142,0,99,124,0,

123,141,0,98,123,0,

122,141,0,97,123,0,

121,140,0,97,122,0,

121,139,0,96,121,0,

120,139,0,96,121,0,

120,138,1,96,120,0,

120,223,0,96,120,0,

119,244,1,95,120,1,

119,242,1,94,119,1,

118,241,0,94,118,0,

117,239,1,94,118,1,

117,238,0,93,117,0,

116,237,1,93,116,0,

115,236,1,93,116,1,

115,284,0,92,115,0,

115,281,1,92,115,0,

114,280,0,91,114,1,

114,278,0,91,114,0,

113,277,0,90,113,0,

113,275,0,90,124,0,

112,273,1,89,123,0,

112,271,0,89,123,1,

111,270,1,89,121,0,

111,269,0,88,121,0,

110,267,0,88,120,1,

110,265,0,88,120,1,

110,263,0,88,119,0,

109,263,0,87,119,0,

109,262,0,86,118,0,

108,260,0,86,117,0,

108,259,0,86,117,0,

108,257,0,85,116,0,

107,255,0,85,154,0,

106,254,0,84,152,0,

106,253,0,84,152,0,

105,252,0,83,151,0,

105,250,0,83,150,0,

104,249,0,83,149,0,

103,248,0,83,148,0,

103,247,0,82,147,0,

103,246,0,81,147,0,

102,244,0,81,146,0,

102,243,0,81,172,0,

102,242,0,81,169,0,

101,240,1,80,167,0,

101,240,0,80,167,0,

101,238,1,79,167,0,

100,237,0,79,166,0,

99,236,0,79,165,0,

102,235,0,78,164,0,

102,233,0,78,163,0,

101,231,0,78,162,0,

100,231,0,78,161,0,

99,230,0,77,160,0,

99,229,0,77,159,0,

99,227,0,77,159,1,

98,227,0,76,158,1,

98,226,0,76,157,0,

98,225,0,76,157,0,

97,224,0,75,156,0,

167,222,0,75,155,0,

169,222,0,75,155,0,

167,220,0,74,153,0,

167,219,0,74,153,0,

166,218,0,73,152,1,

165,217,0,73,151,0,

164,216,0,73,151,0,

163,215,0,73,150,0,

162,214,0,71,149,0,

162,213,0,86,148,1,

161,211,1,110,147,0,

159,211,0,109,147,0,

159,210,0,108,146,0,

158,208,0,108,145,0,

157,207,0,107,144,0,

156,207,0,107,143,0,

156,206,0,106,143,0,

155,204,0,105,142,0,

154,203,0,105,141,0,

153,203,0,105,141,0,

152,201,0,103,140,0,

152,201,0,103,140,0,

151,199,1,103,139,0,

150,198,0,102,138,0,

149,198,0,102,137,0,

148,196,0,101,137,0,

147,197,0,100,135,0,

146,195,0,100,135,0,

145,195,0,99,135,0,

145,193,0,99,134,0,

144,193,0,99,133,0,

143,192,0,98,133,1,

143,191,0,97,131,0,

142,190,0,97,131,0,

142,189,0,97,131,0,

141,189,0,96,130,0,

140,188,0,96,130,0,

140,187,0,95,129,0,

139,186,0,94,128,0,

138,185,0,94,127,0,

137,184,0,94,127,0,

135,184,0,93,126,0,

135,183,0,93,126,0,

135,182,0,92,125,1,

135,181,0,92,124,0,

134,180,1,92,124,0,

134,179,0,91,124,1,

133,179,0,91,123,0,

132,177,0,90,122,0,

131,176,0,89,121,0,

131,176,1,89,121,0,

130,175,1,89,121,0,

130,174,0,88,120,0,

129,174,0,137,120,0,

164,173,0,148,119,0,

173,172,1,147,118,1,

172,171,0,146,118,0,

170,170,0,145,117,1,

169,169,0,144,116,1,

167,167,0,143,115,0,

167,167,1,143,115,0,

167,167,0,142,115,0,

166,166,0,141,115,0,

165,165,0,140,114,0,

163,165,0,140,113,0,

163,164,0,139,113,0,

162,163,0,138,112,0,

161,162,0,137,111,0,

159,162,0,135,111,0,

159,161,0,135,110,0,

158,159,0,135,110,0,

158,159,0,135,109,0,

157,158,0,134,109,0,

156,231,0,133,108,0,

155,228,0,132,108,0,

154,227,0,131,108,0,

153,225,0,131,107,0,

152,224,0,130,106,1,

152,223,0,130,105,0,

151,222,0,129,105,0,

150,221,1,128,105,0,

150,219,0,127,103,0,

148,218,0,127,103,1,

147,216,0,126,103,0,

147,216,0,126,103,0,

146,215,0,125,103,0,

146,213,0,124,102,0,

145,212,1,124,102,0,

144,211,0,123,101,0,

143,209,0,123,100,0,

143,207,0,122,100,0,

142,207,0,121,99,0,

141,206,0,121,99,0,

140,205,0,120,99,0,

140,204,0,120,98,0,

139,203,0,119,98,0,

138,202,0,119,97,0,

137,201,0,118,97,0,

137,199,0,117,96,0,

135,199,0,117,96,0,

135,198,0,116,96,0,

135,197,0,115,95,0,

134,196,0,115,94,0,

134,195,0,114,94,0,

133,194,0,114,94,0,

132,193,0,113,93,1,

132,192,0,113,93,0,

131,191,0,112,92,0,

131,190,0,112,92,0,

130,189,0,112,92,1,

131,189,0,111,92,0,

164,245,0,110,91,0,

163,243,0,110,91,0,

162,241,0,110,90,0,

161,240,0,109,89,0,

160,238,0,108,89,0,

159,237,1,108,89,0,

158,236,1,107,88,0,

157,235,0,107,88,1,

157,233,0,107,88,0,

156,231,0,106,88,0,

155,231,0,105,88,0,

154,230,0,105,86,0,

153,227,0,103,86,0,

153,227,0,103,86,0,

152,226,0,103,128,0,

151,225,0,103,127,0,

150,224,0,103,126,0,

149,222,0,102,125,0,

149,221,0,101,124,0,

147,220,1,101,124,0,

147,219,0,100,123,0,

146,217,0,100,122,0,

145,216,0,99,121,1,

145,216,0,99,121,0,

143,214,0,99,120,0,

143,213,0,99,120,0,

143,211,0,98,119,0,

142,211,0,98,119,0,

141,210,0,97,118,0,

140,209,0,97,117,0,

140,207,0,96,117,0,

139,207,0,96,116,0,

139,206,0,96,115,1,

137,205,1,95,115,0,

137,204,0,95,114,0,

135,203,0,94,114,0,

135,201,0,94,113,0,

135,199,0,93,112,0,

134,199,0,93,112,0,

134,199,0,92,112,0,

133,198,0,92,111,0,

132,197,0,91,110,1,

132,195,0,94,110,0,

131,195,0,100,109,0,

131,193,0,99,109,0,

130,219,0,99,108,0,

129,217,0,99,108,0,

129,216,0,98,107,0,

127,216,0,97,107,1,

127,214,0,97,167,0,

127,213,0,96,167,0,

126,211,0,96,165,0,

126,210,0,96,164,0,

125,209,0,95,163,0,

125,207,0,94,162,0,

178,207,0,94,161,0,

177,206,1,94,161,0,

189,205,0,93,159,0,

188,204,0,92,159,0,

187,203,0,92,158,0,

185,202,0,92,157,0,

184,199,0,91,156,0,

184,199,0,91,155,0,

182,199,0,91,154,0,

181,198,0,90,153,0,

180,197,0,89,153,0,

179,195,0,89,152,0,

178,195,0,89,152,0,

177,193,0,88,151,0,

176,193,0,88,150,0,

176,192,0,88,149,0,

174,191,0,87,148,0,

174,190,0,87,147,0,

173,189,0,86,147,0,

172,188,0,86,146,0,

172,188,1,85,145,0,

170,188,0,85,145,0,

169,187,0,84,143,0,

167,185,0,84,143,0,

167,185,0,84,142,0,

167,184,0,83,142,0,

166,183,0,83,141,0,

166,182,0,83,140,0,

164,181,0,82,140,0,

163,180,0,82,139,0,

163,179,0,81,139,0,

162,179,0,81,137,0,

161,178,1,81,137,0,

159,177,0,80,135,0,

159,176,0,80,135,0,

159,175,0,79,135,0,

158,174,1,79,134,0,

157,198,0,79,134,0,

156,209,0,79,133,0,

156,207,0,78,132,0,

155,207,0,78,131,0,

154,205,0,77,131,0,

153,204,0,77,131,0,

153,203,0,77,130,0,

152,202,0,76,129,0,

152,201,0,76,128,0,

150,199,0,76,127,0,

150,199,0,76,127,0,

149,198,0,75,127,0,

148,197,0,75,126,0,

147,195,0,75,126,0,

147,195,0,74,125,1,

146,194,0,74,124,0,

145,193,0,73,124,0,

145,192,0,78,123,0,

143,191,0,77,122,0,

143,190,0,77,122,0,

143,189,0,76,121,1,

142,188,1,76,121,0,

141,187,0,76,120,0,

141,186,0,75,120,0,

140,185,0,75,120,0,

139,184,0,75,118,0,

139,183,0,74,118,1,

138,183,0,74,117,0,

137,181,0,73,117,0,

136,180,0,73,116,0,

135,179,0,73,115,0,

135,179,0,71,115,0,

135,178,0,71,115,0,

134,177,0,71,114,0,

133,176,0,71,114,0,

133,175,0,71,113,0,

132,175,0,71,113,0,

131,190,0,70,112,0,

131,189,0,70,112,0,

131,188,0,70,111,0,

130,187,0,69,110,0,

129,186,0,69,110,0,

129,188,0,69,109,0,

127,189,0,69,109,1,

127,187,0,68,109,0,

127,186,0,68,108,0,

126,185,0,67,108,0,

125,184,1,67,107,0,

125,184,0,67,107,0,

124,182,0,67,106,0,

124,181,0,66,105,0,

123,180,0,66,105,0,

123,179,1,66,103,0,

122,179,0,65,103,0,

129,213,1,65,103,1,

129,211,0,65,103,0,

127,210,0,65,103,0,

127,209,0,64,102,0,

126,207,0,63,102,0,

126,206,0,63,101,0,

125,205,0,63,101,0,

124,204,0,63,100,0,

124,203,0,63,100,0,

123,202,0,62,99,0,

123,201,0,62,99,0,

122,199,0,62,98,0,

121,199,0,62,98,0,

121,198,0,61,127,0,

120,196,0,61,126,0,

120,195,0,61,125,0,

119,195,0,61,124,0,

119,194,0,60,124,0,

118,193,0,60,123,0,

117,243,0,60,123,0,

117,280,0,61,121,0,

116,277,0,60,121,1,

115,275,0,60,120,0,

115,274,0,60,120,0,

115,272,0,60,120,0,

114,271,0,59,119,0,

113,269,0,59,118,0,

113,268,0,59,117,0,

113,266,0,58,116,0,

112,265,0,58,116,0,

111,263,0,61,115,0,

111,262,1,61,115,0,

111,260,0,60,114,0,

110,259,0,60,113,0,

109,257,0,60,113,1,

109,255,0,60,112,0,

108,255,0,59,112,1,

108,254,0,59,112,0,

108,252,0,59,110,0,

107,251,0,58,110,0,

107,249,0,58,110,0,

106,248,0,58,109,0,

105,247,0,57,109,0,

105,245,1,57,108,0,

103,244,0,57,108,0,

103,243,0,57,107,0,

103,242,0,56,107,0,

103,240,0,56,106,0,

103,239,0,56,106,0,

102,238,0,56,105,0,

102,237,0,56,103,0,

101,236,0,55,103,0,

101,235,0,55,103,0,

115,233,0,55,103,0,

135,231,0,54,103,0,

135,231,0,54,102,0,

135,230,0,54,102,0,

134,228,0,54,101,0,

133,227,0,53,100,0,

132,226,0,53,99,0,

131,225,0,53,99,0,

131,224,0,52,99,0,

130,223,1,52,98,0,

130,222,0,52,98,0,

129,221,1,52,98,0,

128,220,0,51,97,0,

127,219,0,51,97,1,

127,218,0,51,96,0,

126,217,0,51,96,0,

126,216,0,51,96,0,

125,215,1,51,95,0,

125,214,0,51,95,0,

124,213,0,50,94,0,

124,212,0,50,94,0,

123,211,1,50,94,0,

122,210,0,49,93,0,

122,209,0,49,92,0,

121,208,0,49,92,0,

121,207,0,49,92,0,

120,206,0,49,92,0,

120,205,1,49,91,0,

119,204,0,49,91,0,

118,204,0,48,90,1,

118,203,0,48,89,0,

117,201,0,48,89,0,

116,201,0,48,89,0,

116,199,0,47,89,0,

115,199,0,48,88,0,

115,198,0,57,88,0,

114,197,0,57,88,0,

114,196,0,56,87,0,

113,195,0,56,87,0,

113,194,0,55,86,0,

112,194,0,55,86,0,

112,195,0,55,85,0,

111,194,0,55,85,0,

111,192,0,54,85,0,

110,192,0,54,84,0,

110,191,0,54,84,0,

109,190,0,54,83,0,

108,189,0,53,83,0,

108,188,0,53,83,0,

108,187,0,53,83,0,

178,187,0,52,82,0,

176,186,0,52,81,0,

175,229,0,51,82,0,

174,248,0,51,81,0,

173,246,0,51,81,0,

172,245,0,51,81,0,

171,243,0,51,80,0,

172,242,0,92,79,0,

172,240,0,93,79,0,

171,239,0,93,79,0,

169,238,0,92,79,0,

169,237,0,92,78,0,

167,236,0,91,78,0,

167,235,0,91,78,0,

166,233,0,90,78,0,

165,231,0,89,77,0,

165,231,0,89,77,0,

163,230,0,89,76,0,

163,229,0,88,76,0,

162,227,0,106,76,0,

161,226,0,115,75,0,

160,225,0,114,75,0,

159,224,0,113,75,0,

159,223,0,112,75,0,

158,222,0,112,74,0,

157,221,0,111,74,0,

156,219,0,111,73,0,

156,218,0,110,73,0,

155,217,0,110,73,0,

154,216,0,109,71,0,

153,215,0,108,71,0,

153,214,0,108,71,0,

152,213,0,108,71,0,

152,211,0,107,71,0,

150,211,0,106,71,1,

150,209,0,105,71,0,

149,209,0,105,70,0,

148,207,0,105,70,0,

147,207,0,103,70,0,

147,206,0,103,70,0,

146,204,0,103,69,0,

145,203,0,103,69,1,

144,202,0,102,68,0,

143,201,0,102,68,0,

143,199,0,101,68,0,

142,199,0,101,67,0,

207,199,0,100,67,0,

223,198,0,99,67,0,

221,196,0,99,67,0,

220,195,0,99,67,0,

218,195,0,98,66,0,

217,194,0,97,66,0,

216,193,0,97,66,1,

216,192,0,96,65,1,

214,191,0,96,65,0,

213,190,0,96,65,0,

211,189,0,96,65,0,

211,189,0,95,64,0,

209,188,0,95,63,0,

207,187,0,94,63,0,

207,186,0,94,63,0,

206,185,0,93,63,1,

205,184,1,93,63,0,

204,184,0,93,63,0,

203,183,0,92,62,0,

202,182,0,92,62,0,

201,181,0,91,62,0,

199,180,0,91,61,0,

199,179,0,90,61,0,

199,178,0,89,61,0,

198,178,0,89,103,0,

196,177,0,89,101,0,

195,176,1,89,101,0,

194,175,0,88,100,1,

193,174,0,88,99,0,

193,174,0,88,99,0,

192,173,0,87,99,0,

191,172,0,87,98,0,

190,172,0,123,98,0,

189,171,0,145,97,0,

188,170,0,143,97,0,

187,169,0,143,96,0,

186,167,0,142,96,0,

185,167,0,141,95,0,

184,167,0,140,94,0,

184,166,1,140,94,0,

183,165,0,139,93,0,

182,165,0,139,93,0,

181,163,0,137,93,0,

179,163,0,137,92,0,

179,163,0,135,92,1,

178,162,1,135,91,0,

177,161,0,135,90,0,

177,160,0,134,90,0,

175,159,0,134,89,0,

174,159,0,133,89,0,

174,158,0,132,88,0,

173,157,1,131,88,0,

172,157,0,131,88,0,

172,156,0,130,88,0,

170,155,0,129,87,0,

170,155,1,129,86,0,

169,154,0,128,86,0,

167,153,0,127,86,0,

167,152,0,127,85,0,

167,152,0,126,85,0,

166,151,0,126,84,0,

165,150,0,125,83,0,

164,150,1,124,83,0,

163,149,0,124,83,0,

163,149,0,123,82,0,

162,161,0,123,82,0,

161,243,0,122,81,0,

160,241,1,121,81,0,

159,240,0,121,81,1,

159,238,0,121,80,1,

158,237,0,120,80,0,

157,235,0,120,79,0,

156,234,1,119,79,0,

156,233,0,118,79,0,

155,231,0,117,78,1,

154,230,0,117,78,0,

153,229,1,116,78,0,

153,227,0,115,77,0,

152,226,0,115,77,0,

152,225,0,115,76,0,

151,224,0,114,76,0,

150,223,0,114,76,0,

149,222,0,113,75,0,

149,220,0,113,75,0,

147,220,0,112,74,0,

147,218,1,112,74,0,

147,217,0,111,74,0,

146,216,0,110,73,0,

145,215,0,110,73,0,

145,220,0,110,71,0,

144,218,0,109,71,0,

143,217,0,108,71,0,

143,216,0,108,71,0,

142,215,0,107,71,0,

141,213,0,107,71,0,

140,212,0,107,71,0,

140,211,0,106,70,0,

140,210,0,105,70,0,

139,209,0,105,70,0,

138,207,0,104,69,0,

137,207,0,103,69,1,

