
14,12,0,39,36,1,

14,12,1,39,36,0,

14,11,1,39,35,1,

14,12,0,38,36,1,

14,12,1,39,35,0,

14,12,1,38,35,1,

14,11,1,38,35,1,

13,11,1,38,35,1,

14,12,1,37,34,0,

13,11,1,37,34,1,

13,11,1,37,34,1,

14,11,1,37,34,0,

13,10,1,37,34,1,

13,11,0,37,34,1,

13,11,1,37,34,0,

13,11,1,36,34,1,

13,11,1,36,33,1,

12,11,1,36,33,0,

13,10,1,35,33,1,

12,10,1,36,33,1,

13,11,1,35,33,1,

13,10,1,35,32,1,

12,10,0,35,33,1,

12,11,1,35,33,0,

13,10,1,35,31,0,

13,10,1,35,31,0,

13,10,1,63,33,1,

12,10,0,71,32,1,

13,10,1,71,32,0,

13,9,1,71,32,1,

12,10,1,71,32,1,

12,10,1,71,31,1,

12,10,0,71,31,1,

12,9,1,71,31,1,

12,9,0,70,31,1,

12,9,1,70,31,1,

12,9,1,69,31,0,

12,9,1,69,31,1,

12,9,1,69,31,1,

12,10,1,68,31,1,

12,9,1,68,30,1,

12,11,0,67,30,1,

12,12,1,67,30,1,

12,11,0,67,30,1,

12,11,1,67,30,1,

12,11,1,67,30,1,

12,11,1,66,30,0,

11,11,0,66,30,1,

11,11,1,65,29,1,

11,11,1,65,29,0,

11,11,0,65,29,1,

11,10,0,64,29,0,

11,11,1,64,29,1,

11,11,0,64,29,1,

11,11,0,63,28,1,

11,11,0,63,28,1,

11,11,1,63,28,1,

11,11,0,63,28,1,

11,11,1,63,28,1,

10,11,1,62,28,1,

11,10,1,62,28,1,

10,10,0,62,28,1,

11,10,1,62,27,0,

10,10,1,61,27,1,

10,11,1,61,27,1,

10,10,1,61,27,1,

13,12,1,60,27,1,

17,15,0,60,26,1,

17,17,1,60,26,0,

17,18,0,59,26,0,

17,17,1,59,26,1,

16,17,1,59,27,1,

17,17,0,59,25,1,

16,17,1,59,26,1,

17,17,1,58,26,1,

16,17,1,58,25,0,

16,16,0,58,25,1,

16,16,0,57,25,1,

15,17,1,57,25,1,

16,16,0,57,25,0,

16,16,0,57,25,1,

16,16,1,56,25,1,

15,16,1,56,24,0,

15,15,0,56,25,1,

15,15,1,56,24,1,

15,16,1,56,24,0,

15,15,0,56,24,0,

15,15,1,55,24,1,

15,15,1,55,24,1,

15,15,0,54,24,1,

15,15,1,71,24,1,

15,15,0,73,24,1,

15,15,1,73,24,0,

14,15,0,73,24,1,

15,14,1,71,24,1,

15,15,1,71,23,1,

14,14,1,71,23,1,

14,15,1,71,23,1,

14,14,1,71,23,1,

14,14,1,71,23,1,

14,14,1,71,23,1,

14,14,1,70,22,1,

14,14,1,70,23,0,

14,14,1,69,22,1,

14,14,1,69,22,1,

14,14,1,78,22,0,

13,14,0,80,22,0,

14,14,1,79,22,1,

13,14,1,79,22,1,

14,13,0,79,22,1,

13,13,0,78,22,1,

13,14,1,78,21,0,

13,13,1,78,21,0,

13,13,1,77,21,1,

13,13,1,77,21,1,

13,13,1,76,21,1,

13,13,1,76,21,0,

13,13,1,76,21,1,

13,13,1,76,20,1,

13,13,0,75,21,1,

12,14,1,74,20,1,

12,14,1,75,20,1,

12,14,0,74,20,1,

12,14,1,74,21,1,

12,14,1,73,19,1,

12,14,0,73,20,0,

12,14,1,73,19,1,

12,14,1,71,19,1,

12,13,0,71,19,1,

12,13,1,71,19,1,

12,13,0,71,19,1,

12,13,1,71,19,1,

11,13,1,71,19,1,

12,19,1,71,19,1,

12,19,1,70,19,1,

11,19,1,70,18,0,

11,19,1,70,19,1,

12,19,1,69,19,1,

11,18,1,68,18,1,

11,19,1,69,19,1,

11,19,1,68,19,1,

11,19,1,68,18,0,

11,18,1,67,18,1,

11,18,1,67,18,0,

11,18,1,67,18,0,

11,18,1,67,18,0,

11,18,0,67,18,1,

11,17,1,66,18,1,

10,18,0,66,18,0,

10,18,1,66,18,1,

10,18,1,66,17,1,

10,17,1,65,17,1,

11,17,1,65,17,1,

10,17,1,65,17,1,

9,17,1,64,17,0,

10,17,1,64,17,0,

10,17,0,63,18,1,

10,17,1,63,16,1,

9,18,1,63,16,0,

10,18,1,63,17,1,

9,23,1,63,16,1,

9,23,1,62,16,1,

9,22,1,62,16,1,

9,22,1,62,16,0,

9,22,1,61,17,1,

9,22,1,61,16,1,

9,22,1,61,16,0,

9,22,1,61,16,1,

9,21,1,61,15,1,

9,21,0,60,15,0,

13,22,1,60,16,1,

16,21,1,60,16,1,

17,23,1,60,15,1,

17,23,0,59,15,1,

17,22,0,59,15,1,

17,23,1,59,15,1,

17,22,1,58,15,0,

16,22,1,58,15,1,

17,22,0,58,15,0,

17,22,1,57,15,1,

16,22,0,58,15,1,

16,21,1,57,15,1,

16,21,1,57,15,0,

16,21,1,57,15,1,

15,22,1,56,14,1,

15,21,1,56,15,1,

15,21,1,56,19,1,

15,20,1,56,19,1,

15,21,1,56,18,1,

15,20,1,56,19,1,

15,20,1,55,19,0,

15,20,1,55,19,1,

15,20,0,55,19,1,

15,20,0,54,18,1,

15,20,0,54,18,0,

15,19,1,54,18,0,

14,19,1,54,18,0,

15,19,0,53,18,1,

14,19,1,53,17,0,

14,19,1,53,54,1,

14,19,0,52,60,1,

14,19,1,52,61,1,

14,19,1,52,60,1,

14,19,1,51,59,1,

14,19,1,51,59,0,

14,19,1,51,59,0,

14,18,1,51,59,1,

14,18,1,51,58,1,

14,18,1,51,58,1,

14,18,0,50,58,1,

13,18,1,50,57,1,

13,18,1,50,57,1,

13,18,1,50,57,1,

13,18,1,49,56,1,

13,17,1,49,56,0,

13,17,1,49,56,0,

13,17,1,49,56,1,

13,17,0,49,56,1,

13,17,1,49,56,1,

12,18,1,48,55,1,

12,17,1,48,54,0,

12,17,1,48,55,1,

12,17,1,54,54,1,

13,17,0,56,54,1,

12,17,1,55,53,0,

12,16,1,55,53,1,

12,16,1,54,53,1,

12,16,0,54,53,1,

12,16,1,54,52,1,

12,16,1,54,52,1,

12,16,0,53,52,1,

12,16,0,53,51,1,

12,15,1,53,51,0,

12,15,1,53,51,1,

11,15,0,52,51,0,

12,15,1,52,51,1,

12,15,1,60,50,1,

12,15,1,60,50,1,

11,15,1,60,50,1,

11,16,1,59,49,1,

11,15,1,59,49,1,

11,16,1,59,49,1,

11,15,1,59,49,1,

11,15,1,58,48,1,

11,15,1,58,48,1,

11,15,0,58,49,1,

11,15,1,57,48,0,

11,15,1,57,48,1,

11,15,1,57,48,1,

10,15,1,57,47,1,

11,15,1,57,47,1,

11,15,1,57,47,0,

11,14,0,56,46,0,

10,14,1,56,46,1,

10,15,1,56,47,0,

10,14,0,56,46,0,

9,14,0,56,46,1,

10,14,1,55,46,1,

10,14,1,55,45,1,

10,14,1,54,45,0,

10,14,1,54,45,0,

9,14,1,54,45,1,

9,14,0,54,44,1,

10,13,0,53,44,0,

10,14,1,53,44,0,

9,18,0,53,44,1,

9,17,1,52,44,1,

9,18,1,52,43,0,

10,17,0,52,43,0,

9,17,1,51,43,1,

9,17,1,51,43,1,

9,17,1,52,43,1,

9,17,1,51,42,1,

9,17,0,51,43,0,

9,16,0,51,42,1,

9,16,0,50,42,1,

9,17,0,50,41,1,

9,17,1,50,41,0,

9,16,1,50,42,1,

9,17,0,50,41,1,

9,17,1,50,41,0,

9,17,1,49,41,0,

9,16,1,50,41,1,

9,16,0,49,41,1,

9,16,1,49,40,1,

9,16,1,49,39,1,

9,16,1,48,39,1,

9,16,1,48,39,1,

9,16,1,48,39,1,

9,15,1,52,39,1,

8,15,0,72,39,1,

9,15,1,71,39,1,

8,15,0,71,39,1,

7,15,1,71,39,1,

8,15,1,71,39,1,

8,15,0,70,39,1,

7,15,0,70,39,1,

8,15,1,70,38,0,

7,15,1,70,39,0,

9,14,1,69,38,1,

7,15,1,69,38,0,

7,15,1,69,38,1,

7,15,1,69,38,1,

8,15,1,68,38,1,

8,14,0,68,37,1,

7,14,0,67,37,1,

7,14,1,67,37,0,

7,14,1,67,36,0,

7,14,0,67,36,0,

7,14,1,67,36,0,

7,14,1,66,36,1,

8,14,1,66,36,1,

8,14,1,65,35,1,

7,14,1,65,35,0,

7,13,1,65,35,1,

7,13,0,65,35,0,

7,14,1,65,35,1,

7,14,1,63,35,1,

7,14,1,65,35,0,

7,13,0,76,34,1,

7,13,1,76,34,1,

7,13,1,75,34,1,

7,13,0,74,34,1,

7,13,1,74,34,1,

7,13,1,74,34,0,

7,13,1,73,34,1,

7,13,0,73,34,0,

7,13,1,73,33,1,

7,12,0,72,33,1,

7,13,1,71,33,0,

7,12,1,71,33,1,

9,12,0,71,33,1,

10,13,1,71,32,1,

10,13,1,71,31,1,

9,12,0,71,33,1,

9,12,0,70,32,1,

9,12,0,70,31,1,

9,12,1,70,31,1,

9,12,1,70,31,0,

9,12,1,69,31,0,

9,12,0,69,31,0,

9,12,1,69,31,1,

9,11,0,68,31,0,

9,11,0,68,31,1,

9,12,1,68,31,1,

9,12,0,67,30,0,

9,12,0,67,31,1,

9,11,1,67,30,1,

9,12,0,66,30,1,

9,11,1,66,30,1,

8,11,1,66,30,1,

9,11,0,66,30,1,

9,11,0,66,29,1,

8,12,0,65,29,0,

7,11,1,65,29,0,

7,11,0,65,29,1,

9,11,1,64,29,0,

7,11,1,64,29,0,

7,11,1,63,29,1,

7,11,1,63,29,1,

9,11,0,63,28,0,

9,10,0,63,29,1,

9,10,1,63,28,1,

10,10,0,62,28,0,

9,10,1,62,28,0,

9,10,1,62,28,1,

9,10,1,61,28,1,

9,10,1,62,28,1,

9,10,1,61,28,1,

9,9,1,61,27,0,

9,9,1,61,28,1,

9,10,1,60,27,1,

19,9,0,60,27,1,

27,11,1,60,27,1,

27,11,1,60,27,0,

27,10,0,60,57,1,

27,10,0,59,71,1,

26,10,1,59,71,1,

26,10,1,59,70,1,

26,10,0,58,70,1,

26,10,0,58,69,1,

26,10,1,58,68,0,

25,10,1,57,69,1,

25,10,0,57,68,1,

25,10,1,57,68,0,

25,10,1,57,67,1,

25,17,0,57,67,1,

25,23,1,57,67,0,

66,64,1,56,66,1,

65,63,1,56,66,1,

64,63,1,56,66,0,

63,62,0,56,65,1,

63,62,1,55,65,1,

63,62,0,55,64,0,

63,61,0,55,64,1,

63,61,1,54,65,1,

62,60,1,54,64,0,

62,60,0,54,63,0,

61,59,0,54,63,0,

61,59,1,53,63,1,

66,61,1,53,63,1,

112,76,1,53,62,0,

110,75,0,52,62,1,

110,74,1,52,79,1,

109,74,1,52,86,0,

108,73,0,51,85,1,

108,73,0,51,85,1,

107,73,1,51,84,1,

107,71,0,51,83,1,

106,71,0,51,83,0,

106,71,0,51,83,1,

105,71,1,109,83,1,

103,71,1,135,99,1,

103,70,1,135,98,1,

103,70,1,134,97,1,

103,70,1,133,97,1,

102,69,0,131,96,0,

102,69,1,131,96,0,

101,69,1,130,96,1,

101,68,1,130,95,0,

100,68,1,129,95,1,

100,67,1,128,94,1,

99,67,1,127,94,0,

99,67,1,127,93,1,

99,67,1,127,93,1,

98,66,1,126,92,0,

98,66,1,126,92,1,

97,65,1,125,91,1,

97,65,1,124,91,1,

96,65,0,124,90,0,

96,64,0,123,90,1,

95,64,1,123,89,0,

95,63,1,122,89,0,

94,63,1,122,89,1,

94,63,1,121,88,1,

93,63,1,121,88,1,

93,63,1,121,88,0,

93,63,1,121,87,1,

92,115,1,120,87,0,

92,115,1,119,86,1,

91,114,1,119,85,1,

91,113,1,118,85,0,

90,112,1,118,85,1,

90,111,1,117,84,1,

90,111,1,116,84,1,

89,110,0,115,83,1,

89,110,1,115,83,1,

88,109,1,117,135,0,

88,109,1,117,132,0,

88,108,1,117,131,0,

88,107,1,116,130,0,

87,107,1,115,130,1,

87,105,1,115,129,1,

86,105,1,114,127,1,

86,105,0,113,127,1,

85,103,1,113,127,1,

85,103,1,112,126,1,

85,103,0,112,125,1,

83,103,1,111,125,1,

83,102,0,111,124,1,

83,102,1,110,123,1,

83,102,1,110,122,1,

82,100,0,109,121,1,

82,100,1,109,121,1,

81,99,1,108,120,1,

81,99,1,107,120,1,

81,98,1,107,119,1,

80,97,0,106,119,1,

80,97,0,106,118,1,

79,97,1,106,117,1,

79,96,1,105,139,1,

78,96,1,111,163,1,

78,96,1,110,162,1,

78,95,1,110,161,1,

78,95,1,109,159,0,

77,94,1,108,159,0,

76,93,0,109,158,1,

76,93,1,107,157,1,

77,93,1,107,156,1,

76,92,1,107,156,1,

76,92,0,106,155,1,

76,92,1,122,154,1,

75,91,1,135,153,0,

75,90,1,135,153,1,

75,90,1,134,152,1,

74,90,1,133,152,1,

74,89,0,133,150,1,

73,89,1,131,149,1,

73,88,1,131,149,1,

73,88,1,130,147,1,

73,88,1,130,147,0,

71,87,1,130,147,0,

71,87,0,128,146,0,

71,86,1,128,145,1,

75,86,1,127,145,1,

75,85,1,127,143,1,

75,85,1,126,143,1,

73,84,1,125,142,1,

73,84,1,125,141,1,

73,83,1,125,141,0,

71,83,1,124,141,0,

71,83,1,123,140,1,

71,83,1,123,139,1,

71,82,1,122,139,1,

71,82,1,121,137,1,

70,81,1,121,137,1,

71,81,1,120,136,1,

70,80,1,120,135,1,

69,80,1,120,135,1,

69,81,1,119,135,1,

69,80,1,118,134,1,

69,80,1,118,133,1,

69,79,1,116,133,1,

68,79,1,116,132,1,

67,79,1,115,131,1,

67,78,1,115,131,1,

67,78,1,115,131,1,

67,78,1,114,129,1,

67,99,1,114,129,1,

66,98,1,113,128,1,

66,101,1,112,127,1,

66,99,1,112,127,1,

66,99,1,112,126,1,

65,99,1,111,126,1,

65,98,1,111,125,1,

64,98,1,110,125,1,

64,98,1,110,124,1,

68,97,1,109,124,1,

115,97,1,109,123,1,

114,96,1,108,123,1,

113,95,1,108,122,1,

113,95,1,107,121,1,

112,94,1,107,121,1,

112,94,1,106,120,1,

111,94,1,105,120,1,

110,93,1,105,119,1,

110,92,1,103,119,1,

109,92,1,103,117,1,

109,91,0,103,117,1,

108,91,1,103,117,1,

107,91,1,102,116,1,

107,96,1,103,115,0,

106,109,1,102,115,0,

105,108,1,101,114,0,

105,107,1,101,114,1,

105,106,1,100,114,1,

103,105,1,99,113,1,

103,105,1,99,112,1,

103,103,1,98,112,1,

161,103,1,98,111,1,

270,103,1,126,111,1,

271,103,1,156,111,1,

268,102,1,156,110,1,

266,101,1,153,109,1,

265,101,1,153,108,1,

263,101,0,152,113,1,

261,100,0,151,113,1,

259,99,1,150,112,1,

258,99,1,149,112,1,

257,99,1,149,111,1,

255,98,1,148,110,1,

254,98,1,147,110,1,

252,112,1,146,109,1,

251,110,1,146,109,1,

249,111,1,145,108,1,

248,110,1,145,108,1,

247,109,1,143,107,1,

246,109,1,143,107,1,

243,108,1,142,106,1,

242,107,1,141,105,1,

241,107,1,141,105,1,

240,107,1,140,105,1,

238,109,1,140,103,1,

238,108,1,138,103,1,

236,107,1,138,103,1,

235,107,1,137,103,1,

233,106,1,135,103,1,

231,105,1,135,102,1,

231,105,1,135,102,1,

230,103,1,134,102,1,

229,103,1,134,101,1,

227,103,1,133,100,1,

226,102,1,132,100,1,

225,102,1,131,99,1,

224,101,1,131,99,0,

223,101,1,130,99,1,

222,100,1,130,98,1,

220,100,1,129,98,1,

220,99,1,128,98,1,

218,99,1,127,97,0,

217,99,0,127,96,1,

216,98,1,127,96,1,

216,97,1,126,96,1,

214,97,1,125,95,1,

213,96,1,125,95,1,

212,96,0,124,94,1,

211,103,1,124,94,1,

210,118,1,123,94,1,

209,116,1,123,93,1,

208,115,1,122,92,1,

207,115,1,121,92,1,

206,114,1,121,92,1,

205,114,1,120,92,1,

204,127,1,120,92,1,

203,126,1,119,90,1,

202,125,1,118,90,1,

201,124,1,118,89,1,

199,124,1,117,89,1,

199,123,2,117,89,1,

199,122,1,116,88,1,

197,172,1,115,88,1,

197,169,1,115,88,1,

195,167,1,115,88,1,

195,167,1,114,87,1,

193,167,1,113,86,1,

192,165,1,113,86,1,

192,164,1,113,86,1,

191,163,1,113,85,1,

190,162,1,113,85,2,

189,162,1,112,84,2,

188,161,1,111,101,1,

188,159,1,111,100,2,

187,159,1,110,99,1,

185,158,1,110,99,1,

185,157,1,109,99,1,

184,156,1,109,98,1,

183,156,1,108,97,1,

182,155,1,108,97,1,

181,154,2,108,96,1,

180,153,1,107,96,1,

179,153,1,107,96,1,

179,152,1,106,95,1,

178,151,2,105,94,1,

177,150,1,105,94,1,

176,149,2,103,93,1,

176,148,1,103,93,1,

175,147,1,103,92,1,

174,147,1,103,92,2,

173,146,1,102,92,2,

172,146,1,123,94,1,

172,145,2,139,94,1,

171,167,1,138,107,1,

170,166,1,137,107,1,

169,164,1,136,106,1,

167,163,1,135,105,1,

167,162,1,135,105,2,

167,162,1,134,103,1,

166,161,1,133,103,2,

165,159,2,133,103,1,

164,159,2,131,102,1,

163,158,2,131,103,1,

163,157,1,131,102,1,

162,156,1,130,102,2,

161,155,1,129,101,1,

160,155,2,129,100,1,

159,153,1,127,99,2,

159,153,1,127,99,1,

158,152,2,127,99,2,

158,151,1,126,98,1,

157,151,2,125,98,1,

156,150,1,124,98,2,

155,149,2,124,97,2,

155,148,2,123,96,2,

154,147,2,123,118,2,

153,147,1,122,116,1,

152,146,1,121,115,2,

152,145,1,121,115,1,

151,143,1,120,114,1,

150,143,2,120,114,1,

150,143,1,119,113,1,

148,142,1,119,113,2,

148,142,1,118,112,1,

147,141,2,117,111,1,

146,140,2,117,111,1,

146,139,2,116,110,1,

147,143,2,115,109,1,

147,146,2,115,109,1,

146,145,1,114,108,2,

145,144,2,114,108,1,

145,143,1,113,107,1,

144,142,1,113,106,1,

143,142,1,112,106,1,

143,141,1,112,106,1,

142,140,1,111,105,1,

142,140,2,111,103,1,

141,139,1,110,103,1,

140,137,2,109,103,1,

140,137,1,109,103,1,

138,135,1,109,102,1,

138,135,2,108,102,1,

137,135,1,107,102,2,

154,135,1,107,100,1,

155,134,1,107,100,1,

154,133,1,105,99,1,

153,133,1,105,99,1,

152,131,1,105,117,1,

151,131,1,103,115,1,

150,130,1,103,115,1,

149,130,1,103,114,2,

148,129,1,103,113,1,

147,127,1,102,113,1,

147,127,1,102,113,1,

146,127,1,101,112,1,

145,126,1,101,111,1,

144,125,1,99,111,0,

143,125,1,99,110,1,

143,124,1,99,110,1,

142,124,1,99,109,1,

141,124,1,98,108,1,

141,123,1,98,108,1,

167,122,1,97,107,1,

167,122,1,97,107,1,

166,121,1,97,107,1,

165,120,1,96,112,1,

164,120,1,96,111,1,

163,119,1,96,111,1,

190,174,1,95,110,1,

211,205,1,94,110,1,

210,203,1,94,109,1,

209,202,1,93,108,1,

207,201,1,93,108,1,

206,199,1,93,107,1,

205,198,1,92,107,1,

204,197,1,92,106,1,

203,195,1,92,105,1,

202,195,1,91,105,1,

201,193,1,90,103,1,

199,195,1,90,103,1,

199,195,1,89,103,1,

198,193,1,89,103,1,

196,192,1,89,102,1,

195,192,1,88,102,1,

195,190,1,88,102,1,

193,190,1,88,101,1,

193,189,2,88,100,1,

192,188,1,87,100,1,

191,187,1,86,99,1,

190,186,1,86,98,1,

189,184,1,86,99,1,

188,184,1,85,98,1,

187,184,1,85,97,1,

187,182,1,84,97,1,

185,181,1,84,96,1,

184,181,1,84,96,1,

184,179,1,83,96,1,

183,179,1,83,96,1,

182,177,1,83,95,1,

181,177,1,82,95,1,

180,178,1,82,94,1,

179,177,1,82,93,1,

178,176,1,81,93,1,

177,175,1,81,92,1,

177,174,1,81,92,1,

176,173,1,81,92,1,

175,173,1,80,91,1,

175,172,1,79,91,1,

173,171,1,79,90,1,

173,171,2,79,90,1,

172,169,1,78,89,1,

171,169,1,78,89,1,

170,167,1,78,88,1,

169,167,1,77,88,1,

169,167,1,78,88,1,

167,166,1,77,88,1,

167,165,1,77,87,1,

167,163,1,76,87,1,

166,163,1,76,86,1,

165,163,1,76,86,1,

164,192,1,75,85,1,

163,191,1,75,85,1,

163,189,1,75,85,1,

162,189,1,75,84,1,

161,188,1,74,83,1,

160,187,1,73,83,2,

159,185,1,73,83,1,

159,185,2,73,83,1,

158,184,1,73,82,1,

158,183,1,71,82,1,

157,182,2,71,81,1,

156,182,2,71,81,1,

156,181,2,71,81,1,

155,179,2,71,80,1,

154,178,1,71,80,1,

153,177,1,70,79,1,

152,177,2,71,79,1,

152,176,1,71,79,1,

151,175,2,71,78,1,

150,174,2,71,78,1,

150,173,1,70,78,1,

149,172,1,70,77,2,

148,171,1,70,77,1,

147,170,1,70,77,2,

147,170,1,69,77,2,

146,169,1,69,76,1,

145,167,1,69,76,1,

145,167,1,68,75,1,

145,167,2,68,75,1,

143,166,2,67,75,1,

143,165,1,67,74,1,

142,163,1,67,74,1,

142,163,1,66,73,1,

141,162,1,66,73,1,

141,161,1,66,73,1,

140,161,1,65,73,1,

139,159,1,65,72,1,

138,159,1,65,71,1,

138,159,1,65,71,1,

137,158,1,65,71,2,

137,157,1,64,71,1,

135,156,2,64,71,1,

135,156,1,63,71,1,

135,155,2,63,70,1,

135,154,1,63,70,1,

134,153,1,63,69,1,

141,153,2,63,69,1,

140,152,1,62,69,1,

139,152,1,62,69,1,

138,151,1,61,68,1,

138,150,1,62,68,1,

137,150,1,67,68,2,

137,158,1,125,67,1,

135,156,1,124,67,1,

135,155,1,123,67,1,

135,155,1,123,67,1,

134,153,1,122,67,1,

134,153,1,121,66,1,

132,152,1,120,65,1,

131,152,1,120,65,1,

178,187,1,120,65,1,

176,187,1,119,65,1,

175,185,1,118,64,1,

173,185,1,117,63,1,

173,184,1,117,63,1,

172,182,1,116,63,1,

171,181,1,116,63,1,

169,181,1,115,63,1,

169,179,1,114,63,1,

167,179,1,114,62,1,

167,178,0,113,62,1,

166,177,1,113,62,1,

166,176,1,112,62,1,

165,174,1,112,62,1,

163,174,1,111,61,1,

163,173,1,110,61,1,

162,172,1,110,65,1,

161,172,1,109,65,1,

161,172,1,109,65,1,

159,171,1,108,64,1,

158,169,1,108,63,1,

158,167,1,108,63,1,

157,167,1,107,63,1,

156,167,1,106,63,1,

156,166,1,106,62,1,

155,166,1,105,62,1,

154,165,1,105,62,1,

153,163,1,103,62,1,

152,163,1,103,62,1,

152,162,1,103,61,1,

166,204,1,103,61,1,

165,203,1,102,60,1,

163,201,1,102,61,1,

163,199,1,101,60,1,

162,199,1,101,60,1,

161,198,1,100,59,1,

159,196,1,99,59,1,

159,195,1,99,59,1,

158,195,1,99,59,1,

158,194,1,98,58,1,

157,193,1,98,66,1,

156,192,1,98,111,1,

155,191,1,97,111,1,

166,189,1,96,110,1,

165,189,1,96,109,0,

164,188,1,96,108,1,

163,187,1,96,108,1,

162,185,1,94,107,2,

162,185,1,94,106,1,

161,184,1,93,106,1,

159,182,1,93,105,1,

159,182,1,93,103,1,

159,181,1,93,103,1,

157,179,1,92,103,1,

156,179,1,91,103,1,

156,178,1,91,102,1,

155,177,1,90,102,1,

154,177,0,90,101,1,

153,176,1,90,101,1,

152,175,1,89,100,0,

152,174,1,89,99,1,

151,173,1,89,125,1,

150,172,1,88,170,1,

153,172,1,88,169,1,

153,170,1,88,167,1,

153,170,1,87,166,1,

152,167,1,86,165,1,

152,167,1,86,164,1,

150,167,1,86,163,1,

150,166,1,85,162,1,

149,165,1,84,162,1,

148,164,0,84,160,1,

147,163,1,84,159,1,

147,163,1,83,159,1,

146,174,1,83,158,1,

145,173,1,83,157,1,

145,171,1,82,156,1,

143,171,1,82,156,1,

143,169,1,82,155,1,

143,167,1,81,153,1,

142,167,1,81,153,1,

141,216,1,80,152,1,

141,215,1,80,152,1,

140,213,1,79,151,1,

139,211,1,79,150,1,

139,210,1,79,150,1,

138,209,1,78,149,1,

137,207,1,78,147,1,

135,207,1,78,147,1,

135,206,1,78,147,1,

135,205,1,77,145,1,

135,203,1,77,144,1,

134,202,1,76,144,1,

133,201,1,76,143,1,

132,199,1,76,143,1,

132,199,1,76,142,1,

131,198,1,75,142,1,

131,197,1,75,141,1,

130,196,1,74,140,1,

129,195,1,74,140,0,

129,194,1,74,139,1,

128,192,1,73,138,1,

127,192,1,73,137,1,

127,191,1,73,137,1,

127,190,1,71,135,1,

126,189,1,71,135,1,

125,188,1,71,135,1,

125,187,1,71,134,1,

124,186,1,71,134,1,

124,185,1,71,133,1,

123,184,0,70,132,1,

122,184,1,70,131,1,

122,183,1,69,131,1,

122,182,1,69,130,0,

138,181,1,69,129,1,

137,179,1,68,129,1,

136,179,0,69,127,1,

135,178,1,69,127,1,

135,177,1,69,127,1,

135,177,1,69,126,0,

134,175,1,68,126,0,

133,175,0,67,125,0,

132,174,1,67,124,1,

131,173,1,67,124,1,

131,172,1,67,123,1,

130,171,1,66,123,1,

129,170,1,66,122,1,

129,228,1,66,121,1,

127,226,1,66,121,1,

127,224,0,65,121,1,

127,223,1,65,120,1,

126,222,1,65,120,1,

125,220,1,64,119,0,

125,219,0,64,118,1,

124,218,1,63,118,1,

124,217,1,63,117,1,

123,216,1,63,116,1,

123,214,1,62,116,1,

122,213,1,96,115,0,

121,211,1,96,115,1,

121,211,1,95,114,1,

131,210,1,94,113,1,

160,208,1,93,113,1,

159,207,0,93,113,1,

159,206,1,93,112,1,

158,205,1,93,112,1,

156,204,1,92,111,1,

156,203,0,91,111,1,

155,202,1,90,110,1,

154,201,0,90,110,1,

153,199,1,89,109,1,

152,199,1,89,109,1,

152,198,1,89,108,0,

151,197,1,88,107,1,

150,195,1,88,107,1,

149,195,1,88,106,1,

149,194,1,87,107,1,

147,193,1,86,106,1,

147,192,1,86,105,1,

146,191,1,86,105,1,

145,190,0,85,103,1,

145,189,1,85,103,1,

143,188,1,84,103,1,

143,188,1,83,103,1,

142,187,1,83,102,1,

142,185,1,83,102,1,

141,185,1,83,101,1,

140,184,1,82,100,1,

140,183,1,81,100,0,

139,182,1,81,99,1,

138,181,1,81,99,1,

137,180,1,80,99,1,

137,179,1,80,99,1,

135,178,1,79,98,1,

135,238,1,79,156,1,

148,237,1,79,155,1,

171,235,1,79,154,1,

170,234,1,78,153,1,

169,231,1,78,153,1,

167,230,1,78,152,1,

167,230,0,77,150,1,

166,228,1,77,150,1,

165,230,1,76,149,1,

164,246,1,76,147,1,

163,243,1,76,147,1,

163,242,1,75,147,0,

161,241,1,75,146,1,

161,240,1,75,145,1,

159,238,1,74,144,1,

159,237,1,73,143,1,

158,235,1,73,143,1,

158,234,1,73,142,1,

156,233,1,73,142,1,

156,231,1,71,141,1,

155,231,1,71,140,0,

154,229,1,71,139,1,

153,228,1,71,139,2,

153,227,0,71,138,1,

152,225,1,71,137,1,

152,224,1,71,135,1,

151,224,1,70,135,1,

149,223,1,70,135,1,

149,221,0,69,134,1,

148,220,1,69,134,1,

147,219,1,69,133,1,

147,218,1,68,132,1,

146,217,1,68,132,1,

145,216,1,67,131,1,

143,214,1,67,130,1,

143,213,1,67,130,1,

143,211,1,67,129,1,

142,211,1,66,129,1,

142,210,1,66,127,1,

141,208,1,66,127,2,

140,207,1,65,126,1,

140,207,1,65,126,1,

139,206,1,65,125,1,

139,205,1,67,125,1,

137,204,1,67,124,1,

137,203,0,67,124,1,

135,202,1,66,123,1,

178,201,1,66,122,1,

195,199,1,66,121,1,

194,199,1,65,121,1,

192,198,1,65,121,1,

192,197,1,65,120,1,

191,195,1,64,120,1,

190,195,1,64,119,1,

189,194,1,63,118,1,

188,193,1,63,118,1,

186,192,0,63,117,1,

186,191,1,63,116,1,

184,190,1,62,116,1,

184,189,1,62,115,1,

183,188,1,61,114,1,

182,188,1,61,114,1,

180,186,1,61,113,1,

180,185,1,61,113,1,

179,185,1,61,113,1,

178,184,1,61,112,1,

177,183,1,60,112,1,

176,182,1,60,111,1,

176,181,1,60,111,1,

174,180,1,59,110,1,

174,179,1,58,109,1,

172,179,1,59,109,1,

172,177,1,59,109,1,

171,177,1,58,108,1,

170,176,1,57,107,1,

169,175,1,57,107,1,

167,175,1,57,106,1,

167,174,1,57,106,1,

167,173,1,57,106,1,

166,172,1,56,105,1,

165,171,1,56,103,1,

164,170,0,56,103,1,

163,169,1,56,103,1,

163,169,1,56,103,1,

162,167,1,56,102,1,

161,167,1,56,102,0,

160,167,1,54,102,1,

159,166,1,54,101,1,

159,165,1,55,101,1,

158,223,1,54,100,1,

157,222,1,54,99,1,

157,220,1,54,99,1,

156,219,1,53,99,1,

155,218,1,53,98,1,

155,217,1,53,98,1,

153,216,1,52,98,1,

153,214,1,52,97,1,

152,214,1,52,97,1,

152,212,1,51,96,1,

151,211,1,51,96,1,

150,210,1,51,96,1,

149,209,1,51,96,1,

149,207,1,51,95,1,

148,207,1,51,94,1,

147,206,1,50,94,2,

147,205,1,50,93,1,

146,204,1,50,94,1,

145,203,1,49,93,2,

145,202,1,49,92,1,

143,201,2,49,92,1,

143,199,1,49,92,1,

143,199,2,49,91,1,

142,198,1,49,91,2,

142,197,2,49,90,2,

141,196,1,48,89,1,

140,195,1,48,89,1,

140,195,1,47,89,1,

139,193,1,48,88,1,

138,192,1,47,88,1,

137,191,1,47,88,1,

137,190,1,47,88,1,

135,189,1,47,87,1,

135,189,1,47,87,1,

135,188,1,46,86,1,

134,186,1,46,86,1,

134,186,1,45,85,1,

133,184,1,46,85,1,

133,184,1,45,84,1,

131,184,1,45,84,1,

131,182,1,45,84,2,

131,182,2,44,83,1,

131,181,1,44,83,1,

130,179,2,44,83,1,

129,179,1,44,82,1,

128,178,1,44,82,1,

127,177,1,44,82,1,

127,176,1,43,81,1,

126,176,1,43,80,1,

126,174,1,43,81,1,

126,174,1,43,79,1,

125,173,1,43,80,1,

125,172,1,42,79,1,

124,171,1,42,79,1,

133,171,1,42,78,1,

133,170,1,42,79,1,

132,169,1,42,78,1,

131,167,1,41,78,1,

131,167,1,41,78,1,

130,167,1,41,77,1,

129,167,1,41,77,1,

129,165,1,41,78,1,

128,165,1,41,77,1,

127,163,1,39,78,1,

127,163,1,39,77,1,

126,163,1,39,77,1,

126,162,1,39,76,1,

125,161,1,39,76,1,

125,159,1,39,76,1,

124,159,1,39,75,1,

123,159,1,39,75,1,

123,158,1,39,74,1,

123,157,1,39,74,1,

121,156,1,39,74,1,

121,156,1,38,73,1,

121,155,1,38,73,1,

120,155,1,38,73,1,

120,154,1,38,73,1,

120,153,1,38,71,0,

119,153,1,37,71,1,

118,152,1,37,71,1,

122,152,1,39,71,1,

121,152,1,39,71,1,

121,150,1,39,70,0,

120,150,1,38,70,1,

120,149,1,38,70,1,

119,148,1,38,70,1,

118,147,1,38,69,1,

118,147,1,38,69,0,

117,146,1,38,69,1,

117,145,1,38,69,1,

116,144,1,38,68,1,

115,186,1,54,67,1,

115,195,1,53,68,1,

181,292,0,52,67,1,

179,293,1,52,66,1,

178,291,1,52,67,1,

177,289,1,51,66,1,

176,287,1,51,66,1,

175,286,1,51,66,1,

174,284,1,51,65,1,

173,283,1,50,65,1,

172,280,1,50,65,1,

172,280,1,50,64,1,

171,278,1,49,64,1,

170,276,1,50,63,0,

169,275,1,49,63,1,

167,273,1,49,63,1,

167,271,1,49,63,1,

166,270,1,49,63,1,

165,269,1,48,63,1,

165,268,1,48,62,1,

163,266,1,48,62,1,

163,265,1,48,62,1,

163,263,1,47,61,1,

162,262,0,47,61,1,

160,262,1,47,61,1,

160,259,1,46,60,1,

159,258,1,46,61,1,

158,257,1,46,60,1,

158,255,1,46,60,1,

157,254,1,45,60,1,

156,254,1,45,59,1,

156,252,1,45,59,1,

155,251,1,45,59,1,

154,249,1,45,58,1,

153,248,1,44,59,1,

153,247,1,44,58,1,

152,246,1,48,58,1,

152,244,1,49,58,1,

151,243,1,49,57,1,

150,242,1,48,57,1,

174,241,1,48,57,0,

173,240,1,48,57,1,

172,239,1,48,56,0,

171,238,1,48,56,0,

170,237,1,48,56,1,

169,235,0,47,56,1,

167,234,1,47,56,1,

167,233,1,46,55,1,

167,231,1,46,55,1,

166,231,1,50,54,1,

165,230,1,50,54,1,

164,229,1,50,54,1,

163,227,1,49,54,0,

162,226,1,49,54,1,

162,226,1,49,54,1,

161,224,1,49,53,0,

160,224,0,48,53,1,

159,222,1,48,53,1,

158,221,1,48,52,1,

158,221,1,52,52,1,

157,219,1,52,52,1,

156,219,1,51,51,1,

156,217,1,51,51,1,

155,216,1,51,51,1,

154,216,1,51,51,0,

153,214,1,50,51,1,

152,213,1,50,50,1,

152,213,1,50,50,1,

151,211,0,50,50,1,

151,210,1,49,50,1,

149,209,1,49,49,1,

149,209,1,49,50,1,

148,207,1,49,49,1,

147,207,1,48,49,0,

147,206,1,48,48,1,

146,205,0,48,48,1,

145,204,1,48,48,0,

145,203,1,47,48,1,

143,202,0,47,48,1,

143,201,1,47,48,1,

143,199,1,47,48,1,

142,199,1,46,48,1,

142,199,1,46,47,1,

141,197,1,46,47,1,

140,196,0,46,47,1,

140,195,1,45,46,1,

139,195,0,45,46,1,

138,194,1,45,46,1,

138,193,0,45,46,1,

137,192,1,45,46,1,

135,192,1,44,46,1,

135,191,1,44,46,1,

135,190,1,44,45,1,

134,189,1,44,45,1,

134,188,1,43,44,1,

133,187,1,43,45,1,

133,186,1,43,44,1,

132,186,1,43,44,0,

134,185,1,42,44,1,

227,184,1,42,44,1,

224,184,1,42,43,1,

223,183,1,42,43,1,

221,182,1,41,43,1,

220,181,1,41,43,1,

219,180,1,41,43,1,

217,179,1,41,43,1,

216,178,1,41,42,1,

216,177,1,40,42,1,

214,177,1,39,41,1,

213,176,1,39,45,1,

211,176,1,39,54,0,

211,175,1,39,52,1,

210,174,1,39,52,1,

209,173,1,39,51,1,

207,172,1,39,52,0,

207,172,1,39,51,1,

206,171,1,39,51,0,

205,170,1,39,51,1,

204,169,1,38,51,1,

203,168,1,38,50,0,

201,167,0,38,55,1,

201,167,1,38,55,1,

199,167,1,38,55,1,

199,166,1,38,54,1,

198,165,1,37,54,1,

197,164,0,37,53,1,

196,163,1,37,53,1,

195,163,1,36,53,1,

194,162,1,37,52,1,

193,162,1,36,52,1,

192,161,1,36,51,1,

192,159,1,36,51,1,

190,159,1,36,51,1,

189,159,1,35,53,1,

189,158,1,35,53,0,

188,157,0,35,53,1,

187,157,1,35,52,1,

186,156,1,34,51,1,

185,155,0,34,51,0,

184,155,1,35,51,1,

184,154,1,35,51,1,

182,153,1,41,51,1,

182,152,0,43,50,1,

181,152,1,43,50,1,

180,151,1,42,50,1,

179,151,0,42,50,1,

178,150,1,41,49,1,

177,150,0,41,49,1,

176,149,1,41,49,1,

176,148,1,41,48,1,

175,147,1,41,48,0,

174,147,1,41,48,1,

174,146,1,41,48,1,

173,146,1,39,48,0,

172,159,1,39,48,1,

171,159,0,39,47,1,

170,157,1,39,47,1,

169,157,1,39,46,1,

168,156,1,39,47,1,

167,155,0,39,46,1,

167,154,1,39,46,1,

167,153,1,39,46,1,

166,152,1,39,46,1,

165,152,1,38,46,1,

164,151,0,38,45,1,

163,151,1,68,45,1,

163,150,1,67,45,1,

162,149,1,66,44,1,

161,148,1,66,44,0,

160,147,1,65,44,1,

159,147,1,65,44,1,

159,146,1,64,44,1,

159,146,0,63,44,1,

157,145,1,63,43,1,

157,143,1,63,43,0,

157,143,1,63,42,1,

156,143,0,63,42,1,

155,142,1,73,42,0,

153,142,1,71,42,1,

153,141,1,71,41,1,

153,140,1,71,45,1,

152,140,0,71,45,1,

152,139,1,71,44,1,

151,139,1,70,44,1,

150,138,1,70,44,1,

149,137,1,70,43,0,

149,136,0,69,44,0,

147,135,1,69,43,0,

147,135,1,68,43,1,

147,135,1,68,42,0,

146,135,1,67,42,1,

145,134,1,67,42,1,

145,133,1,67,42,1,

143,133,1,67,41,0,

143,132,1,66,41,1,

143,131,1,66,41,1,

142,131,1,66,41,1,

141,131,1,65,41,0,

141,130,1,65,41,1,

140,129,1,65,39,0,

140,129,1,65,39,1,

139,128,1,63,39,0,

138,127,1,63,39,1,

138,127,1,63,39,0,

137,126,1,63,39,1,

136,126,1,62,39,1,

135,126,1,62,39,1,

135,125,1,62,39,0,

135,124,1,62,48,1,

134,124,1,61,48,0,

133,124,1,61,47,0,

133,123,1,61,48,1,

133,122,1,61,47,1,

131,122,0,60,47,1,

131,121,0,60,46,1,

131,121,1,59,46,0,

131,121,1,59,46,0,

129,121,1,59,46,0,

129,120,1,59,46,1,

128,120,1,59,45,1,

128,119,1,58,45,1,

127,119,0,58,44,1,

127,118,0,57,44,1,

126,144,1,57,44,1,

125,210,1,57,44,1,

125,209,1,56,44,1,

125,207,0,57,44,1,

124,206,1,56,43,0,

124,205,1,56,43,1,

123,204,1,56,43,1,

122,203,0,56,42,0,

122,201,0,56,43,1,

121,199,1,55,42,1,

121,199,1,54,42,1,

120,199,0,54,41,1,

120,268,0,54,41,1,

120,340,1,54,41,1,

119,337,1,54,63,1,

119,335,1,53,145,0,

118,332,1,53,144,0,

117,329,0,52,143,1,

117,327,0,52,142,0,

116,326,1,52,141,1,

116,323,1,52,140,1,

115,322,1,51,139,0,

115,319,0,51,139,1,

114,318,0,51,138,1,

114,317,1,50,137,0,

113,315,1,50,135,1,

112,313,0,50,135,1,

112,312,1,50,135,0,

111,310,1,50,134,0,

112,307,1,49,133,0,

112,306,1,49,132,0,

111,304,0,49,131,1,

111,302,0,49,131,1,

110,301,1,49,131,1,

110,300,1,48,130,1,

109,297,1,48,129,1,

109,295,1,48,129,1,

108,294,0,48,127,1,

108,293,0,47,127,1,

107,291,1,47,126,1,

107,290,0,46,126,1,

107,289,1,46,125,0,

106,287,1,46,124,1,

105,286,1,46,124,1,

105,284,1,46,123,1,

103,283,1,46,123,0,

103,281,0,45,121,0,

103,280,1,45,121,1,

103,278,1,45,121,1,

103,276,1,45,120,0,

102,275,1,45,120,1,

102,274,1,44,119,1,

102,271,1,44,119,1,

101,271,1,44,118,0,

100,270,1,44,117,1,

100,268,1,44,117,1,

99,267,1,43,116,1,

99,266,1,66,115,1,

99,263,1,66,115,1,

98,263,1,66,115,1,

98,262,0,66,114,1,

98,261,1,65,113,1,

97,259,1,65,113,0,

97,258,0,64,112,1,

97,257,1,65,112,1,

96,255,1,63,112,1,

96,254,1,63,111,1,

96,254,1,63,111,0,

96,359,0,63,110,1,

95,357,1,62,109,1,

94,354,1,62,109,1,

94,352,1,61,108,0,

94,350,1,62,108,0,

93,348,1,62,107,1,

93,346,1,61,107,1,

93,344,1,60,106,1,

92,342,1,60,105,1,

92,340,0,60,105,1,

91,338,1,60,105,0,

91,335,1,59,103,1,

90,334,0,59,103,1,

90,332,1,58,103,1,

90,331,1,58,103,1,

89,329,1,58,103,1,

89,327,1,58,103,1,

89,325,1,57,103,0,

88,323,1,57,103,1,

88,322,1,57,102,1,

87,319,1,57,101,1,

88,319,0,56,102,1,

87,317,1,56,100,1,

86,316,1,56,99,1,

86,313,1,56,99,1,

86,312,1,55,99,0,

85,311,0,55,99,1,

85,310,1,55,98,1,

85,307,1,54,98,1,

84,306,0,54,97,1,

84,305,1,54,97,1,

84,304,1,53,97,1,

83,301,1,53,96,1,

83,300,1,53,96,1,

83,299,1,53,96,1,

82,297,1,53,95,1,

82,295,1,52,95,1,

82,294,1,52,94,1,

81,293,1,52,94,1,

81,291,1,51,93,0,

81,291,1,51,93,1,

80,289,1,51,93,1,

80,287,1,51,92,1,

79,287,1,51,92,1,

79,285,1,50,91,1,

79,284,1,50,91,1,

79,283,1,50,91,0,

78,281,1,50,90,1,

78,280,1,49,90,1,

78,279,0,49,89,1,

78,277,1,49,89,0,

77,276,1,49,89,0,

77,275,0,48,88,1,

76,273,1,49,88,1,

76,272,1,48,88,1,

76,271,0,48,88,1,

76,270,1,48,87,1,

76,268,1,48,87,1,

75,268,1,47,86,1,

75,267,1,47,86,1,

75,265,1,47,85,1,

74,263,1,47,85,1,

74,263,1,48,85,0,

74,261,1,47,83,0,

73,260,1,47,84,1,

73,259,0,47,83,1,

73,258,1,47,83,1,

73,257,1,46,83,1,

71,255,0,46,83,1,

71,255,1,46,81,1,

71,253,1,46,81,1,

71,252,1,46,81,0,

71,251,1,46,81,1,

71,249,1,45,80,1,

71,249,0,45,80,1,

70,248,1,45,79,1,

69,248,0,44,79,1,

69,246,1,44,79,0,

69,244,1,44,79,1,

69,243,1,44,78,1,

69,243,1,44,78,1,

69,241,1,43,77,1,

68,240,1,43,77,0,

67,239,1,43,77,1,

67,239,1,42,77,1,

67,237,1,43,76,1,

67,236,1,42,76,1,

67,236,1,53,76,1,

67,235,0,55,75,1,

66,233,1,56,76,0,

66,231,1,55,75,1,

66,231,1,54,75,1,

107,231,1,54,74,1,

108,229,1,54,73,1,

107,229,1,53,73,1,

107,227,1,53,73,1,

105,226,1,53,73,1,

105,225,1,52,71,0,

105,224,1,53,71,1,

103,223,1,52,71,1,

103,222,1,51,71,1,

103,222,1,51,71,1,

102,220,1,51,71,1,

102,219,1,50,70,1,

101,219,1,51,70,1,

101,217,1,50,70,0,

100,216,1,50,70,0,

100,216,1,50,69,1,

100,214,1,49,69,1,

99,214,1,49,69,1,

98,213,0,49,68,1,

98,211,1,49,68,1,

97,211,1,66,67,1,

97,210,1,66,67,0,

97,209,1,66,67,1,

101,208,1,65,67,1,

100,207,1,65,67,1,

99,206,1,65,67,1,

99,206,1,64,66,0,

99,205,1,64,66,1,

98,204,1,63,66,1,

98,203,1,63,66,1,

97,202,1,63,64,1,

97,202,1,63,65,1,

97,199,1,63,65,1,

96,199,1,62,63,0,

96,199,1,62,63,1,

95,198,1,62,63,1,

95,198,1,61,63,1,

94,196,0,61,63,1,

94,195,0,60,63,1,

93,195,1,60,62,1,

93,194,1,60,62,1,

92,193,1,60,62,1,

92,192,1,60,62,1,

148,192,0,59,61,1,

146,191,1,59,61,1,

145,190,1,59,61,1,

145,189,1,59,61,1,

143,188,1,58,60,1,

143,188,1,58,60,0,

142,187,1,57,60,1,

142,187,1,57,60,1,

141,185,1,57,59,1,

140,185,1,56,59,0,

139,184,1,56,59,1,

139,183,1,56,58,1,

138,183,1,56,58,1,

137,182,1,56,58,1,

136,181,1,55,57,1,

135,179,1,55,57,1,

135,179,1,55,57,1,

135,179,1,55,57,1,

134,178,1,55,56,1,

133,177,0,54,57,1,

132,176,1,54,56,1,

132,176,1,53,56,1,

131,175,1,53,56,1,

131,174,1,52,56,1,

130,173,1,52,55,1,

129,172,1,52,55,1,

129,172,1,52,54,1,

128,176,1,52,54,1,

127,175,1,51,54,1,

127,175,1,51,54,1,

126,174,1,51,54,1,

125,173,1,51,53,1,

125,172,1,50,52,0,

125,171,1,50,53,0,

124,170,1,50,52,1,

123,170,1,50,52,1,

123,169,1,49,51,1,

122,167,1,49,51,1,

121,167,1,49,51,1,

121,167,1,49,51,1,

120,166,0,48,51,1,

120,165,1,48,51,1,

120,164,1,48,51,1,

130,164,1,48,50,1,

129,163,1,47,50,0,

128,163,1,47,50,0,

127,161,1,47,50,1,

127,161,0,47,50,1,

126,160,1,47,49,1,

126,159,1,47,49,1,

125,166,1,46,51,1,

124,164,1,46,51,1,

124,163,1,46,51,1,

124,163,1,46,51,1,

122,162,0,46,50,1,

122,161,1,45,50,1,

121,159,1,45,50,1,

121,159,1,45,49,1,

121,159,1,45,49,0,

120,158,1,44,49,1,

119,158,1,45,49,0,

119,157,1,44,49,0,

118,156,0,44,48,1,

117,155,1,44,49,1,

117,155,1,44,48,1,

117,154,1,43,48,1,

116,153,1,43,47,0,

115,153,1,42,48,1,

115,152,1,43,47,1,

114,152,1,43,47,0,

114,152,1,42,46,0,

113,150,1,42,47,1,

112,150,1,42,46,0,

112,149,1,41,46,1,

112,149,0,41,45,1,

111,147,0,41,45,1,

111,147,1,41,45,1,

110,147,1,41,45,1,

110,146,1,39,45,0,

109,145,1,39,45,1,

108,145,1,39,45,1,

108,144,1,39,44,1,

108,144,1,39,44,0,

107,143,1,39,44,1,

106,142,1,39,44,1,

106,142,1,39,43,1,

106,142,1,39,43,1,

106,141,1,39,43,1,

105,140,1,38,43,0,

105,140,1,38,43,1,

103,139,0,38,42,0,

103,138,1,38,42,1,

103,137,1,38,42,1,

103,137,0,37,42,1,

103,137,1,38,41,0,

102,135,0,46,41,1,

102,135,0,50,41,0,

101,135,1,49,41,0,

101,135,1,49,41,1,

100,134,1,48,39,1,

99,133,1,49,39,1,

99,133,0,48,39,1,

99,132,1,48,39,1,

99,131,1,48,39,1,

98,131,1,48,39,1,

97,131,1,47,39,1,

97,130,1,47,39,1,

97,130,1,47,39,0,

96,129,0,48,39,1,

96,129,1,48,39,1,

96,128,1,47,39,1,

95,127,1,47,38,1,

95,127,0,46,38,0,

94,127,1,46,38,1,

94,126,1,46,38,1,

94,126,0,45,37,1,

93,126,0,46,38,1,

93,125,0,45,38,1,

92,124,1,45,37,0,

92,124,0,45,37,1,

92,123,1,45,37,1,

91,123,0,45,37,1,

91,122,0,44,36,1,

90,123,1,44,36,1,

90,121,1,44,36,0,

89,121,1,44,35,0,

89,121,1,43,35,1,

88,120,1,44,36,1,

88,120,1,43,35,0,

88,120,1,43,35,1,

88,119,0,42,35,1,

88,118,1,42,35,1,

87,118,1,42,35,0,

87,117,1,41,35,1,

86,117,1,41,35,1,

86,116,1,41,34,0,

85,116,1,41,34,0,

85,115,1,41,34,1,

85,115,1,41,34,1,

84,115,1,41,34,1,

84,114,1,39,34,1,

83,113,0,39,33,1,

83,113,1,39,33,0,

83,113,1,41,33,1,

82,112,1,42,33,1,

82,112,1,42,33,0,

81,111,1,41,33,1,

82,111,1,41,32,1,

81,111,0,41,50,0,

81,110,0,41,50,1,

80,110,1,40,50,1,

116,109,1,39,49,1,

115,109,1,39,49,1,

114,108,1,39,49,1,

114,108,0,39,49,1,

113,108,1,39,48,0,

112,107,0,39,48,1,

112,107,0,39,48,1,

111,106,1,39,48,1,

110,106,1,38,47,1,

110,105,1,39,47,0,

110,105,1,38,46,1,

118,105,1,38,46,1,

117,103,1,38,46,1,

116,103,1,38,46,1,

116,103,1,38,46,0,

172,103,1,37,45,1,

171,103,1,37,45,1,

169,102,0,37,45,1,

167,102,1,36,44,0,

167,101,1,37,45,1,

167,101,1,36,45,1,

166,101,1,36,44,1,

165,100,1,36,44,1,

164,99,1,35,43,1,

163,99,1,35,43,0,

163,99,1,35,43,1,

162,99,0,35,43,1,

161,98,1,35,43,1,

160,98,1,35,42,0,

