
50,50,11,28,19,11,

50,50,12,28,19,11,

50,49,11,28,18,11,

50,49,11,28,18,11,

50,49,11,28,18,11,

49,48,11,27,18,11,

49,48,11,27,18,11,

49,48,11,27,18,12,

49,48,11,27,18,11,

49,49,11,27,18,11,

49,49,11,28,17,11,

48,48,11,27,17,12,

48,48,11,27,18,11,

49,48,11,27,17,11,

48,48,11,26,18,11,

48,47,11,27,17,11,

47,47,11,27,17,11,

47,47,11,26,17,11,

47,48,11,26,17,12,

47,47,11,26,17,11,

47,51,11,26,17,11,

47,57,11,26,17,11,

46,56,11,26,17,11,

46,56,11,26,17,11,

46,56,11,25,17,11,

46,55,11,26,17,11,

46,56,12,25,17,11,

45,55,11,25,17,12,

45,55,11,25,17,11,

45,55,11,25,17,11,

45,54,11,25,17,12,

44,54,11,25,17,11,

45,53,11,25,17,11,

44,53,10,25,17,11,

44,53,11,25,17,10,

44,53,11,24,17,11,

44,53,11,25,17,11,

44,51,12,25,16,11,

43,52,11,25,17,11,

43,51,11,24,17,11,

43,51,11,24,17,11,

43,51,11,25,17,11,

42,51,11,24,16,12,

42,51,11,24,17,10,

43,50,11,24,17,11,

43,51,11,25,16,11,

42,50,11,24,16,11,

41,50,11,24,16,12,

41,50,11,24,16,11,

41,49,11,24,16,11,

41,49,11,24,16,11,

41,49,12,23,16,11,

40,49,12,24,15,11,

41,49,11,24,16,11,

78,49,11,24,16,12,

80,49,12,23,16,11,

80,49,11,23,15,11,

79,49,11,24,16,11,

79,49,12,31,15,11,

78,48,11,37,16,11,

78,48,11,36,16,12,

77,48,11,37,15,11,

77,47,11,36,15,11,

77,47,12,35,16,10,

76,47,11,35,16,11,

76,47,11,36,16,11,

75,46,11,35,16,11,

75,47,12,41,15,11,

76,50,11,40,15,11,

75,50,12,41,16,11,

74,49,11,41,15,11,

74,49,11,39,15,11,

74,49,11,39,15,11,

73,48,11,39,15,11,

73,48,11,39,15,11,

71,48,12,39,16,11,

71,48,11,39,15,11,

71,47,11,39,15,11,

71,47,11,39,15,11,

71,48,11,39,16,10,

71,55,11,39,15,12,

71,55,12,38,15,11,

70,54,11,38,15,11,

71,54,11,38,15,11,

70,53,11,38,15,11,

70,53,12,38,15,11,

69,53,11,38,16,11,

69,52,11,38,17,11,

68,52,11,37,16,11,

68,52,11,37,16,11,

68,51,11,38,17,12,

67,56,12,37,16,11,

67,57,11,36,15,11,

66,56,11,37,15,11,

66,56,11,36,16,11,

67,56,11,37,16,11,

66,56,11,36,15,11,

67,55,11,35,16,11,

65,55,11,36,16,11,

66,55,11,35,16,11,

65,55,11,35,16,11,

65,54,11,35,16,11,

65,55,11,35,15,11,

64,65,11,35,15,11,

65,64,11,34,16,12,

63,63,12,34,16,12,

63,63,11,35,15,10,

63,63,11,34,15,11,

63,63,11,34,16,11,

62,63,11,34,15,11,

62,62,11,34,15,11,

62,62,11,34,15,11,

62,62,11,33,16,11,

62,62,11,34,16,12,

62,63,11,33,15,11,

61,87,12,33,16,11,

61,87,11,33,15,11,

60,86,11,33,15,11,

60,86,11,33,15,11,

60,85,10,33,15,11,

60,84,11,33,16,11,

60,84,11,32,15,12,

59,83,11,33,15,11,

59,83,11,31,15,11,

59,82,10,32,15,12,

59,82,11,32,15,12,

59,82,11,31,15,11,

59,82,11,31,15,11,

58,81,11,31,15,11,

57,81,11,31,15,11,

57,80,11,31,16,11,

57,80,11,31,15,11,

57,79,11,31,15,10,

56,80,11,31,15,12,

56,79,11,31,14,11,

56,79,11,31,15,11,

56,78,11,30,15,11,

56,78,12,30,15,12,

56,78,10,30,15,11,

55,77,11,31,14,12,

54,77,11,30,16,10,

54,77,11,30,14,11,

54,77,11,30,15,11,

54,76,11,30,15,11,

54,76,11,30,15,10,

53,76,11,30,14,11,

53,75,11,30,15,11,

54,75,11,38,15,11,

54,75,11,39,14,11,

53,74,11,39,15,11,

53,74,11,39,16,11,

52,73,11,39,15,11,

52,73,11,39,15,11,

53,73,11,39,14,11,

51,73,12,38,14,11,

51,72,11,39,15,12,

51,71,11,38,15,11,

51,71,11,38,15,12,

51,71,11,37,14,11,

51,71,11,38,15,11,

51,71,11,37,15,11,

51,71,11,37,15,11,

50,71,11,37,15,11,

51,71,11,37,15,11,

50,70,10,37,15,11,

50,71,10,37,14,12,

50,70,11,37,15,11,

50,69,11,37,14,11,

49,69,11,36,14,11,

48,68,11,35,15,11,

49,69,11,35,15,11,

48,68,11,35,14,11,

48,68,12,35,14,11,

48,67,11,35,14,11,

49,67,12,35,14,11,

48,67,11,35,14,12,

47,67,11,35,14,11,

47,66,11,34,14,11,

47,66,11,34,14,11,

46,66,11,35,14,11,

46,66,11,34,14,10,

47,65,11,34,14,11,

46,65,10,34,14,11,

46,65,11,34,14,11,

46,64,11,34,14,11,

46,66,11,33,14,12,

46,70,11,33,14,11,

45,69,11,33,14,11,

45,69,12,33,14,11,

45,68,11,33,14,11,

45,69,12,33,14,11,

44,67,11,33,14,12,

44,67,11,33,14,11,

44,67,11,32,14,11,

44,66,11,32,15,11,

45,67,11,32,15,12,

44,67,11,32,15,11,

44,70,11,32,15,11,

43,70,11,31,15,11,

43,69,11,31,15,11,

43,69,11,31,15,12,

43,68,11,31,15,11,

43,68,11,31,15,12,

42,68,11,31,14,11,

42,67,11,31,15,11,

42,68,11,31,15,11,

42,67,11,31,15,11,

42,67,11,31,15,11,

42,67,11,30,15,11,

42,67,11,30,15,11,

41,67,11,31,15,11,

41,66,12,31,14,11,

41,66,11,31,15,11,

41,66,11,30,14,11,

40,65,12,30,15,11,

41,65,11,30,15,11,

39,65,11,30,14,11,

39,64,11,30,15,11,

39,63,10,29,14,12,

39,63,11,30,14,11,

39,63,11,30,15,11,

39,63,12,31,14,11,

39,63,11,31,14,11,

39,63,11,31,14,12,

39,62,11,31,14,11,

39,62,11,30,14,11,

39,62,11,30,14,11,

39,61,11,30,14,11,

38,61,11,30,14,11,

38,61,11,30,14,11,

38,61,12,30,14,11,

39,61,11,30,14,11,

38,61,12,30,14,11,

38,61,11,30,14,11,

38,61,11,29,14,12,

38,60,12,29,14,11,

38,60,11,29,14,11,

37,60,11,29,14,11,

37,59,11,29,14,11,

36,60,11,29,14,11,

36,59,11,29,14,12,

37,59,11,28,13,12,

36,59,12,28,13,11,

37,59,12,28,14,11,

36,59,11,28,14,11,

35,59,12,28,14,11,

36,59,11,27,14,11,

35,58,11,28,13,11,

35,58,12,28,13,11,

36,57,11,27,14,12,

36,57,11,28,13,11,

36,57,11,28,18,12,

35,57,11,27,18,11,

35,57,11,27,17,12,

35,57,12,27,17,10,

35,57,11,27,17,11,

35,78,11,27,17,11,

35,93,11,27,17,11,

35,93,11,27,17,11,

35,93,12,27,17,11,

38,91,11,26,17,11,

37,92,11,26,17,11,

37,91,11,26,17,11,

37,91,12,28,19,11,

37,90,11,28,18,11,

37,89,11,28,18,12,

37,89,11,27,18,11,

37,89,12,27,18,11,

37,89,11,28,18,11,

36,88,11,27,18,11,

37,88,11,27,18,11,

36,88,11,27,18,11,

35,86,11,27,17,11,

35,86,11,27,18,11,

35,86,11,27,17,11,

35,85,11,26,17,11,

35,85,12,27,25,12,

35,85,12,26,25,11,

35,84,11,26,25,11,

35,84,11,26,25,12,

35,85,11,26,24,11,

34,83,12,26,24,11,

34,83,11,26,25,12,

35,83,11,26,25,12,

34,83,11,27,25,11,

34,83,11,25,24,11,

34,82,11,25,25,12,

34,81,12,26,24,11,

33,81,12,25,24,11,

34,81,12,25,24,11,

33,80,11,25,24,11,

33,80,11,25,24,12,

33,79,11,25,24,11,

33,79,11,29,25,11,

33,79,11,29,42,11,

33,79,11,28,41,11,

33,78,11,28,41,11,

32,78,11,28,41,11,

32,78,11,28,40,11,

32,78,11,28,40,11,

31,77,11,28,77,11,

32,77,11,28,77,11,

31,77,11,28,76,12,

32,77,11,27,76,11,

67,77,12,28,76,11,

127,76,11,27,75,11,

127,75,11,27,74,11,

126,76,11,27,74,11,

125,75,12,27,73,12,

124,75,12,27,74,11,

124,74,12,27,75,11,

123,74,12,26,75,11,

130,74,12,30,77,12,

129,73,11,46,76,11,

127,73,11,46,76,11,

127,73,11,46,75,11,

126,73,12,45,75,12,

125,73,11,45,74,11,

125,71,11,44,74,11,

124,71,12,44,73,11,

124,71,12,44,73,11,

124,71,11,44,73,12,

123,71,12,47,75,12,

122,71,12,49,91,11,

121,70,11,49,91,11,

121,71,12,49,90,12,

120,71,11,48,89,11,

119,71,11,48,88,12,

119,71,11,48,88,11,

118,71,11,48,88,12,

118,70,11,47,87,12,

117,70,11,47,87,11,

117,70,11,47,86,11,

115,69,11,46,86,11,

115,69,12,46,86,11,

115,69,11,46,85,12,

115,70,12,61,135,12,

114,69,12,60,134,12,

113,68,11,60,133,12,

113,67,11,60,131,11,

112,67,11,59,131,12,

112,67,11,59,131,11,

111,66,12,59,130,11,

110,66,11,58,129,11,

110,67,12,58,128,12,

109,66,12,58,127,11,

109,66,12,57,127,12,

109,66,12,57,126,12,

108,66,11,57,127,11,

108,65,11,56,125,11,

107,65,11,57,124,12,

107,65,12,56,124,11,

106,65,12,56,123,12,

105,65,11,56,124,11,

105,64,12,55,122,12,

103,63,12,56,121,12,

103,63,12,55,121,12,

105,66,11,54,120,11,

103,75,12,54,119,11,

103,75,11,54,120,12,

103,74,11,54,118,11,

103,73,11,53,118,12,

102,73,12,53,117,12,

101,73,11,53,117,11,

101,72,12,53,116,11,

101,71,11,51,115,12,

99,71,12,52,115,12,

99,71,11,52,115,11,

100,71,12,52,114,11,

99,73,11,51,113,11,

98,72,11,51,113,11,

98,71,12,52,112,11,

97,71,12,51,112,11,

97,71,12,51,111,12,

96,71,12,50,111,11,

96,71,11,50,110,11,

96,71,12,50,110,11,

96,70,12,50,109,11,

95,70,12,49,109,12,

95,70,11,49,109,12,

94,73,11,49,108,11,

94,71,11,49,108,11,

93,71,11,49,107,11,

92,71,11,48,106,11,

92,71,12,48,106,12,

92,71,11,48,105,11,

92,71,12,48,108,12,

92,70,11,48,107,11,

91,69,11,47,107,11,

90,70,12,47,106,11,

90,69,12,47,106,12,

90,81,12,47,105,11,

89,80,11,46,103,11,

89,79,11,46,105,11,

89,80,11,46,103,11,

88,79,11,47,103,11,

88,79,11,46,103,12,

88,79,11,46,102,11,

87,78,12,46,103,12,

88,77,11,45,102,11,

86,77,12,45,101,11,

86,77,12,45,100,11,

86,77,12,45,100,12,

85,76,11,44,100,12,

85,76,11,45,99,12,

83,76,11,45,99,11,

83,75,11,44,98,12,

83,75,12,44,98,11,

84,75,12,44,97,11,

83,74,12,44,97,12,

83,74,11,44,97,12,

82,73,12,43,96,11,

82,73,11,44,96,11,

82,73,11,43,96,12,

81,77,12,43,96,11,

81,76,12,43,95,12,

79,76,12,42,94,11,

79,76,12,42,94,12,

80,76,12,41,94,11,

79,76,12,42,93,11,

79,75,11,41,93,11,

79,75,11,41,93,12,

78,74,12,41,92,12,

79,74,10,41,92,12,

78,73,12,41,92,11,

78,73,12,41,91,11,

77,73,11,41,91,11,

77,78,11,41,90,12,

76,78,12,39,90,12,

77,77,11,39,89,12,

76,77,11,39,89,11,

76,76,11,39,89,11,

75,76,12,39,88,11,

75,76,12,39,88,12,

75,76,11,39,88,11,

75,75,11,39,88,12,

74,75,11,39,87,11,

74,77,12,39,87,11,

73,88,11,39,87,11,

73,86,11,38,86,11,

73,85,11,39,86,11,

73,85,12,38,85,11,

72,85,12,38,85,11,

72,84,12,37,85,12,

71,83,12,38,94,12,

71,83,11,38,107,12,

71,83,11,38,107,11,

71,83,12,38,106,12,

71,83,11,51,106,12,

70,82,11,51,103,12,

70,82,11,50,104,11,

70,81,11,50,103,11,

70,80,11,50,103,11,

69,81,11,50,103,11,

69,79,11,49,102,12,

68,79,12,49,102,11,

68,79,11,50,101,12,

68,79,11,48,101,11,

68,79,11,49,100,11,

67,78,11,48,99,12,

67,78,11,49,99,12,

67,152,11,48,99,11,

67,155,11,48,98,12,

66,153,11,47,98,11,

66,153,11,47,123,11,

66,152,11,47,121,12,

66,151,11,47,121,11,

65,150,12,46,120,12,

65,149,12,46,120,11,

64,148,11,45,120,11,

65,147,12,46,118,12,

99,147,11,46,118,12,

97,146,11,46,117,11,

97,145,12,45,117,12,

97,144,11,44,116,11,

96,143,12,45,115,11,

95,143,12,44,115,11,

95,143,12,44,115,11,

94,141,11,44,114,11,

94,140,11,44,113,12,

94,141,12,44,113,11,

93,139,12,43,112,12,

93,139,11,43,111,12,

92,138,11,43,112,12,

92,137,11,43,110,11,

91,137,12,43,110,11,

90,135,11,42,109,11,

91,135,12,42,109,11,

89,135,12,42,108,11,

89,134,11,42,108,12,

89,133,11,42,107,11,

89,133,12,41,109,12,

88,132,11,47,116,12,

88,131,11,47,115,11,

97,131,12,47,115,12,

103,130,11,46,114,11,

103,129,11,46,114,12,

103,128,12,46,113,11,

103,127,12,45,112,12,

102,127,12,46,111,11,

101,127,12,45,111,12,

100,126,12,45,111,12,

100,126,11,45,110,11,

99,125,11,45,110,11,

99,125,11,45,109,12,

102,124,11,44,108,12,

101,123,11,44,108,11,

101,122,11,44,107,12,

100,122,12,44,107,11,

100,121,11,44,107,12,

99,121,11,43,106,11,

98,120,12,44,105,11,

98,119,11,44,105,11,

98,119,12,43,104,11,

137,118,11,43,103,12,

135,118,12,42,103,11,

135,117,12,42,102,11,

134,117,12,42,102,11,

133,116,11,41,101,11,

132,115,12,42,102,12,

131,114,11,41,100,11,

131,115,12,41,100,11,

130,114,11,41,99,12,

129,113,11,40,99,12,

129,112,11,41,99,11,

127,112,11,40,98,11,

127,111,11,40,98,11,

127,111,11,39,97,12,

126,110,12,39,97,12,

125,110,11,39,100,12,

125,110,12,39,101,11,

124,109,11,39,101,11,

124,109,12,39,100,11,

176,110,12,39,100,11,

183,110,12,39,99,11,

181,109,11,39,98,12,

179,109,11,39,98,11,

179,108,11,39,97,12,

178,108,11,38,97,11,

176,107,11,38,96,11,

176,106,12,38,96,12,

175,106,12,39,96,11,

174,105,11,38,95,11,

173,105,11,38,95,12,

172,105,11,38,95,11,

171,103,12,37,94,12,

170,103,11,37,93,11,

169,103,11,36,99,11,

167,103,11,36,98,12,

167,103,11,36,98,11,

167,102,12,36,98,12,

166,102,12,36,97,11,

165,100,12,36,96,12,

164,100,12,36,96,12,

163,100,11,35,96,11,

162,99,11,36,95,12,

162,99,12,36,95,12,

161,98,11,35,94,12,

160,99,12,36,94,12,

159,98,11,84,99,12,

159,97,11,83,98,12,

158,96,12,82,98,12,

157,96,12,82,97,12,

179,96,11,82,97,12,

219,96,11,81,96,11,

216,95,12,80,96,11,

216,96,11,81,95,12,

214,116,11,79,94,11,

213,116,11,80,139,12,

222,126,11,79,141,12,

220,125,12,79,140,11,

219,125,11,78,140,11,

217,124,12,78,139,12,

217,123,12,78,147,11,

215,123,11,77,145,12,

214,121,12,77,145,12,

212,121,11,76,143,11,

211,120,11,75,143,11,

211,120,12,76,142,11,

209,119,12,75,142,11,

207,120,12,75,140,12,

207,118,11,75,140,12,

206,117,12,74,139,11,

204,117,11,74,138,11,

204,116,11,73,137,11,

202,115,12,73,135,12,

201,115,12,71,135,11,

199,115,11,71,135,11,

199,113,11,71,135,11,

198,113,11,71,134,12,

196,112,11,71,133,12,

195,112,11,71,133,12,

195,111,12,71,132,11,

194,110,12,70,131,11,

193,110,11,70,131,11,

192,110,12,69,130,11,

191,109,12,69,129,11,

190,109,11,69,128,11,

190,108,11,68,127,11,

188,107,12,67,127,12,

187,107,12,68,126,11,

186,107,12,67,126,12,

185,106,12,67,125,11,

184,105,12,66,124,12,

184,104,12,67,124,11,

182,104,12,66,124,12,

182,103,12,67,124,12,

181,111,12,66,122,12,

188,110,13,66,123,12,

247,131,12,65,121,12,

244,130,12,65,120,12,

243,129,12,65,120,12,

241,128,12,64,120,11,

240,127,12,64,119,12,

238,127,12,63,120,11,

237,127,12,63,118,12,

236,126,12,63,137,12,

235,126,12,63,136,12,

233,124,12,63,135,12,

231,124,13,62,135,13,

230,123,12,62,134,12,

229,123,12,62,133,12,

227,121,13,62,132,12,

227,121,12,62,131,13,

225,120,12,62,131,12,

224,120,13,62,130,13,

223,119,13,61,129,12,

221,118,13,61,129,12,

221,118,12,60,127,13,

267,118,13,60,127,13,

281,117,13,61,127,13,

280,117,14,60,126,12,

277,115,13,59,126,13,

275,115,13,59,182,13,

273,114,13,59,179,13,

272,114,13,59,179,13,

270,113,14,59,177,13,

269,113,14,59,176,13,

268,112,13,58,175,13,

265,112,14,58,174,14,

263,112,14,57,173,14,

263,111,14,57,172,14,

261,110,14,57,192,14,

260,110,14,57,240,14,

258,109,14,57,238,13,

256,108,13,56,236,14,

255,108,14,56,235,13,

254,107,14,56,233,13,

252,107,14,56,231,14,

251,106,14,56,230,13,

249,105,14,56,229,13,

248,105,14,55,227,14,

247,104,14,54,227,14,

246,103,14,54,225,14,

244,103,14,54,224,14,

243,103,14,53,223,13,

241,103,14,54,221,14,

240,102,14,53,220,14,

239,102,14,53,219,14,

237,101,14,53,217,13,

236,100,14,52,216,14,

235,100,14,56,216,14,

233,99,13,66,215,13,

231,99,14,66,213,14,

231,98,13,65,212,14,

231,98,14,64,211,14,

230,97,14,65,210,14,

228,97,14,65,209,13,

227,97,14,63,207,14,

226,96,14,63,207,14,

225,96,14,63,206,13,

224,95,14,63,205,14,

223,95,14,62,206,14,

222,95,14,62,205,13,

221,94,14,61,204,14,

219,93,13,61,203,14,

218,93,14,61,202,14,

217,93,14,61,201,13,

217,93,14,61,199,13,

216,92,14,61,199,14,

214,92,13,60,198,14,

213,91,13,60,197,14,

212,91,13,59,195,13,

211,90,14,59,195,13,

210,89,14,59,193,13,

209,89,13,59,193,13,

207,89,13,59,192,14,

207,88,13,58,191,13,

206,88,13,57,190,13,

205,88,13,58,189,13,

204,88,14,57,188,13,

203,87,13,57,188,13,

203,87,14,57,187,13,

201,86,13,57,185,13,

199,86,13,56,185,14,

199,86,14,57,184,13,

199,86,14,56,184,14,

199,86,14,57,183,13,

197,85,14,56,182,13,

196,85,14,56,181,14,

195,84,14,56,179,14,

194,83,14,55,179,14,

193,114,14,56,178,14,

192,113,14,55,178,14,

192,113,14,54,177,13,

190,112,14,54,176,14,

190,111,14,54,175,14,

189,111,14,54,174,14,

189,111,14,54,173,14,

187,110,14,53,172,14,

186,109,14,53,172,14,

185,108,13,52,171,14,

185,108,15,53,170,14,

184,107,14,52,169,15,

183,107,15,51,169,14,

182,107,14,51,167,15,

181,105,14,51,167,14,

180,105,15,51,167,15,

179,103,15,51,165,14,

178,103,15,51,165,14,

178,103,15,51,163,15,

177,103,15,83,163,15,

176,103,15,82,162,14,

176,102,15,82,162,15,

175,101,15,81,161,15,

174,102,15,80,159,15,

173,101,15,79,159,15,

172,100,15,79,158,14,

171,99,15,79,158,15,

171,99,15,79,157,15,

170,99,15,79,156,15,

169,98,14,78,156,15,

167,105,16,78,156,15,

167,120,15,77,155,15,

166,120,15,77,153,15,

166,119,16,76,152,15,

165,119,14,76,152,14,

164,117,15,76,152,15,

163,117,15,75,151,15,

199,117,16,75,150,15,

227,115,15,75,149,15,

225,115,15,74,148,15,

224,115,16,74,147,15,

223,146,15,73,147,15,

220,145,15,73,147,15,

220,143,15,73,146,15,

218,143,15,73,144,15,

217,142,15,72,143,15,

216,142,15,71,143,14,

215,141,15,71,143,15,

214,140,15,71,142,15,

212,139,15,71,142,15,

211,139,15,71,194,15,

210,157,15,71,192,14,

208,156,15,70,190,15,

207,153,14,69,188,15,

206,153,14,68,187,14,

205,152,14,67,186,14,

204,151,14,67,185,14,

203,150,14,67,184,14,

201,150,14,68,183,14,

199,148,14,67,182,14,

199,148,14,67,181,14,

207,147,14,66,179,14,

206,146,14,66,179,14,

205,145,14,65,178,14,

204,145,14,65,179,14,

203,144,14,65,178,14,

202,143,13,64,177,14,

201,142,14,64,176,14,

199,141,14,63,175,14,

199,141,13,63,174,14,

197,140,14,63,173,14,

196,139,14,63,173,13,

195,138,14,63,172,14,

195,137,13,62,170,13,

193,137,13,62,169,14,

192,135,14,62,167,13,

192,135,13,62,167,13,

191,135,13,61,167,13,

190,134,13,61,167,14,

188,134,14,61,166,13,

188,133,13,60,164,13,

187,132,14,60,163,13,

186,131,13,60,163,13,

185,131,13,60,162,13,

184,131,14,60,162,14,

184,130,14,60,161,14,

184,130,14,60,159,14,

184,129,14,60,159,14,

182,128,14,59,159,14,

181,127,14,58,158,14,

180,127,14,58,157,14,

179,127,14,59,156,14,

178,126,14,58,156,14,

177,125,14,58,155,13,

176,124,14,57,154,14,

175,124,14,57,153,14,

175,124,14,57,153,14,

174,122,14,57,152,14,

173,122,14,56,151,14,

172,121,14,56,150,14,

171,121,14,56,149,14,

170,120,13,56,148,14,

169,120,14,56,147,13,

167,119,14,56,147,14,

167,119,14,56,146,13,

167,118,14,55,146,14,

166,117,14,56,146,13,

165,116,14,55,144,13,

164,117,14,54,143,14,

163,115,14,54,143,14,

163,115,14,54,142,13,

162,114,14,54,141,14,

162,113,13,54,142,13,

161,113,14,53,141,14,

159,112,12,53,139,13,

159,111,13,52,139,13,

162,111,13,51,137,13,

162,111,12,51,137,13,

160,110,13,51,137,13,

159,110,13,51,135,13,

159,109,13,50,135,13,

158,109,13,50,135,13,

157,108,12,50,134,12,

157,108,13,50,134,13,

156,107,13,50,133,12,

155,106,12,49,132,13,

155,106,13,49,131,13,

153,105,13,49,131,12,

153,105,13,49,131,13,

153,103,13,49,131,12,

152,103,13,49,130,13,

151,103,13,48,129,13,

150,103,13,49,129,13,

149,103,13,48,127,13,

149,102,12,48,127,13,

148,102,13,48,127,13,

147,101,12,47,126,13,

147,100,12,47,126,12,

146,100,13,47,125,13,

146,99,13,47,125,13,

145,99,12,47,124,13,

164,99,13,47,124,13,

243,99,13,48,123,13,

240,98,13,49,122,12,

239,97,12,48,121,12,

237,96,12,47,121,12,

236,96,12,47,120,12,

234,96,13,47,120,12,

232,95,12,47,120,12,

231,94,12,47,119,12,

230,95,12,47,119,12,

229,94,12,46,118,12,

227,94,12,46,118,12,

226,93,12,46,117,11,

225,92,12,46,116,12,

224,93,13,45,115,12,

223,92,12,45,115,12,

222,92,11,45,115,12,

220,91,12,45,115,12,

219,91,12,45,114,12,

218,91,12,44,113,12,

217,90,12,45,113,12,

216,89,12,44,116,12,

216,89,12,44,142,12,

213,89,12,44,142,12,

213,88,12,44,141,12,

212,88,12,44,140,12,

211,88,12,44,140,12,

209,88,12,43,139,12,

207,87,11,43,137,12,

207,86,12,43,137,12,

206,86,12,43,137,12,

205,85,12,43,135,12,

205,85,12,42,135,12,

204,85,12,42,135,12,

203,84,12,42,134,12,

202,84,12,43,133,12,

200,83,12,42,132,12,

199,83,12,41,132,13,

199,83,12,41,131,13,

198,83,12,99,172,12,

197,83,12,98,171,12,

195,82,12,97,170,12,

195,82,12,97,169,12,

194,81,12,96,167,12,

193,81,12,95,167,13,

192,88,12,95,166,13,

192,88,12,94,166,13,

190,88,12,93,165,13,

189,87,13,93,163,12,

188,86,12,92,163,12,

188,86,12,92,162,12,

186,85,12,92,161,13,

185,84,13,92,159,12,

185,83,13,91,159,12,

184,83,12,91,159,12,

183,83,11,90,158,12,

182,83,12,89,157,12,

181,82,12,89,156,12,

180,82,12,89,155,12,

179,81,12,88,155,12,

179,81,12,88,154,12,

178,80,12,88,153,12,

177,80,12,87,153,12,

176,79,12,86,152,13,

175,79,13,86,151,12,

175,79,12,86,150,12,

174,79,12,86,150,13,

173,143,13,85,148,12,

172,142,12,84,148,12,

171,141,13,84,147,12,

170,140,12,83,147,12,

169,139,12,83,145,12,

169,138,12,83,145,13,

167,137,12,82,143,12,

167,135,12,82,143,12,

166,135,12,82,143,12,

166,135,12,81,142,12,

165,135,12,80,141,12,

163,133,12,80,141,12,

164,133,12,80,140,12,

162,132,12,79,140,12,

162,131,12,79,139,11,

161,131,12,79,138,12,

160,130,12,78,137,13,

159,129,12,79,136,12,

158,129,12,78,135,12,

158,127,12,77,135,12,

157,127,12,77,135,12,

157,126,12,76,134,12,

156,126,12,77,133,12,

155,125,12,76,133,12,

154,124,11,75,131,12,

153,123,12,75,131,12,

152,123,12,75,130,11,

152,123,12,74,130,12,

151,122,12,74,129,12,

150,121,12,73,128,11,

150,120,12,73,128,12,

149,120,11,73,127,11,

148,120,12,72,127,12,

147,119,11,71,126,12,

147,118,12,71,125,12,

146,117,12,71,125,11,

145,117,12,71,125,12,

145,116,12,70,124,11,

144,115,11,70,123,12,

143,115,11,70,122,12,

142,115,12,70,122,11,

142,114,12,69,121,11,

142,113,12,68,121,11,

141,113,12,69,120,12,

140,112,12,69,120,12,

140,111,11,68,120,12,

139,111,11,67,118,11,

138,111,12,67,118,12,

137,110,11,67,117,11,

137,110,11,67,117,12,

137,109,12,66,117,12,

135,139,12,66,115,12,

135,137,12,66,115,11,

134,135,12,65,115,11,

134,135,12,65,113,11,

133,135,12,65,113,12,

133,134,12,65,113,12,

132,134,11,64,113,11,

131,133,11,64,112,12,

131,132,12,63,112,11,

131,131,11,63,112,11,

130,131,12,63,111,12,

129,130,12,63,111,11,

129,129,12,65,135,12,

128,128,11,67,167,12,

127,127,12,67,165,12,

127,127,11,67,164,12,

126,126,11,66,163,12,

126,126,12,67,162,12,

125,125,11,66,161,11,

125,125,11,66,160,11,

124,124,12,65,159,12,

124,123,11,65,158,12,

123,123,11,65,158,12,

123,122,12,64,157,12,

122,121,12,63,156,11,

121,121,11,63,155,12,

121,120,11,63,155,11,

120,119,11,63,153,11,

120,119,11,62,153,12,

119,118,11,62,152,11,

119,118,12,62,152,11,

118,117,11,62,151,11,

118,117,11,62,150,12,

117,116,11,61,149,11,

117,115,12,61,147,12,

116,114,12,60,147,11,

115,114,11,60,147,11,

115,114,12,60,146,12,

115,113,12,60,145,12,

114,112,12,60,143,12,

114,112,11,59,143,12,

113,111,12,59,143,11,

112,111,11,59,142,12,

112,110,12,58,141,11,

112,109,12,58,140,11,

112,109,11,58,140,11,

110,108,12,58,140,11,

110,108,11,57,139,11,

110,107,12,57,138,12,

109,107,11,57,137,11,

109,107,11,56,135,11,

108,106,12,58,135,11,

108,105,11,57,135,11,

107,105,11,57,135,11,

107,103,11,57,134,12,

107,103,11,57,133,12,

106,103,11,56,132,11,

105,103,11,56,131,11,

105,102,12,56,131,12,

104,102,12,56,131,11,

103,102,11,56,130,11,

103,101,11,56,129,12,

103,100,11,55,129,12,

103,100,11,55,128,12,

102,100,12,55,127,11,

119,99,11,54,127,11,

119,98,11,54,126,11,

118,98,11,54,126,11,

118,97,12,54,125,11,

117,97,12,54,125,11,

117,97,12,54,134,12,

116,97,11,54,133,11,

115,96,11,53,132,12,

115,96,11,53,131,12,

114,96,11,53,130,11,

113,95,11,52,130,11,

113,94,11,53,129,11,

112,94,11,53,128,12,

112,94,12,51,128,11,

112,93,12,52,127,12,

110,93,12,51,126,12,

111,93,12,52,127,12,

110,173,11,51,125,12,

109,175,12,51,124,11,

108,173,12,50,124,11,

108,173,11,51,123,11,

108,172,11,50,123,11,

108,170,11,50,123,12,

106,169,12,49,122,11,

106,167,11,49,121,11,

105,167,12,49,120,11,

105,167,12,49,120,11,

103,166,12,49,120,12,

103,165,11,49,119,12,

103,164,11,49,118,11,

103,163,11,48,118,12,

102,162,11,48,117,11,

115,161,12,48,116,12,

113,160,11,48,116,12,

112,159,12,47,115,12,

127,158,11,47,115,12,

126,158,11,48,115,11,

125,157,12,46,114,11,

125,156,11,47,113,11,

124,155,12,47,112,11,

123,155,11,47,112,12,

123,153,11,46,112,12,

122,153,11,46,112,11,

121,152,11,46,111,12,

121,151,12,45,110,12,

126,151,11,45,110,11,

127,150,11,45,109,11,

127,149,11,44,108,11,

126,148,11,44,108,12,

126,147,11,44,108,11,

124,147,11,44,107,11,

125,146,12,44,107,11,

124,145,12,43,106,11,

123,144,11,44,106,11,

122,143,11,44,105,12,

122,143,11,43,104,11,

121,142,11,43,104,11,

121,141,11,43,103,12,

120,141,12,43,103,11,

120,140,11,43,103,12,

118,140,11,43,103,11,

118,139,12,54,114,11,

117,138,11,53,113,12,

117,137,11,52,112,11,

116,135,11,52,111,11,

116,135,11,52,111,11,

115,135,11,51,110,11,

114,135,11,51,110,11,

114,135,11,51,109,11,

113,133,12,51,109,11,

112,133,11,50,108,11,

112,132,11,50,107,11,

112,131,11,50,107,12,

112,131,11,50,107,11,

110,130,11,49,106,11,

110,129,12,49,105,11,

109,129,11,49,103,11,

109,128,11,48,103,11,

109,128,12,48,103,11,

108,127,11,48,103,12,

107,127,11,48,102,11,

107,126,12,48,102,12,

157,125,11,47,102,11,

156,125,12,48,101,11,

156,124,12,48,150,11,

153,124,11,47,149,11,

153,123,12,47,147,11,

152,123,11,47,147,12,

152,122,12,46,146,12,

151,121,12,46,145,12,

149,120,12,46,143,11,

149,120,11,46,143,11,

148,120,11,45,142,11,

147,119,12,45,141,12,

146,118,12,45,140,12,

146,117,12,45,140,11,

145,118,11,45,140,12,

144,117,11,44,139,11,

144,141,11,44,139,12,

142,155,11,44,137,11,

142,153,11,43,137,11,

142,152,11,43,135,11,

142,152,11,43,135,11,

140,152,11,43,134,12,

139,150,11,43,134,11,

138,150,12,42,133,12,

138,148,12,42,132,12,

137,147,11,42,131,11,

136,147,12,42,131,12,

135,145,11,41,130,11,

135,145,11,41,130,12,

212,144,12,42,129,11,

268,143,12,41,128,11,

265,143,11,39,127,11,

263,142,11,39,127,11,

262,141,12,40,126,11,

260,141,12,41,126,11,

258,140,11,40,125,11,

257,139,11,39,124,12,

255,139,11,39,124,11,

254,137,12,39,123,11,

252,137,12,39,122,11,

251,136,11,39,122,11,

249,135,11,39,121,12,

248,135,11,39,130,12,

246,134,11,38,130,11,

245,133,11,39,129,11,

244,133,11,45,127,11,

243,132,12,45,127,12,

241,176,12,45,127,12,

239,175,12,44,126,11,

238,174,11,44,125,11,

238,172,11,44,125,12,

236,171,11,43,124,11,

235,170,11,43,124,11,

233,169,12,44,123,11,

231,168,12,43,122,11,

231,167,11,43,122,11,

230,166,12,43,121,12,

228,169,12,43,120,12,

227,185,11,42,120,11,

226,184,12,42,120,12,

255,183,11,42,119,11,

253,182,11,41,118,11,

252,181,11,41,117,11,

250,179,11,39,117,11,

249,178,11,41,116,11,

248,177,12,41,117,12,

247,177,12,41,115,12,

245,177,13,105,115,11,

243,175,12,103,114,12,

242,174,11,103,113,12,

240,173,12,103,113,12,

240,172,12,102,112,12,

238,171,12,101,112,12,

237,170,12,101,112,12,

235,169,12,99,111,11,

233,167,12,99,110,12,

231,167,12,99,110,12,

231,167,12,99,109,12,

230,166,12,98,109,12,

228,165,12,97,108,11,

229,165,12,97,171,12,

227,163,11,96,169,11,

225,162,12,96,169,12,

224,161,11,95,167,11,

224,161,11,95,166,12,

222,159,11,95,166,12,

221,159,12,94,164,12,

220,159,12,94,164,12,

219,181,12,93,162,12,

217,179,12,92,161,12,

216,178,12,92,161,12,

215,177,12,92,159,12,

214,176,11,91,159,12,

213,174,11,91,158,12,

211,174,12,90,157,12,

211,173,11,90,157,12,

209,172,12,89,156,11,

207,171,11,89,155,12,

207,170,11,89,154,12,

207,169,12,88,153,12,

205,168,12,88,152,12,

204,167,11,87,152,12,

203,166,11,87,151,12,

202,166,11,86,150,12,

201,165,12,86,150,12,

199,164,12,85,149,12,

199,163,11,85,148,11,

198,162,12,85,147,12,

197,161,12,85,146,12,

197,161,12,84,145,11,

195,159,12,83,145,12,

195,159,11,83,144,11,

194,158,11,83,143,11,

192,157,12,83,143,12,

192,157,12,82,142,12,

191,156,12,81,141,12,

190,155,12,81,140,12,

188,154,12,81,140,12,

188,153,11,80,140,12,

187,153,11,79,139,12,

186,152,12,79,138,12,

185,151,12,79,137,12,

184,150,12,79,135,12,

184,150,12,78,135,12,

183,149,12,78,135,12,

181,148,11,78,135,12,

181,147,12,78,134,12,

179,147,12,77,133,12,

179,146,12,76,132,12,

178,145,12,76,131,12,

177,143,11,76,131,11,

176,143,12,75,131,12,

176,143,12,75,130,12,

175,142,12,75,129,12,

174,142,11,75,128,11,

173,141,12,74,127,12,

172,140,11,74,127,11,

172,140,12,74,127,12,

171,139,11,73,126,12,

170,138,11,91,126,11,

167,137,12,90,125,12,

167,135,12,89,124,12,

167,135,11,89,123,11,

166,135,12,88,123,12,

166,135,11,88,122,12,

165,134,12,88,121,12,

163,134,12,88,121,12,

163,133,11,88,121,12,

163,132,12,86,120,12,

162,131,11,86,120,12,

161,130,12,86,120,12,

159,130,12,86,119,12,

159,129,11,85,118,12,

158,129,12,84,117,12,

158,127,12,84,117,11,

157,127,12,83,116,11,

157,126,11,83,115,12,

156,126,11,82,114,11,

155,125,11,82,114,12,

154,124,11,82,114,12,

153,124,11,82,114,11,

152,124,11,81,112,12,

152,124,11,79,112,11,

152,123,12,80,112,12,

150,122,11,79,111,12,

150,121,11,79,111,11,

149,121,12,78,110,11,

149,120,12,78,109,11,

147,120,11,78,109,11,

147,119,11,77,109,11,

147,118,11,77,108,11,

146,118,11,77,108,12,

145,117,12,77,107,11,

145,117,11,76,106,11,

143,116,11,76,105,12,

143,115,11,75,105,11,

143,115,11,75,105,12,

142,115,11,75,104,11,

141,114,12,75,103,11,

140,113,11,74,103,12,

140,113,11,73,103,11,

140,112,11,73,103,11,

139,112,11,73,102,11,

138,111,12,72,102,11,

137,110,11,71,101,11,

137,110,12,71,100,11,

135,110,12,71,99,11,

135,109,12,71,99,11,

135,109,12,71,99,11,

135,108,11,71,99,12,

134,108,11,70,98,11,

133,107,11,70,98,11,

132,107,11,70,97,11,

131,106,11,70,97,11,

131,106,11,69,96,11,

131,105,11,68,96,11,

130,105,11,68,96,11,

130,103,11,68,95,11,

129,103,11,67,95,11,

128,103,11,67,94,11,

127,103,11,67,95,11,

127,103,11,67,94,11,

126,103,11,66,94,11,

127,102,12,67,93,11,

125,101,11,66,93,11,

125,101,11,66,93,12,

125,101,11,65,92,11,

124,99,11,65,92,11,

124,99,11,65,91,11,

124,99,11,65,91,11,

123,99,12,64,91,12,

122,126,12,63,91,12,

121,125,11,63,90,11,

121,125,11,63,89,12,

121,124,11,63,89,11,

120,123,11,62,89,12,

120,122,11,62,88,11,

120,122,11,62,88,11,

119,121,11,62,88,12,

118,121,11,62,88,11,

118,120,11,62,88,11,

117,119,11,61,87,11,

117,119,12,61,87,12,

117,118,11,60,86,11,

116,117,11,60,86,11,

116,118,11,61,135,11,

115,116,11,60,133,11,

115,115,11,60,133,12,

114,115,11,59,131,11,

113,114,11,59,131,12,

113,114,11,59,130,12,

113,113,12,58,129,11,

112,113,12,58,129,11,

111,113,11,58,127,11,

111,112,11,57,127,11,

110,112,11,57,126,11,

110,111,11,57,126,11,

109,110,11,57,125,11,

109,110,11,56,124,11,

109,109,11,56,124,12,

135,109,11,57,124,11,

135,108,11,56,122,11,

134,108,11,55,121,11,

132,108,11,55,121,11,

131,106,12,55,120,11,

131,106,11,55,120,11,

131,105,11,55,119,11,

129,105,11,54,120,11,

128,103,11,54,118,11,

127,103,11,54,117,11,

127,103,11,54,117,11,

127,102,11,54,116,11,

126,102,11,53,115,11,

125,102,11,53,115,11,

124,101,11,53,115,12,

124,100,11,52,115,12,

123,100,11,52,114,11,

123,100,11,52,113,11,

122,99,11,52,113,11,

121,99,11,51,112,11,

121,98,11,51,111,11,

122,98,11,51,111,11,

121,97,11,51,110,12,

121,97,12,51,110,11,

120,108,11,50,109,11,

120,107,12,50,109,12,

120,107,11,50,108,11,

118,106,11,49,108,12,

118,105,11,50,107,11,

117,105,11,50,107,12,

175,105,12,49,137,11,

172,103,11,49,135,11,

172,103,11,49,135,11,

170,102,11,49,134,11,

169,102,11,48,133,11,

168,102,11,48,133,11,

167,101,11,48,132,11,

166,101,11,48,131,11,

166,100,11,47,130,11,

164,99,11,47,129,12,

163,99,11,48,129,11,

163,99,11,48,128,11,

163,98,12,65,131,11,

161,98,11,63,131,12,

161,98,12,64,131,12,

231,145,11,63,129,11,

230,146,11,63,129,11,

227,145,11,62,127,11,

226,143,11,62,127,12,

225,143,11,62,127,11,

223,143,11,61,126,12,

222,142,11,61,125,11,

221,141,11,61,125,11,

220,140,12,61,124,11,

219,140,11,60,123,11,

217,139,11,60,123,11,

216,138,11,59,123,11,

216,137,12,60,121,11,

214,135,11,59,121,11,

213,135,11,58,120,11,

211,135,12,59,120,12,

211,135,11,58,120,11,

209,134,12,58,118,11,

207,133,12,57,118,12,

207,133,11,57,117,11,

206,132,11,57,117,11,

205,131,11,57,116,12,

203,131,11,56,115,11,

202,130,12,56,115,11,

201,129,11,56,114,12,

199,128,11,56,113,12,

199,127,11,55,113,11,

198,127,11,55,113,12,

197,126,11,55,112,11,

196,126,11,55,111,11,

195,125,12,54,111,12,

194,124,11,54,111,11,

193,123,11,54,110,11,

192,123,11,53,109,11,

192,121,11,53,109,11,

190,121,11,53,108,11,

189,121,11,53,108,11,

188,120,11,53,107,11,

187,120,11,52,107,11,

187,120,11,51,107,11,

185,119,11,52,105,11,

184,124,11,51,105,11,

184,124,11,51,103,11,

183,122,12,51,103,11,

182,122,11,50,103,11,

181,122,11,51,103,11,

179,121,11,50,102,11,

179,120,12,49,102,12,

178,120,11,50,102,11,

177,119,11,50,102,11,

177,179,12,49,101,12,

176,181,12,50,100,11,

176,179,12,49,100,12,

174,177,12,49,99,12,

173,177,12,49,99,12,

173,176,11,48,98,11,

172,175,12,48,98,12,

171,174,12,48,98,12,

170,173,12,48,98,12,

169,172,12,48,97,11,

167,171,12,48,97,12,

167,172,12,47,96,12,

166,172,12,48,96,12,

167,171,12,47,95,12,

165,171,12,46,95,12,

164,169,11,46,94,12,

164,167,12,46,94,12,

163,167,12,46,93,12,

162,167,11,46,92,11,

161,166,11,46,92,11,

161,166,12,45,93,12,

159,164,12,46,92,12,

159,163,12,47,91,12,

158,162,12,47,91,12,

158,162,12,46,90,12,

157,161,12,47,91,12,

156,160,11,46,90,11,

156,159,12,47,89,11,

156,158,12,46,89,11,

154,157,12,46,89,11,

153,157,11,45,88,12,

153,155,11,45,87,11,

152,155,11,45,88,11,

152,154,11,44,87,11,

150,153,11,44,86,11,

150,152,11,44,86,12,

149,152,11,44,85,11,

148,151,12,43,85,11,

147,151,11,43,84,11,

147,150,11,44,84,12,

146,148,11,43,84,11,

146,147,11,43,83,11,

145,147,11,42,83,12,

144,147,11,43,83,11,

143,146,11,42,82,11,

143,145,11,42,82,11,

142,145,12,41,82,11,

142,144,11,41,81,11,

142,143,11,41,81,11,

140,143,11,42,81,12,

141,142,11,41,82,11,

139,141,11,41,82,11,

138,140,12,41,81,12,

139,140,11,42,81,11,

137,140,11,40,81,11,

137,139,11,40,82,11,

136,137,11,39,100,12,

135,137,12,40,100,12,

135,135,11,39,99,11,

134,135,11,39,99,11,

134,135,12,39,98,12,

134,134,11,39,98,12,

133,134,11,39,97,11,

132,133,11,39,97,11,

131,133,11,39,96,11,

131,132,11,39,95,11,

130,131,12,39,96,11,

130,131,12,38,95,11,

129,130,11,38,94,11,

128,130,12,38,94,11,

128,129,11,39,93,11,

127,128,11,39,93,11,

126,127,11,38,93,11,

126,127,12,38,92,11,

126,126,11,38,91,12,

125,127,12,38,91,12,

125,126,11,38,91,12,

124,126,11,37,90,11,

124,125,11,37,90,11,

123,124,11,37,89,11,

123,124,11,36,89,12,

123,123,11,37,88,11,

121,123,11,36,88,11,

121,122,11,36,88,11,

120,122,11,36,88,11,

120,121,11,36,87,11,

120,121,11,36,86,11,

119,120,12,35,86,11,

119,120,11,35,86,11,

118,118,11,35,85,12,

117,118,11,35,84,11,

116,118,11,35,84,11,

116,117,12,35,84,11,

116,117,12,35,83,11,

115,116,11,35,83,11,

115,115,11,35,82,12,

114,115,11,35,83,11,

114,115,11,35,82,12,

113,114,11,35,82,11,

113,113,11,35,82,11,

112,113,11,38,84,11,

112,112,11,38,84,11,

111,112,11,37,83,11,

112,112,11,37,83,11,

110,111,11,37,83,11,

110,110,12,36,82,11,

109,110,11,37,81,11,

109,112,12,37,81,11,

108,112,11,36,81,11,

108,110,11,36,80,11,

108,111,12,36,79,12,

107,110,11,35,80,11,

107,109,11,35,80,12,

107,109,12,35,79,11,

106,109,12,35,79,11,

105,108,11,35,78,12,

103,107,11,35,78,11,

103,107,12,35,78,12,

103,147,12,35,78,11,

103,146,11,34,77,11,

103,146,11,34,77,11,

103,145,11,34,76,11,

103,145,11,34,76,11,

102,143,11,34,76,11,

102,143,12,33,75,12,

101,143,12,34,76,11,

101,141,12,33,75,11,

100,141,11,33,75,11,

99,140,11,34,75,11,

99,139,11,34,75,11,

99,138,11,33,74,12,

99,138,11,33,74,11,

98,137,11,33,73,11,

98,135,11,33,73,11,

97,135,11,32,73,12,

97,135,12,32,73,11,

96,135,11,32,72,11,

96,133,11,32,71,11,

96,133,11,33,71,12,

95,132,11,31,71,11,

95,132,11,31,71,11,

95,131,11,32,71,11,

94,131,11,31,71,12,

94,130,11,32,70,11,

94,129,11,31,70,11,

93,129,11,31,70,12,

93,127,11,31,70,11,

93,127,11,31,69,11,

92,127,12,31,69,11,

92,126,12,31,69,11,

92,126,11,31,69,11,

92,125,12,30,68,11,

93,125,12,31,67,11,

92,124,12,30,67,11,

92,123,12,30,67,11,

91,123,12,30,67,11,

91,122,11,30,67,12,

90,121,11,30,67,11,

89,121,11,30,66,11,

89,120,11,30,66,11,

89,120,11,30,66,11,

89,120,11,29,66,12,

89,119,12,29,65,11,

89,118,11,29,65,11,

88,118,11,29,65,11,

