
26,23,1,51,33,1,

26,23,1,51,32,1,

25,23,1,51,32,0,

25,23,0,67,32,1,

25,23,1,68,32,1,

25,22,1,68,32,0,

25,23,1,67,31,1,

25,22,1,67,31,0,

25,22,0,67,31,1,

25,22,1,67,31,1,

25,21,0,66,31,1,

24,22,1,66,31,0,

24,22,1,66,31,1,

25,21,0,65,30,1,

24,21,1,65,31,1,

24,21,1,65,31,1,

25,21,1,65,30,1,

24,21,0,65,30,1,

24,20,1,64,30,0,

24,21,1,64,30,1,

24,21,1,63,30,1,

24,20,0,63,30,1,

24,20,1,63,57,1,

23,20,1,62,85,0,

24,20,1,63,84,1,

23,20,1,62,84,1,

23,19,1,62,83,1,

23,20,1,62,83,1,

23,20,1,62,83,1,

23,19,1,62,82,1,

22,19,1,61,81,1,

22,19,1,61,81,1,

22,19,1,60,81,1,

22,19,0,60,80,1,

22,19,1,59,79,0,

21,19,1,60,79,0,

21,19,0,59,79,0,

22,19,1,59,79,1,

22,19,1,59,79,1,

22,19,0,59,78,1,

22,18,1,58,78,1,

21,19,0,57,77,1,

21,18,1,57,76,0,

21,18,1,57,76,1,

21,18,1,57,76,1,

21,18,1,74,76,0,

20,18,1,74,76,1,

20,18,0,73,75,0,

20,18,1,73,75,1,

21,17,1,73,74,1,

20,17,0,71,74,1,

20,17,1,71,73,1,

20,18,1,71,73,1,

19,18,1,71,73,0,

19,17,1,71,73,1,

20,17,1,71,71,1,

19,17,1,71,71,0,

19,17,0,70,71,1,

19,17,1,70,71,1,

19,17,0,69,71,0,

19,17,0,69,71,0,

19,17,0,68,70,0,

19,16,1,69,70,1,

19,16,1,68,70,1,

19,16,1,68,70,1,

19,16,1,67,69,1,

19,15,1,67,69,1,

19,15,0,67,68,1,

18,16,1,67,68,0,

19,15,1,66,67,0,

19,16,0,66,68,1,

19,15,1,65,67,0,

19,16,1,66,67,1,

19,15,1,65,67,0,

18,15,1,65,66,1,

19,15,1,65,66,1,

18,15,1,64,66,1,

18,15,0,63,65,1,

18,15,1,63,65,1,

18,15,1,63,65,1,

18,14,0,63,65,1,

18,15,1,63,63,0,

22,15,1,63,63,1,

34,15,0,62,63,1,

33,15,1,62,63,1,

33,15,1,61,63,1,

33,15,1,62,63,1,

33,15,1,61,63,1,

33,15,1,61,62,0,

33,14,1,61,62,1,

32,15,1,60,62,1,

31,15,1,60,61,0,

31,15,1,60,61,0,

31,15,1,60,61,1,

31,14,1,60,61,1,

31,15,1,63,60,0,

31,14,1,62,60,1,

31,14,1,62,60,1,

30,14,1,62,59,0,

31,14,1,62,59,1,

30,14,1,61,59,1,

30,14,1,61,59,1,

30,14,1,61,59,0,

30,14,0,60,58,1,

30,14,0,60,58,0,

30,14,1,60,58,0,

30,13,0,59,57,1,

29,13,1,59,57,1,

29,13,1,60,57,1,

29,13,1,60,57,1,

29,13,1,59,56,0,

29,13,1,59,56,1,

28,13,0,58,56,1,

29,13,1,58,56,1,

28,13,1,58,55,0,

28,13,1,57,56,0,

28,13,0,57,55,1,

28,13,0,57,55,1,

28,13,1,57,55,1,

27,12,0,56,54,1,

28,13,1,57,54,1,

27,12,1,56,54,1,

27,15,1,56,53,1,

27,16,1,56,53,1,

27,19,1,55,53,1,

27,19,1,55,53,1,

27,18,1,55,53,1,

27,18,1,55,52,1,

27,19,0,54,51,1,

26,19,1,55,52,1,

27,18,1,54,51,1,

26,18,1,54,51,0,

26,18,1,53,51,0,

26,17,1,53,51,1,

26,18,0,53,51,1,

32,17,1,53,50,0,

39,17,1,52,50,1,

39,17,0,52,50,1,

39,17,1,51,50,0,

39,17,0,52,50,1,

39,17,1,51,49,0,

39,17,1,51,49,0,

38,17,1,51,49,1,

38,17,1,51,49,0,

38,16,1,51,48,1,

38,16,0,50,48,0,

38,16,1,50,48,1,

37,16,1,50,48,0,

37,16,1,50,47,0,

37,16,1,50,48,0,

37,16,0,49,47,1,

36,16,1,49,47,1,

36,17,1,49,47,0,

36,16,0,49,47,0,

36,16,1,49,47,0,

36,16,1,49,46,1,

35,16,1,48,46,1,

35,16,1,48,46,1,

35,16,1,48,45,0,

35,15,1,48,45,0,

34,15,1,47,45,1,

35,16,1,47,45,1,

34,15,1,48,45,1,

34,39,0,48,45,1,

34,39,1,47,44,0,

33,39,1,47,44,1,

33,39,1,47,44,1,

33,39,0,47,44,1,

34,39,1,46,44,1,

33,38,0,46,43,1,

33,38,0,46,43,0,

33,38,1,46,44,1,

33,37,1,45,43,1,

33,38,0,46,43,1,

32,37,0,45,43,1,

32,37,1,45,42,1,

31,38,1,45,42,1,

31,38,1,44,41,0,

31,37,1,44,42,1,

31,37,1,45,42,1,

31,36,1,44,41,1,

31,36,0,43,41,1,

31,36,1,44,41,0,

31,35,1,44,41,1,

31,36,1,43,40,0,

31,35,1,43,39,1,

30,35,0,43,39,1,

30,35,0,54,39,1,

30,35,1,53,39,0,

30,36,1,53,39,0,

30,37,1,53,39,1,

29,37,1,52,39,1,

29,37,1,52,39,1,

30,37,0,51,39,0,

29,37,1,51,39,1,

29,36,1,51,39,1,

29,36,1,51,39,1,

29,35,1,51,38,0,

29,35,0,50,38,1,

29,35,1,51,38,1,

30,35,1,50,38,1,

31,35,1,67,39,0,

31,35,1,66,39,0,

30,35,1,65,39,1,

30,35,1,65,39,1,

30,35,1,64,39,1,

30,34,1,64,39,0,

30,34,1,63,39,1,

29,34,1,63,39,0,

29,33,0,63,39,1,

29,34,0,63,38,0,

29,33,1,63,39,1,

29,33,1,63,38,0,

29,33,1,62,38,1,

28,33,1,62,38,1,

29,33,1,62,38,1,

28,33,0,62,38,0,

28,32,1,61,37,0,

28,31,1,61,38,1,

28,32,1,61,38,1,

28,31,0,60,37,1,

28,31,1,60,37,1,

28,31,1,60,37,1,

28,31,1,59,36,0,

27,31,1,59,36,1,

27,31,1,76,39,1,

27,31,1,75,39,1,

27,35,1,75,39,1,

27,34,0,74,39,1,

27,34,1,74,38,0,

26,34,0,73,38,1,

26,34,1,73,38,1,

26,33,1,73,37,1,

27,33,1,71,37,1,

26,33,1,71,37,0,

25,33,1,71,37,0,

25,34,1,71,37,0,

25,33,1,71,37,0,

25,33,1,71,36,1,

25,33,1,71,36,1,

25,33,1,70,36,1,

25,33,1,70,36,1,

25,96,1,70,36,1,

24,105,1,69,36,1,

24,103,1,68,35,1,

24,103,1,68,35,0,

24,103,1,68,35,1,

25,102,1,68,35,1,

24,102,0,68,35,1,

24,101,1,67,35,1,

24,101,0,66,34,1,

24,100,1,67,35,1,

31,99,1,67,34,1,

31,99,0,66,34,0,

30,99,1,66,34,1,

31,98,1,66,34,1,

31,97,1,65,33,1,

30,108,0,64,33,1,

30,111,0,65,33,1,

30,110,1,64,33,1,

30,110,1,63,33,1,

30,108,1,63,33,1,

30,108,1,63,33,1,

29,108,1,63,33,1,

33,108,1,63,32,1,

59,107,0,62,33,1,

58,107,1,62,32,1,

58,112,1,62,31,0,

58,112,1,62,31,1,

57,111,1,61,31,1,

57,110,1,61,31,1,

57,109,1,61,31,1,

57,109,0,60,31,1,

57,109,1,60,31,1,

56,108,0,60,31,0,

56,108,1,60,31,1,

55,107,0,60,31,1,

55,107,1,66,64,1,

55,105,1,65,63,0,

55,105,1,64,63,1,

54,105,1,64,63,1,

54,105,1,63,62,0,

53,103,1,64,61,0,

53,103,1,63,61,1,

53,103,1,63,61,0,

53,103,1,65,61,1,

53,102,1,65,60,0,

53,101,0,65,60,1,

52,101,1,64,60,1,

52,101,1,65,60,1,

51,100,0,66,59,0,

51,102,1,65,59,1,

51,149,1,65,59,1,

51,148,1,65,58,0,

51,147,1,63,58,1,

51,147,1,63,58,1,

51,146,1,63,58,0,

51,145,0,63,57,1,

50,144,1,63,57,1,

50,143,1,63,56,1,

50,173,1,63,57,1,

51,263,1,62,56,1,

51,287,1,62,56,0,

51,286,1,61,56,1,

52,285,1,61,55,0,

51,283,0,61,55,1,

51,280,1,61,78,1,

51,280,0,60,94,1,

50,278,1,60,93,1,

50,276,1,60,93,1,

50,275,1,60,92,1,

50,273,1,59,92,1,

50,271,1,59,91,1,

49,271,1,58,90,1,

49,269,1,58,90,1,

49,268,1,58,89,1,

48,267,0,57,89,1,

48,265,1,58,89,0,

48,263,1,57,88,1,

48,263,0,57,88,1,

51,261,1,57,87,1,

51,260,1,56,86,1,

50,259,1,56,86,1,

50,257,1,56,86,0,

50,255,0,56,86,1,

50,255,1,56,85,1,

50,254,1,56,85,1,

49,252,1,55,84,0,

49,251,1,55,84,1,

92,251,1,55,83,1,

91,249,1,54,83,0,

90,248,1,54,82,1,

90,247,0,53,82,1,

89,246,1,53,82,1,

89,244,1,53,82,0,

88,243,0,53,81,1,

88,242,1,52,81,1,

88,241,1,52,80,1,

88,240,1,75,80,1,

88,239,1,105,79,1,

91,238,1,103,97,0,

100,237,1,103,96,0,

117,236,1,103,95,1,

115,234,1,102,95,1,

115,233,1,102,94,1,

115,231,1,101,94,1,

114,231,1,101,93,1,

113,229,1,100,93,1,

112,228,1,99,92,1,

112,227,1,99,92,1,

111,226,1,99,93,1,

172,225,1,98,93,1,

170,224,1,97,92,1,

169,223,1,97,92,1,

167,223,1,96,92,1,

167,221,1,96,91,1,

166,220,1,95,90,1,

164,219,1,96,89,1,

164,218,1,95,89,1,

163,217,1,94,93,1,

162,216,1,94,93,1,

161,215,0,93,92,1,

160,214,1,93,92,1,

159,291,1,93,91,1,

159,327,1,92,91,1,

158,325,1,92,103,1,

157,322,1,91,103,1,

156,321,1,91,103,1,

156,318,2,91,103,1,

155,317,1,90,102,1,

154,315,1,90,101,1,

153,313,1,89,101,2,

153,312,1,89,100,1,

152,309,2,89,99,1,

152,307,1,88,99,2,

150,306,2,88,99,1,

150,304,1,87,98,1,

149,302,1,87,98,2,

148,301,1,86,97,1,

147,299,1,86,97,2,

147,297,1,86,96,1,

146,295,1,85,96,2,

145,295,1,85,95,1,

145,293,1,84,95,1,

143,291,1,83,94,1,

143,290,2,83,96,1,

143,289,1,83,129,1,

142,287,1,83,127,2,

141,286,1,82,126,1,

140,284,1,81,125,2,

140,283,2,81,125,2,

140,281,2,81,124,1,

138,280,2,81,123,1,

207,280,2,80,123,1,

280,277,2,79,122,1,

277,275,1,79,121,2,

275,274,2,79,121,1,

273,271,1,78,120,2,

271,271,2,78,120,1,

269,270,2,78,119,1,

268,269,2,77,118,2,

266,267,2,77,117,1,

265,265,1,77,117,1,

263,263,1,76,116,1,

262,263,2,76,115,1,

260,262,2,76,115,1,

259,260,2,75,115,2,

257,259,2,75,114,2,

255,258,2,75,113,1,

254,255,1,74,113,1,

253,255,1,73,112,1,

252,253,2,73,112,2,

251,252,2,73,111,1,

249,251,2,73,110,2,

248,250,2,72,110,1,

247,249,2,71,110,2,

246,248,2,71,112,1,

243,247,1,71,112,2,

243,245,1,73,111,2,

241,243,1,71,110,1,

240,243,1,71,110,1,

239,241,1,71,109,1,

238,241,2,71,109,1,

237,239,1,71,108,1,

236,238,2,71,108,1,

234,237,2,70,107,1,

233,235,2,70,107,2,

231,235,1,69,106,1,

231,233,2,69,105,1,

230,231,1,69,105,1,

227,231,2,68,103,2,

227,230,2,69,103,2,

226,229,1,68,103,2,

225,227,2,67,103,2,

224,227,2,67,102,1,

223,226,2,67,102,2,

222,225,1,67,102,1,

221,224,1,66,101,1,

219,223,1,66,100,2,

218,222,2,65,99,1,

217,220,2,65,99,2,

216,220,1,86,99,2,

216,219,2,103,98,1,

215,217,2,102,98,1,

213,216,1,101,97,1,

212,216,1,100,97,1,

211,214,2,100,97,1,

210,214,1,99,96,2,

209,213,2,99,96,1,

208,211,1,98,96,1,

207,211,1,98,95,2,

207,210,2,97,94,1,

206,209,2,97,94,1,

205,207,1,96,93,2,

204,207,1,96,93,1,

203,206,1,96,134,2,

202,205,1,95,131,1,

201,204,1,94,130,1,

199,203,1,94,130,2,

199,202,1,93,129,1,

199,201,1,93,128,1,

197,201,1,93,127,1,

196,199,1,92,127,1,

195,199,1,92,126,1,

195,198,1,110,125,2,

193,197,2,109,125,2,

192,282,2,108,124,1,

192,280,2,108,123,1,

190,278,1,106,123,2,

189,275,2,106,122,1,

188,274,1,105,121,2,

188,273,2,105,121,1,

187,271,1,103,120,2,

185,269,2,103,120,2,

185,268,2,103,119,1,

184,266,2,103,118,1,

184,263,2,102,118,1,

183,263,2,101,117,2,

184,261,1,101,116,2,

183,260,2,101,115,2,

182,259,2,99,138,2,

181,257,2,99,137,2,

180,255,2,99,135,2,

179,254,2,98,135,2,

179,252,2,98,134,2,

178,252,2,98,134,1,

177,250,2,97,133,2,

177,249,2,96,132,2,

175,248,2,96,131,2,

175,246,1,95,131,2,

174,245,2,95,131,2,

173,243,2,94,130,2,

173,242,2,94,129,2,

171,241,2,93,128,2,

171,240,2,93,127,2,

171,239,2,93,127,2,

169,237,2,92,126,2,

167,237,2,92,125,2,

167,235,2,91,127,2,

167,234,2,91,149,2,

166,231,2,90,147,2,

165,231,2,90,146,2,

165,231,2,89,145,2,

164,229,2,89,144,2,

163,228,2,88,143,2,

162,227,2,89,143,2,

161,225,2,88,142,2,

161,263,2,88,142,2,

160,262,2,88,141,2,

159,259,2,88,140,3,

159,258,2,88,140,2,

158,257,2,87,194,2,

158,255,2,87,191,2,

157,254,2,86,190,2,

156,253,2,85,189,2,

155,251,2,85,188,2,

155,250,2,85,187,2,

154,248,2,84,185,2,

167,248,2,83,185,2,

166,246,2,94,184,2,

165,245,2,94,236,2,

164,243,2,99,255,2,

163,242,2,98,253,2,

162,241,2,97,252,2,

162,240,2,97,251,2,

161,238,2,96,249,2,

159,238,2,96,248,2,

159,236,2,96,246,2,

158,235,3,95,246,2,

157,233,2,94,243,2,

156,231,2,94,243,2,

156,231,2,93,242,2,

156,259,2,93,240,2,

186,291,2,92,239,2,

185,289,2,92,237,3,

184,287,2,92,237,2,

183,286,2,92,235,2,

182,284,2,91,234,2,

181,282,2,90,231,2,

180,280,2,89,231,2,

179,280,2,89,230,2,

178,278,1,118,229,2,

177,276,2,116,227,2,

176,274,2,115,226,2,

175,273,2,115,225,2,

174,271,2,114,224,2,

174,270,2,114,223,2,

172,268,2,113,222,2,

172,267,2,112,220,2,

171,265,2,112,220,2,

169,263,2,111,218,2,

169,263,2,110,217,2,

167,261,1,110,216,2,

167,259,2,109,215,2,

166,258,2,109,214,2,

165,255,1,109,213,2,

164,255,2,108,211,2,

169,253,2,107,210,2,

167,252,2,107,217,2,

167,251,2,142,245,2,

166,250,2,153,243,2,

165,248,2,152,242,2,

165,247,2,151,240,2,

163,245,2,151,239,1,

163,244,1,149,237,2,

162,243,1,148,236,2,

161,241,2,147,235,2,

160,240,2,147,233,2,

159,239,2,146,231,2,

159,238,1,145,231,2,

158,236,2,143,230,2,

157,235,2,143,228,1,

156,234,2,143,227,2,

155,233,1,142,226,2,

154,231,1,142,225,2,

153,231,1,140,224,1,

153,229,2,140,222,2,

152,227,1,139,221,2,

152,227,1,138,220,1,

203,226,2,137,219,1,

261,224,2,137,218,2,

259,224,1,135,216,1,

257,222,1,135,216,2,

255,221,2,135,214,2,

254,220,1,134,213,2,

252,219,2,134,212,2,

251,249,2,133,211,2,

249,248,2,132,209,2,

248,246,1,131,208,2,

248,244,1,131,207,2,

246,243,1,130,207,1,

244,242,1,129,206,1,

243,240,2,129,204,1,

241,239,1,128,203,2,

240,238,2,127,202,1,

239,236,2,126,201,2,

238,235,1,126,199,1,

236,233,1,126,199,2,

235,233,2,125,199,2,

233,305,2,125,197,2,

231,327,1,123,196,2,

231,325,1,123,195,1,

230,323,1,123,195,1,

229,321,1,122,193,2,

227,319,1,121,192,1,

227,317,2,121,192,1,

225,315,2,120,190,1,

224,313,1,120,189,2,

223,311,1,119,188,2,

222,309,1,118,187,2,

220,307,2,118,186,1,

220,305,1,117,185,2,

218,304,1,116,184,1,

217,302,1,116,184,1,

216,300,1,115,183,2,

215,299,1,115,183,2,

214,297,2,114,181,2,

213,295,1,113,180,2,

211,293,2,113,179,2,

210,291,1,113,179,1,

209,290,1,112,178,2,

207,288,1,111,176,2,

207,287,2,112,176,2,

206,285,1,111,175,1,

205,284,1,110,174,1,

204,283,1,109,174,1,

203,281,1,109,172,2,

202,280,1,116,217,2,

201,278,2,130,241,2,

199,276,1,129,239,1,

199,275,2,128,237,1,

198,273,1,127,236,2,

197,271,1,126,235,2,

196,270,1,126,233,2,

195,269,1,125,231,2,

194,268,1,124,230,2,

193,266,1,124,229,2,

192,263,1,123,228,1,

191,263,2,123,227,1,

190,262,1,122,226,2,

189,261,1,121,224,2,

189,259,2,121,223,1,

187,258,2,120,222,1,

187,257,1,120,220,2,

185,255,1,119,220,2,

185,253,2,118,219,1,

184,252,1,118,217,1,

183,250,1,117,216,2,

182,250,1,116,215,2,

181,248,2,116,213,1,

179,247,1,115,213,2,

179,246,1,114,211,1,

178,245,1,114,210,2,

177,243,2,113,209,2,

176,242,1,113,207,2,

176,241,1,112,207,1,

175,240,1,111,206,2,

174,238,2,111,205,2,

173,237,1,110,204,2,

172,236,1,110,203,2,

171,235,1,110,201,2,

171,233,2,110,199,1,

170,231,2,109,199,2,

169,231,1,109,198,1,

167,230,2,108,197,2,

167,229,2,108,196,2,

167,227,2,107,195,2,

166,226,2,107,195,2,

165,225,1,105,193,2,

164,224,2,105,192,2,

163,223,2,105,192,2,

163,222,2,103,190,1,

162,221,2,103,190,1,

161,255,2,103,188,1,

160,254,2,103,188,2,

159,252,2,103,186,1,

158,251,1,102,185,2,

158,249,2,101,185,2,

157,248,1,101,184,2,

156,247,2,101,183,2,

156,245,1,99,182,2,

156,244,2,99,181,2,

155,243,2,99,184,1,

153,242,2,99,183,1,

153,240,2,98,182,1,

152,239,2,98,181,2,

152,238,2,97,180,2,

152,236,1,97,179,2,

150,235,1,96,178,1,

150,234,1,96,177,2,

149,231,2,96,176,2,

148,231,1,95,176,1,

147,230,2,94,175,2,

147,229,2,94,174,1,

146,227,1,93,173,1,

145,227,1,93,172,1,

145,225,2,93,172,2,

144,224,1,92,171,2,

143,224,2,92,170,1,

143,222,2,92,169,2,

142,221,1,91,167,1,

142,220,2,91,167,1,

141,219,2,91,167,1,

141,217,2,90,166,2,

140,217,1,89,165,2,

139,216,1,89,165,2,

139,215,1,89,163,2,

138,214,1,88,163,1,

137,213,1,88,162,2,

137,211,1,88,161,1,

135,211,1,88,161,1,

135,210,2,86,159,2,

135,209,1,86,159,1,

134,207,2,86,159,1,

134,207,1,86,158,2,

189,206,2,85,157,1,

187,204,1,85,156,2,

185,226,1,85,156,2,

185,224,1,84,155,1,

184,223,2,83,155,1,

183,221,1,83,153,2,

181,220,1,83,152,1,

180,220,1,82,152,1,

179,218,1,82,152,2,

179,217,1,81,151,1,

178,216,1,81,150,2,

177,215,1,130,149,1,

176,214,1,129,149,1,

175,212,1,128,148,1,

174,211,1,127,147,2,

173,210,2,127,146,1,

172,209,1,126,146,2,

171,207,1,125,145,1,

170,207,1,125,145,1,

169,205,2,124,143,1,

167,205,1,124,143,1,

167,204,1,123,143,1,

167,202,1,121,142,1,

165,201,1,121,141,1,

164,199,1,121,140,1,

163,199,2,120,140,1,

163,199,1,120,139,1,

163,197,1,119,138,1,

162,197,1,119,137,1,

160,195,1,118,137,0,

159,195,2,117,137,1,

159,194,2,116,135,1,

158,193,1,116,135,2,

158,192,1,115,135,1,

156,191,1,114,134,1,

156,190,1,114,134,1,

155,189,1,113,133,1,

154,188,1,113,133,1,

153,187,1,112,132,1,

153,187,1,112,131,1,

152,186,1,111,131,1,

151,185,1,110,130,1,

150,184,1,110,129,1,

150,183,1,109,129,1,

148,182,1,109,128,1,

147,181,1,108,127,1,

147,180,1,108,127,1,

146,179,1,107,213,1,

146,179,1,106,229,1,

145,178,1,106,227,1,

143,177,1,105,226,1,

143,176,1,105,224,2,

143,176,1,103,223,1,

142,175,1,103,221,1,

141,174,1,103,220,1,

141,173,1,103,219,1,

140,172,1,103,217,1,

139,171,1,102,216,1,

139,171,1,101,216,1,

137,169,1,101,214,1,

137,169,1,100,212,1,

135,167,1,99,211,1,

135,167,1,99,210,1,

135,166,1,99,209,1,

134,166,1,98,207,1,

134,165,1,98,207,1,

134,164,1,98,206,1,

133,163,1,97,205,1,

132,163,1,97,204,1,

131,162,1,96,203,1,

131,161,1,96,202,1,

130,160,1,96,201,1,

130,159,1,95,199,1,

129,159,1,94,199,1,

129,159,1,94,198,1,

128,158,1,93,197,1,

127,157,1,93,195,1,

127,157,1,92,195,1,

126,156,1,92,194,1,

126,155,1,92,193,1,

125,155,1,92,192,1,

124,154,1,91,191,1,

124,153,1,90,190,2,

124,153,1,90,189,1,

123,153,1,89,188,1,

123,152,1,89,188,1,

133,152,1,88,186,1,

132,151,1,88,185,1,

131,150,1,88,185,1,

130,149,1,88,184,1,

130,149,1,87,183,1,

129,148,1,86,182,1,

128,147,1,86,181,1,

127,147,1,86,180,1,

127,146,1,85,179,1,

126,146,1,85,178,0,

125,145,1,85,178,1,

126,143,1,84,176,1,

125,143,1,83,176,1,

124,143,1,83,175,1,

124,142,1,83,174,1,

123,142,1,82,173,1,

123,141,1,82,172,0,

121,141,1,81,172,1,

121,140,0,82,171,1,

120,140,1,81,170,1,

120,139,1,81,169,1,

120,138,1,80,167,1,

119,137,1,80,167,1,

118,137,1,79,167,1,

118,135,1,79,166,1,

117,135,1,79,165,1,

117,135,1,78,165,1,

117,134,1,78,163,1,

116,134,1,78,163,1,

115,133,1,77,162,1,

115,133,1,77,162,1,

115,132,1,76,161,1,

194,231,1,76,159,1,

192,227,1,76,159,1,

191,227,1,75,158,1,

190,224,1,76,157,0,

188,224,1,75,157,0,

188,222,0,75,156,1,

186,221,1,75,155,1,

185,220,1,74,155,1,

184,218,1,73,153,1,

184,217,1,73,153,1,

183,216,0,73,152,1,

181,215,1,73,152,1,

181,214,1,71,152,1,

179,212,1,71,150,1,

179,211,1,71,150,1,

177,211,0,71,150,1,

176,209,1,71,149,1,

204,207,1,70,148,1,

202,207,1,70,147,1,

201,206,1,70,147,1,

199,204,1,70,146,1,

198,204,1,69,145,1,

198,203,1,69,145,1,

196,201,1,69,143,1,

196,199,1,68,143,1,

195,199,0,68,142,1,

193,199,1,67,143,1,

192,198,0,67,141,1,

192,197,1,67,141,0,

191,195,1,66,140,1,

245,195,1,66,140,1,

242,194,1,66,139,1,

240,193,1,66,139,1,

239,192,1,65,137,1,

238,191,1,65,137,1,

236,190,1,65,137,1,

236,189,1,65,135,1,

234,188,1,64,135,1,

231,188,0,64,135,1,

231,187,1,63,134,1,

230,185,1,63,134,1,

229,184,1,63,133,1,

227,184,1,63,132,1,

227,183,1,63,131,1,

225,182,1,62,131,1,

224,181,1,62,131,1,

224,179,1,62,130,1,

222,179,1,62,129,1,

221,179,1,61,129,1,

220,177,1,62,129,1,

219,199,1,61,127,1,

217,286,1,61,127,1,

217,282,1,61,126,1,

216,281,1,60,126,1,

215,279,1,60,125,1,

213,278,0,60,125,1,

230,275,1,59,124,1,

228,274,1,60,123,1,

227,273,1,59,124,0,

226,271,1,59,123,0,

224,270,1,59,122,0,

223,268,1,58,121,1,

222,267,1,58,121,1,

221,265,1,58,120,0,

220,263,1,57,120,1,

219,263,1,57,120,1,

217,260,1,57,119,1,

216,259,1,56,119,1,

216,258,1,56,118,1,

214,257,1,56,117,1,

213,255,1,56,117,1,

211,254,1,56,116,1,

211,253,1,56,116,1,

209,251,1,56,115,0,

208,249,1,56,115,1,

207,248,1,56,114,0,

206,247,1,55,114,1,

205,246,1,55,113,1,

205,245,1,55,113,1,

204,243,1,54,112,1,

203,242,1,87,112,1,

201,241,1,118,147,1,

199,240,1,117,146,1,

199,239,0,116,145,1,

198,237,1,115,145,1,

197,236,1,115,143,1,

196,235,1,114,142,1,

195,233,1,113,142,1,

195,231,1,113,141,1,

193,231,1,112,140,1,

192,229,1,112,140,1,

192,229,1,111,139,1,

190,227,1,110,138,1,

190,226,1,110,137,1,

188,225,1,109,137,1,

188,224,0,108,135,1,

187,223,1,108,135,1,

185,222,1,108,134,1,

185,220,1,106,133,1,

184,219,1,106,133,1,

183,218,1,105,132,1,

182,217,1,105,131,1,

181,216,1,105,131,1,

179,216,1,103,130,1,

179,214,1,103,129,1,

178,213,1,103,128,1,

177,211,0,102,128,1,

176,211,1,102,127,1,

176,209,1,102,127,1,

174,208,1,100,126,1,

174,207,0,100,125,1,

173,207,1,100,124,1,

172,205,1,99,124,1,

171,204,1,99,124,1,

170,203,1,98,123,1,

169,203,1,98,123,1,

169,201,1,97,121,2,

167,199,1,97,121,0,

167,199,1,96,120,1,

167,199,1,96,120,1,

166,198,1,96,120,1,

165,197,1,95,118,1,

165,195,1,95,119,1,

163,195,1,112,117,1,

163,194,0,146,117,1,

162,193,0,144,116,1,

161,192,0,143,115,1,

160,191,1,142,115,1,

159,191,1,142,114,1,

159,190,1,141,114,1,

158,188,1,140,114,1,

157,188,1,140,113,1,

156,187,1,139,112,1,

156,185,1,138,112,1,

155,185,1,137,112,1,

154,184,1,135,110,1,

153,184,1,135,110,1,

153,182,1,135,110,1,

152,181,1,134,109,1,

152,180,1,134,109,1,

151,179,1,133,109,1,

150,179,1,132,108,1,

149,178,0,131,107,1,

148,177,1,131,107,1,

147,176,1,130,106,1,

147,175,0,129,106,0,

146,174,1,128,105,1,

146,173,1,127,105,1,

145,172,1,127,103,1,

144,172,1,127,103,1,

143,173,1,126,103,1,

143,172,1,125,103,1,

143,171,1,125,103,1,

142,171,1,124,102,1,

141,169,1,123,101,1,

140,167,1,123,101,1,

140,167,1,122,100,1,

139,167,1,121,100,1,

138,166,1,121,99,1,

137,166,1,120,99,1,

154,165,1,120,98,0,

153,164,1,119,98,1,

152,163,1,119,97,1,

152,162,1,118,98,1,

151,161,1,117,97,1,

150,161,1,117,97,0,

149,160,0,116,96,1,

148,159,0,115,96,1,

147,159,1,115,96,1,

147,158,0,115,95,1,

147,157,1,114,94,1,

145,157,0,113,94,1,

144,156,1,113,93,1,

143,155,1,112,93,1,

143,155,1,112,93,1,

142,154,1,111,92,1,

142,153,1,111,92,1,

141,152,1,110,91,0,

140,152,1,110,92,1,

140,151,1,109,91,1,

139,154,1,109,91,1,

138,153,0,108,90,1,

137,152,0,108,90,1,

137,152,1,107,89,1,

135,150,0,107,89,1,

135,150,1,106,88,1,

135,149,1,106,88,0,

134,149,1,105,88,0,

134,147,1,105,88,1,

133,147,1,103,87,1,

132,147,0,103,87,1,

132,146,1,103,86,1,

131,145,1,103,86,1,

131,144,0,102,86,1,

130,144,1,102,85,0,

130,143,1,101,85,1,

129,143,1,101,84,1,

128,143,1,100,83,1,

127,141,1,99,84,1,

127,141,1,99,83,1,

127,140,1,99,83,0,

126,140,1,99,83,0,

126,139,1,98,82,1,

125,139,1,98,82,1,

124,137,1,97,82,1,

124,137,1,97,81,1,

124,137,1,97,81,1,

123,135,0,96,81,1,

122,135,1,96,80,1,

121,135,1,96,79,0,

121,135,1,94,79,0,

121,134,1,94,79,1,

121,133,1,94,79,1,

120,133,1,93,79,1,

120,132,0,93,78,1,

119,131,1,93,78,1,

118,131,0,92,78,1,

118,131,0,92,77,1,

117,130,1,91,77,0,

117,129,1,91,77,1,

116,129,1,91,76,1,

116,128,1,90,76,1,

115,127,1,90,94,1,

115,127,1,89,124,1,

114,127,0,89,122,0,

114,126,0,89,122,1,

113,126,0,88,121,1,

113,125,1,88,121,0,

112,125,1,88,120,0,

112,124,1,88,119,0,

111,124,1,87,118,1,

111,123,1,86,118,0,

110,123,1,86,117,1,

110,122,1,85,117,1,

109,121,1,85,116,1,

109,121,1,84,115,1,

110,121,1,84,115,1,

132,120,1,83,114,1,

131,120,0,83,114,1,

131,119,1,83,113,0,

130,118,1,83,113,1,

129,118,1,82,112,1,

129,118,1,82,112,1,

127,117,1,81,111,1,

127,117,1,81,110,1,

127,115,1,81,110,1,

126,115,1,81,109,0,

125,115,1,79,109,1,

124,115,1,79,108,1,

124,114,0,79,108,1,

124,114,0,79,107,1,

123,113,1,79,107,1,

122,112,1,78,106,1,

121,112,1,78,105,0,

121,111,0,77,105,0,

120,111,1,77,103,1,

120,110,1,76,103,1,

119,110,1,78,103,1,

119,110,1,121,103,0,

118,109,1,120,102,0,

117,109,0,120,102,1,

117,108,0,118,101,1,

116,108,1,118,101,0,

115,108,1,117,100,1,

115,107,1,116,99,1,

114,107,0,115,99,1,

113,106,1,115,99,1,

113,105,1,114,98,1,

113,105,1,114,98,0,

112,103,0,113,98,1,

112,103,0,114,97,1,

111,103,0,114,96,1,

110,103,1,113,96,1,

110,103,1,112,95,0,

109,102,1,112,95,1,

108,102,0,111,94,1,

108,102,0,110,94,0,

108,100,0,110,94,1,

107,100,0,109,93,1,

106,100,1,109,93,0,

106,99,0,109,92,1,

106,99,1,108,92,1,

105,99,1,107,92,0,

105,98,1,107,91,1,

105,98,1,106,91,0,

103,97,0,105,89,1,

103,97,0,105,89,1,

103,97,0,105,89,1,

166,98,1,105,89,1,

165,198,1,103,88,1,

164,224,1,103,88,1,

162,221,1,103,88,0,

162,220,1,103,87,0,

161,219,0,102,87,1,

159,217,1,101,86,1,

159,216,0,101,86,0,

159,215,1,100,85,1,

157,214,1,99,85,1,

157,212,0,99,84,0,

156,211,1,98,83,1,

155,211,1,98,83,1,

154,209,1,98,83,1,

154,207,0,97,83,1,

153,207,0,97,82,0,

153,206,0,97,82,1,

152,205,0,96,82,1,

151,204,0,96,81,1,

150,203,0,95,81,1,

149,202,1,94,80,1,

148,201,1,94,80,1,

147,199,1,94,79,1,

147,199,1,93,79,1,

146,198,1,93,79,0,

145,197,0,93,79,1,

145,196,0,92,78,1,

144,195,1,92,78,0,

143,195,0,92,78,1,

143,193,0,91,77,1,

142,192,1,90,76,0,

142,192,1,90,76,1,

141,191,1,90,76,0,

140,190,1,89,76,1,

140,189,1,89,76,1,

139,188,1,88,76,1,

138,187,1,88,75,0,

137,186,1,88,75,1,

137,185,0,87,74,1,

137,184,1,87,74,0,

135,184,0,87,74,1,

135,183,1,86,74,1,

135,182,1,85,73,0,

134,181,0,85,73,1,

133,179,0,85,73,1,

132,179,1,85,71,1,

132,178,0,84,71,1,

131,177,1,83,71,1,

130,177,0,83,71,1,

130,176,1,83,71,0,

130,175,0,82,71,1,

129,174,1,83,70,1,

128,195,1,82,71,1,

127,217,0,81,70,1,

127,216,0,81,70,1,

127,215,0,81,69,1,

126,214,1,81,69,1,

126,213,1,80,69,1,

125,211,1,79,68,1,

124,210,1,79,68,1,

123,210,1,79,68,1,

123,208,1,79,67,1,

122,207,0,78,67,0,

122,206,1,78,67,1,

121,205,1,78,67,1,

121,204,1,77,66,1,

121,203,1,77,66,1,

120,202,0,77,66,1,

119,201,1,76,66,1,

119,199,1,76,66,1,

118,199,1,76,65,0,

118,198,1,75,65,1,

117,197,1,75,65,1,

117,195,0,75,64,1,

116,195,1,74,63,1,

115,194,1,73,63,1,

115,193,1,90,110,1,

114,192,1,89,127,1,

120,192,1,88,126,1,

128,190,1,88,126,0,

127,189,1,88,125,1,

127,188,1,87,124,1,

126,187,1,87,123,1,

125,187,1,86,122,0,

125,185,1,85,121,1,

124,184,1,85,121,1,

124,184,0,84,120,1,

123,183,1,85,120,1,

122,182,0,84,120,1,

122,181,1,83,118,1,

162,180,0,83,118,1,

181,179,0,82,117,0,

179,178,1,82,117,1,

179,177,1,81,116,0,

178,176,0,82,115,1,

177,176,1,80,115,1,

175,175,1,81,114,1,

174,174,1,79,114,1,

174,173,1,79,113,1,

173,193,1,79,112,1,

172,233,1,79,112,0,

171,231,1,78,112,1,

170,230,1,78,111,1,

169,229,1,78,110,1,

167,227,1,77,110,1,

167,226,1,77,109,1,

167,225,1,76,108,1,

166,224,1,76,108,0,

165,222,1,76,108,1,

163,221,1,75,107,1,

163,221,1,75,106,0,

162,219,1,75,105,1,

162,217,1,74,105,1,

161,217,1,74,105,1,

159,216,1,73,104,1,

159,215,1,73,103,0,

159,213,1,73,103,1,

158,212,1,73,103,1,

157,211,1,71,102,1,

156,210,1,71,102,0,

155,209,1,71,101,1,

154,207,0,71,101,1,

154,207,1,71,100,1,

153,205,1,70,99,1,

152,205,1,71,99,1,

152,204,1,70,99,1,

151,203,1,69,98,1,

151,201,1,69,98,1,

149,201,1,69,98,1,

149,199,0,69,97,1,

147,199,0,69,96,0,

147,198,0,68,96,1,

146,197,1,67,96,1,

146,195,1,67,95,1,

145,195,1,67,95,0,

144,194,0,67,94,1,

143,193,1,67,94,1,

143,192,0,66,94,1,

142,192,1,66,93,1,

142,190,1,65,92,1,

141,190,1,65,93,1,

141,189,0,66,92,1,

140,188,1,65,91,1,

139,187,1,65,91,1,

139,185,1,65,91,1,

138,185,1,64,89,1,

137,205,1,65,90,0,

137,203,0,63,89,1,

135,203,1,63,89,1,

135,201,1,63,89,1,

135,199,1,62,88,0,

135,199,1,62,87,1,

134,198,1,63,87,0,

133,197,1,62,87,1,

133,195,1,63,86,1,

132,195,1,63,86,0,

131,193,1,62,86,1,

131,193,0,62,85,1,

130,192,1,62,85,1,

129,191,1,61,85,1,

129,190,1,61,83,0,

128,189,1,61,83,1,

127,188,1,60,83,1,

127,188,1,60,83,1,

126,187,1,60,82,1,

126,185,1,60,82,1,

126,185,1,60,82,1,

125,184,0,60,81,1,

124,183,0,59,81,1,

124,182,1,59,80,0,

123,182,1,59,106,1,

123,180,1,59,116,1,

122,179,1,58,115,1,

121,178,1,57,115,1,

121,177,0,58,114,1,

120,177,1,57,113,1,

120,176,1,57,113,1,

120,175,1,57,112,1,

119,174,1,57,111,1,

118,173,1,57,111,1,

117,173,1,56,110,1,

117,172,1,56,110,0,

117,171,1,56,109,0,

123,170,1,56,109,1,

123,169,1,56,107,1,

122,169,1,56,107,1,

121,167,1,55,107,1,

121,167,1,55,106,1,

121,166,0,54,105,0,

120,165,1,54,105,1,

119,164,0,54,105,1,

119,163,1,54,103,1,

118,163,0,53,103,1,

117,162,1,53,103,1,

116,162,1,53,103,1,

117,161,1,52,102,1,

115,159,1,52,101,1,

115,159,1,52,101,0,

114,158,1,52,99,1,

114,158,1,51,99,1,

113,157,1,51,99,1,

113,156,1,54,99,1,

113,156,1,54,98,0,

112,155,1,53,98,1,

111,154,0,53,98,1,

111,153,1,53,97,1,

110,153,1,52,96,0,

110,152,1,52,96,1,

110,152,1,51,96,1,

109,151,1,52,96,0,

108,150,1,51,95,1,

108,150,1,51,94,1,

108,149,1,51,94,1,

107,149,1,51,93,1,

107,147,0,51,92,1,

105,147,1,50,92,1,

105,147,1,51,92,1,

105,145,1,50,91,1,

105,145,1,50,91,1,

103,144,1,50,91,1,

103,143,1,50,91,1,

103,143,1,49,89,1,

103,143,1,48,89,0,

103,142,0,48,89,1,

102,141,1,49,88,1,

101,141,1,48,88,0,

101,140,1,48,88,0,

100,140,1,48,88,1,

100,139,1,48,87,1,

100,138,1,47,86,1,

99,137,1,47,86,0,

99,137,0,47,85,1,

99,137,1,47,86,0,

98,135,1,46,85,0,

97,135,1,46,84,1,

97,135,1,46,84,1,

97,134,1,46,83,1,

97,134,1,46,83,0,

96,133,1,45,83,0,

97,133,1,46,83,1,

96,132,1,45,82,0,

96,131,1,45,82,1,

96,131,0,45,82,1,

95,131,1,45,81,1,

96,130,1,44,80,1,

95,129,0,44,80,1,

94,129,1,44,79,1,

94,128,1,44,79,1,

94,127,1,44,79,0,

93,127,0,44,79,1,

93,126,0,43,79,1,

92,127,1,43,78,1,

92,126,1,43,78,1,

92,125,0,43,77,0,

91,125,1,43,77,1,

91,124,1,42,76,1,

91,124,0,42,76,1,

91,123,1,42,76,1,

90,123,1,42,76,1,

89,122,0,41,76,1,

89,121,1,41,76,1,

89,121,1,41,75,0,

90,163,1,41,75,1,

90,192,1,41,74,1,

89,190,0,41,74,1,

89,189,1,39,74,1,

88,188,0,39,73,1,

88,187,1,39,72,1,

88,187,1,40,73,0,

87,185,0,39,71,1,

87,184,0,39,71,1,

86,184,1,39,71,1,

86,183,1,39,71,1,

86,182,1,39,71,0,

86,180,1,39,71,1,

85,179,1,39,71,1,

85,179,1,39,70,1,

85,178,1,38,70,0,

84,177,1,38,70,1,

83,177,1,38,69,0,

83,176,1,38,69,0,

83,175,1,38,69,0,

83,174,0,38,69,1,

83,173,1,38,68,1,

82,173,1,103,97,1,

82,172,0,127,106,1,

82,171,1,126,105,0,

81,170,1,126,104,0,

81,169,1,124,103,1,

79,167,1,124,103,1,

79,167,1,124,103,0,

79,167,1,123,102,0,

79,166,1,122,102,1,

79,165,1,121,101,1,

79,163,1,120,100,0,

78,163,1,120,99,1,

78,162,1,120,99,1,

78,162,1,119,99,1,

78,161,1,118,99,1,

77,159,0,117,98,1,

77,159,1,117,97,1,

77,158,1,116,97,0,

76,158,1,115,96,1,

76,157,1,115,96,0,

76,156,1,115,96,1,

75,156,1,115,95,0,

75,155,1,114,95,0,

75,154,1,113,94,1,

75,153,1,113,94,0,

74,152,1,112,93,1,

78,152,1,112,92,1,

78,152,1,111,92,1,

77,151,1,111,92,0,

77,150,0,110,91,0,

77,150,1,109,91,1,

76,148,1,109,90,1,

76,147,1,108,90,1,

76,147,1,108,89,1,

75,146,1,108,89,1,

75,146,1,107,89,0,

75,145,0,106,88,1,

74,144,0,106,88,1,

73,143,1,105,88,1,

74,143,1,105,87,1,

73,142,1,105,86,1,

73,142,0,103,86,1,

73,141,1,103,86,0,

71,141,1,103,85,1,

71,140,1,102,85,1,

71,139,0,102,84,1,

71,139,0,102,84,1,

71,138,0,101,84,1,

70,137,1,100,83,1,

70,137,0,100,83,1,

70,135,1,100,82,1,

70,135,1,99,82,1,

70,135,1,99,82,0,

76,175,1,99,81,1,

159,174,1,98,81,0,

192,173,1,97,81,0,

190,172,1,97,79,1,

188,171,0,97,79,1,

187,170,1,97,79,0,

186,169,1,96,79,1,

185,167,1,95,79,1,

184,167,1,95,78,0,

183,166,1,95,78,1,

182,166,0,94,77,1,

181,165,1,93,77,0,

179,163,0,93,77,1,

179,163,1,92,77,1,

178,162,1,92,76,0,

177,162,1,92,75,1,

177,161,1,92,75,0,

176,159,1,91,75,0,

175,159,0,91,75,1,

174,158,1,91,74,0,

173,157,0,90,73,1,

172,156,0,90,74,1,

171,156,0,89,73,1,

170,156,1,89,73,1,

169,155,1,88,73,0,

192,154,0,88,71,0,

192,153,1,88,71,1,

190,152,1,88,71,1,

189,152,0,87,71,0,

188,151,0,86,71,1,

187,150,1,86,71,0,

186,149,1,85,70,1,

185,149,1,85,70,1,

184,147,1,85,70,1,

183,147,0,84,69,1,

182,147,1,84,69,0,

181,146,1,84,69,1,

180,145,1,83,68,1,

179,144,1,83,67,0,

178,143,1,83,67,1,

177,143,0,82,67,1,

177,143,1,82,66,0,

176,142,1,81,67,1,

175,141,1,81,66,1,

174,140,1,81,66,1,

173,140,1,80,66,1,

173,140,0,79,65,0,

171,139,1,79,65,1,

171,138,1,79,65,1,

170,137,1,79,64,1,

169,135,1,79,63,1,

169,135,0,78,63,1,

167,135,1,78,64,1,

167,135,1,78,63,1,

166,134,1,93,63,1,

165,133,1,92,63,1,

164,133,0,91,63,1,

163,132,1,91,63,0,

163,132,1,90,62,1,

162,131,1,90,62,1,

161,130,1,89,62,1,

160,130,1,89,61,1,

159,129,1,89,61,1,

159,129,1,88,61,1,

158,128,1,87,61,1,

158,127,1,88,61,0,

157,127,1,87,60,1,

156,126,1,86,60,1,

156,126,1,86,59,1,

154,125,1,85,60,1,

154,158,1,85,59,1,

153,167,1,85,59,1,

153,166,0,84,59,1,

152,166,1,83,58,1,

152,164,1,83,58,1,

151,163,0,83,58,1,

150,163,1,83,57,1,

149,162,1,82,57,0,

148,161,1,82,57,1,

147,198,1,82,57,1,

147,263,1,81,57,0,

146,260,0,81,57,0,

145,259,0,80,56,1,

145,257,1,79,56,1,

145,255,0,79,56,1,

143,255,0,79,55,1,

143,253,0,79,55,1,

143,252,1,78,55,1,

142,251,1,78,55,1,

141,249,1,78,55,0,

140,248,1,77,54,1,

140,246,0,77,54,1,

139,245,1,77,54,1,

139,243,1,76,53,1,

138,242,0,76,53,1,

137,241,0,75,53,0,

135,240,0,76,52,1,

135,239,1,75,52,1,

135,237,1,75,52,1,

135,236,0,74,52,1,

135,235,1,73,52,1,

134,234,0,74,51,1,

133,233,1,73,59,1,

132,231,1,73,58,1,

132,231,1,73,58,0,

131,229,0,71,57,1,

131,228,1,71,57,1,

130,227,1,71,57,1,

129,226,0,71,56,1,

129,225,1,71,57,1,

128,224,1,71,56,1,

127,223,1,71,56,0,

127,222,1,70,56,1,

127,220,1,69,56,1,

126,219,1,69,55,0,

126,219,1,69,54,1,

125,217,0,69,54,1,

124,217,1,69,54,1,

124,216,1,68,53,1,

124,215,1,67,53,1,

123,213,1,67,53,0,

122,212,1,67,53,1,

121,211,1,67,53,1,

121,210,1,67,53,1,

121,209,1,66,52,1,

120,207,0,66,51,0,

120,235,1,66,51,1,

119,233,1,66,51,1,

119,231,1,65,51,1,

118,231,1,65,51,1,

118,230,0,64,50,1,

117,229,1,64,51,1,

116,227,1,64,50,1,

116,226,1,63,50,1,

115,225,1,63,50,0,

115,224,1,63,49,1,

115,223,0,71,49,1,

114,221,1,71,49,1,

114,220,1,70,49,0,

113,219,0,70,48,1,

113,218,1,70,48,1,

112,217,1,69,48,1,

112,216,1,69,48,1,

111,216,1,68,48,1,

110,214,0,68,48,1,

110,213,1,67,47,1,

110,211,1,67,47,0,

109,211,1,67,47,1,

109,210,1,67,47,1,

108,208,1,66,46,1,

108,207,1,66,47,1,

107,206,1,66,46,1,

107,206,1,65,46,1,

106,204,1,65,46,1,

106,204,1,64,45,1,

105,203,1,64,45,0,

105,202,0,64,46,1,

103,201,1,63,45,1,

103,199,1,63,45,0,

103,199,1,63,45,1,

103,199,1,63,44,1,

103,197,1,63,44,1,

102,196,1,63,44,1,

102,195,1,62,44,1,

101,195,1,62,44,0,

101,194,1,61,44,1,

101,193,1,61,43,1,

100,192,1,61,43,1,

99,191,1,61,43,1,

99,190,1,60,42,1,

99,190,0,60,43,1,

98,189,1,60,43,1,

98,188,1,60,42,0,

97,187,1,59,42,0,

97,186,1,59,42,1,

97,185,1,59,42,1,

97,185,1,59,41,1,

96,184,1,58,41,1,

96,184,1,58,41,1,

96,183,0,58,41,1,

95,181,1,57,41,0,

94,181,1,57,41,1,

94,179,1,57,40,1,

94,179,0,57,39,1,

93,178,0,57,40,1,

93,177,1,57,39,1,

93,177,1,56,39,1,

92,176,1,56,39,1,

92,176,1,56,39,1,

91,174,1,56,39,1,

91,174,1,55,39,1,

91,173,1,55,39,1,

90,172,1,54,39,1,

89,172,1,55,38,1,

89,171,1,55,39,1,

89,171,1,54,38,1,

88,169,1,54,38,0,

89,169,1,54,38,1,

88,167,1,53,38,1,

88,167,1,53,38,1,

88,167,1,53,37,1,

87,166,0,52,38,1,

86,165,1,52,37,1,

86,165,1,52,37,1,

86,163,0,51,36,1,

86,163,1,52,36,0,

85,163,1,51,36,1,

84,162,1,51,36,1,

84,161,1,51,36,0,

84,160,1,51,36,1,

83,159,1,50,36,1,

83,159,1,50,35,2,

83,159,1,50,35,0,

83,158,1,50,35,1,

82,158,1,50,35,1,

82,157,1,49,35,1,

81,156,1,50,35,1,

81,155,1,49,35,1,

81,155,1,49,34,0,

80,154,1,48,34,1,

79,153,1,48,34,1,

79,153,1,48,34,0,

79,152,1,48,34,1,

79,152,0,48,33,1,

79,151,0,47,34,1,

79,150,1,47,34,1,

78,150,1,47,34,1,

78,149,1,47,33,1,

78,148,0,47,33,0,

77,147,1,46,33,1,

77,147,1,46,33,0,

77,146,0,46,32,0,

77,146,1,46,32,0,

76,145,1,46,32,1,

76,145,1,45,33,1,

76,144,1,45,31,1,

76,143,1,45,32,1,

75,143,1,45,31,1,

75,143,1,44,31,1,

74,142,1,45,31,1,

73,141,1,45,31,1,

74,141,1,44,31,1,

73,140,1,44,31,0,

73,139,0,44,31,0,

73,139,0,43,31,1,

72,139,1,43,30,1,

71,137,1,44,30,1,

71,137,1,43,31,0,

71,137,0,43,30,1,

71,135,1,43,31,1,

71,135,0,42,30,1,

71,135,0,42,29,1,

70,135,1,42,30,1,

70,134,1,42,30,1,

70,133,1,41,29,1,

70,133,1,41,30,1,

69,132,1,41,29,1,

69,131,1,41,29,1,

69,131,1,41,28,0,

68,131,1,41,29,1,

68,130,1,39,29,1,

68,130,1,39,28,0,

67,129,1,39,28,1,

67,128,1,39,28,1,

67,127,1,39,28,0,

67,127,1,39,28,1,

66,127,0,39,28,1,

66,126,1,39,28,0,

66,126,1,39,28,1,

66,125,0,39,27,1,

65,125,0,39,28,0,

65,124,1,39,27,0,

65,124,1,38,27,1,

65,123,1,38,39,0,

64,123,1,38,39,1,

64,122,1,38,39,1,

63,122,1,38,39,1,

63,122,1,37,38,0,

63,121,1,38,38,1,

63,121,1,37,38,1,

63,120,1,37,38,0,

63,119,1,37,38,0,

63,119,0,37,38,1,

62,119,1,37,37,1,

62,118,1,36,38,1,

61,118,1,36,37,1,

62,117,1,36,36,1,

61,116,1,36,37,1,

61,116,1,35,37,1,

60,116,1,35,37,1,

60,115,1,35,37,1,

60,115,1,35,35,0,

