
28,17,1,36,15,1,

28,17,1,36,16,0,

28,18,0,35,15,1,

28,17,1,35,15,1,

28,18,0,35,15,1,

27,18,1,35,15,0,

27,17,1,35,15,0,

27,17,1,35,15,1,

27,17,0,35,14,1,

26,17,1,34,14,1,

27,17,1,35,14,1,

26,17,1,34,15,1,

27,17,1,34,14,1,

27,16,1,34,14,1,

26,17,1,34,14,1,

26,17,1,33,14,0,

26,16,1,34,14,1,

25,16,1,34,14,1,

25,16,0,33,39,0,

25,16,1,33,61,0,

25,16,1,33,61,1,

25,15,1,33,61,1,

25,15,0,32,60,1,

25,15,1,32,60,1,

24,15,0,32,59,0,

27,15,1,54,59,0,

31,15,1,56,59,1,

31,15,1,56,58,1,

31,15,1,56,58,1,

31,15,0,55,57,1,

31,15,1,55,57,0,

30,15,1,55,57,0,

31,15,1,54,57,1,

30,15,0,54,57,1,

30,15,1,53,56,1,

30,14,1,53,56,1,

29,15,0,53,56,1,

29,14,0,52,56,1,

34,14,1,75,55,1,

41,14,0,76,55,1,

39,14,1,76,55,1,

39,14,1,76,54,0,

39,14,1,75,55,0,

39,14,0,74,54,1,

39,14,1,74,53,1,

39,14,1,74,54,1,

39,13,1,74,53,1,

38,13,1,73,53,1,

39,13,1,73,53,1,

38,13,1,71,52,1,

38,13,1,71,52,0,

38,13,1,71,51,1,

38,13,1,71,51,1,

38,13,1,71,51,1,

38,14,1,71,51,1,

37,14,1,71,51,1,

37,14,1,70,51,1,

36,14,1,70,50,1,

37,14,1,69,50,1,

36,14,1,69,49,0,

36,14,1,69,49,0,

35,13,1,69,49,1,

36,14,0,68,49,1,

35,14,1,68,49,1,

35,13,1,67,49,0,

35,13,1,67,48,0,

35,14,0,67,48,0,

35,13,1,66,48,1,

35,13,1,66,48,1,

35,13,0,66,47,1,

34,13,0,66,47,0,

34,13,0,65,47,1,

34,13,0,65,47,1,

33,13,1,65,47,0,

33,13,1,64,46,1,

33,13,1,65,46,1,

33,13,1,64,46,1,

33,12,1,63,46,0,

33,12,0,63,46,1,

33,13,1,63,45,1,

33,12,0,63,45,1,

32,12,1,62,45,1,

31,12,1,62,44,0,

32,12,1,62,44,1,

31,12,0,62,44,1,

31,12,1,61,44,1,

31,12,0,61,44,1,

31,12,1,61,44,1,

31,11,1,60,44,1,

31,12,1,60,44,1,

34,11,1,67,43,1,

33,11,1,68,43,1,

33,11,1,68,43,0,

33,11,0,67,42,1,

33,12,0,67,42,1,

33,11,1,67,43,1,

32,11,0,67,41,1,

32,11,1,67,42,1,

32,11,1,66,41,1,

31,11,1,66,41,1,

31,11,0,66,41,1,

31,11,1,65,41,1,

31,10,1,65,41,1,

31,10,1,65,40,1,

39,10,0,64,39,1,

38,11,1,64,39,1,

38,10,1,63,39,1,

38,10,1,63,39,1,

38,10,1,63,39,1,

38,10,1,63,39,1,

37,10,1,62,39,1,

37,10,0,63,39,1,

37,10,0,62,39,1,

37,10,1,62,39,1,

36,10,1,61,38,0,

37,9,1,62,38,1,

36,9,1,61,38,1,

35,10,1,62,38,1,

35,9,1,63,38,1,

35,9,0,63,38,0,

35,9,0,63,37,0,

35,9,1,63,37,1,

35,9,1,62,37,1,

35,9,0,62,37,1,

35,9,0,62,37,1,

34,9,1,62,36,0,

35,9,0,61,36,1,

35,9,0,61,36,1,

34,9,1,61,35,1,

34,9,1,60,36,1,

34,9,1,60,35,1,

34,9,1,60,35,1,

34,9,1,60,35,0,

33,10,1,59,35,0,

33,11,1,60,35,1,

33,10,1,59,34,1,

32,10,0,58,35,1,

32,10,1,59,34,0,

32,9,1,58,34,0,

32,10,1,58,34,1,

32,10,1,57,34,1,

31,10,1,57,34,0,

31,9,1,57,34,0,

31,9,0,57,33,1,

31,10,1,57,33,0,

31,10,1,56,33,1,

31,13,1,56,33,1,

31,13,1,56,33,1,

31,13,1,56,33,1,

31,13,1,55,33,1,

30,13,1,55,32,1,

30,13,0,55,32,0,

31,13,1,55,32,0,

30,12,1,54,31,1,

30,12,0,54,31,1,

30,12,1,54,31,0,

30,12,1,54,31,1,

31,12,1,54,31,0,

31,12,1,53,31,1,

31,12,1,53,31,1,

31,22,1,52,30,1,

30,29,1,52,31,1,

30,29,1,52,30,1,

30,29,1,51,30,0,

30,28,1,51,31,1,

30,28,0,51,30,1,

29,28,1,51,30,0,

29,27,1,51,30,0,

29,27,1,51,29,1,

29,27,1,51,30,1,

29,27,1,50,29,1,

29,27,1,50,29,1,

28,27,1,50,29,1,

28,27,0,49,29,1,

28,27,0,49,29,1,

28,27,1,49,29,1,

28,26,1,49,28,0,

28,26,0,48,28,1,

28,26,1,49,28,1,

27,26,0,48,28,1,

27,25,0,48,28,1,

27,25,1,48,28,0,

27,25,0,48,27,1,

27,25,1,48,28,1,

28,25,1,47,28,1,

28,25,1,47,27,1,

28,25,1,47,27,0,

28,25,1,47,27,1,

28,25,0,47,27,1,

28,24,1,46,27,1,

28,24,0,46,26,1,

28,24,1,46,26,1,

27,24,1,46,27,1,

27,24,1,46,26,0,

27,24,1,45,26,1,

27,24,1,45,26,1,

27,24,0,45,26,1,

28,24,1,44,25,0,

27,24,1,44,25,0,

27,23,1,44,25,1,

27,24,0,44,25,1,

27,23,1,44,25,1,

27,23,0,43,25,0,

26,22,1,44,25,1,

26,22,1,44,25,1,

26,22,0,43,25,1,

26,22,1,43,24,1,

25,22,1,43,24,0,

26,22,1,43,24,0,

25,21,0,42,24,1,

35,22,1,42,24,1,

39,21,0,43,24,1,

39,22,1,41,24,0,

39,21,1,41,24,1,

39,21,1,41,24,1,

39,21,0,41,24,1,

39,21,1,41,23,0,

38,21,1,41,24,0,

38,21,0,41,23,1,

38,20,0,41,23,0,

38,20,1,41,23,1,

38,20,0,39,23,1,

38,20,0,39,22,1,

39,20,1,39,23,1,

39,22,1,39,23,1,

38,22,1,39,22,0,

38,22,0,39,22,1,

38,22,1,39,22,1,

37,22,1,39,22,0,

37,21,1,39,22,1,

37,21,0,38,21,1,

37,21,1,38,21,1,

37,21,1,38,21,1,

36,21,1,38,22,1,

37,21,1,38,22,1,

37,21,0,38,21,1,

39,21,0,38,21,1,

39,20,1,38,20,1,

39,20,1,37,21,0,

39,20,1,37,20,1,

39,20,1,37,21,1,

39,19,0,37,20,1,

38,20,1,36,20,0,

38,19,1,36,20,0,

38,19,1,36,20,1,

38,20,1,36,21,1,

38,19,0,36,20,1,

37,19,0,35,19,1,

38,19,1,35,19,0,

38,19,0,35,19,1,

37,19,1,35,19,0,

37,19,1,35,19,0,

37,19,1,35,19,0,

37,19,1,35,19,1,

36,19,1,34,19,1,

36,19,1,34,19,0,

36,18,0,34,19,1,

36,18,0,34,19,1,

35,18,0,34,19,1,

35,18,1,34,18,0,

35,18,1,34,19,0,

35,17,1,33,18,1,

35,17,0,33,18,1,

35,17,1,33,18,1,

35,17,1,33,18,1,

35,17,1,33,18,0,

34,17,1,32,17,1,

34,18,0,32,18,1,

34,17,1,33,18,1,

34,17,0,31,17,1,

33,17,1,31,17,1,

33,16,0,31,18,1,

33,16,0,31,17,1,

34,17,1,31,18,1,

33,16,1,33,18,1,

33,16,1,35,18,1,

33,16,0,34,17,0,

33,16,1,34,17,1,

33,16,1,34,17,1,

32,16,1,33,17,1,

31,16,1,33,16,0,

31,15,1,33,17,1,

31,15,0,33,16,1,

31,16,0,33,16,1,

31,15,1,33,17,1,

31,15,1,33,17,1,

31,15,1,33,18,1,

30,15,1,32,17,1,

34,15,0,32,17,1,

34,15,0,32,18,1,

33,15,1,32,17,0,

33,15,1,31,16,1,

33,15,1,32,16,1,

33,14,1,31,17,0,

32,14,0,31,16,1,

33,14,1,31,17,1,

31,14,1,31,16,0,

32,14,0,31,16,1,

31,14,1,31,16,0,

31,14,0,31,15,1,

32,14,1,31,15,1,

45,16,1,30,15,1,

45,17,1,30,17,0,

45,17,1,30,19,0,

44,17,0,30,19,1,

44,17,1,30,19,1,

44,18,1,30,19,1,

44,17,1,29,19,0,

43,17,1,29,19,0,

43,17,1,30,19,1,

43,16,1,29,18,0,

43,16,1,29,18,1,

42,16,1,29,18,0,

42,16,1,29,18,1,

44,16,1,29,18,0,

43,16,1,28,18,0,

43,46,0,29,19,1,

43,51,1,28,19,1,

42,50,1,28,19,1,

43,49,1,28,19,1,

42,50,0,28,19,1,

41,49,1,28,19,0,

41,49,0,28,19,0,

41,49,0,28,19,1,

41,48,1,28,19,1,

41,48,1,33,19,1,

39,48,0,34,19,1,

64,48,1,33,18,1,

63,48,1,33,19,0,

63,47,1,33,18,1,

62,47,1,33,18,0,

62,47,0,32,18,1,

62,56,0,32,18,1,

62,56,1,32,18,1,

61,56,0,31,18,1,

61,56,0,31,17,1,

61,55,1,31,18,1,

61,55,1,31,17,1,

60,55,1,31,17,1,

60,54,1,31,17,1,

61,54,1,33,19,1,

60,84,1,33,20,1,

89,115,1,33,20,1,

89,115,1,33,19,0,

88,114,1,33,19,1,

88,113,1,32,19,0,

87,112,1,31,19,0,

87,112,1,32,30,1,

87,111,0,31,30,1,

86,110,1,31,30,0,

85,109,0,31,30,1,

85,110,1,31,30,1,

84,109,1,31,29,1,

84,108,1,31,29,0,

83,107,0,30,29,1,

83,107,1,31,29,1,

83,107,0,31,29,1,

82,106,1,30,29,1,

82,105,0,30,28,1,

81,105,1,30,28,0,

81,103,0,30,28,1,

81,103,1,29,27,0,

81,103,1,30,28,1,

79,103,1,29,28,1,

79,103,1,29,27,0,

79,102,1,30,27,0,

79,102,1,29,27,1,

79,101,1,29,27,1,

78,100,1,29,27,1,

78,99,0,28,27,1,

77,99,1,28,26,0,

77,99,1,28,26,1,

76,99,0,28,26,1,

76,98,0,28,26,1,

76,98,1,28,29,1,

76,97,1,28,30,1,

75,97,0,28,30,1,

75,96,1,28,30,0,

77,96,1,28,31,1,

78,96,1,27,75,1,

77,95,0,27,75,1,

77,95,0,27,75,1,

76,94,1,27,74,1,

76,94,1,27,74,1,

76,93,1,27,73,1,

76,93,1,27,73,1,

75,92,1,27,71,1,

75,93,1,27,71,1,

74,92,1,27,71,0,

74,91,0,26,71,1,

73,91,1,26,71,1,

73,90,0,27,71,0,

135,90,0,27,71,1,

135,90,1,27,71,0,

134,89,1,27,70,1,

133,89,1,27,70,1,

132,89,1,27,70,0,

131,88,1,26,70,1,

131,88,1,26,69,1,

130,88,1,27,69,1,

129,87,1,26,68,1,

129,87,1,26,68,1,

128,86,1,26,68,0,

127,86,0,26,68,1,

127,85,1,43,89,1,

126,85,1,42,88,1,

126,84,0,42,87,1,

125,84,1,42,86,0,

124,84,1,41,86,1,

124,83,1,41,85,1,

123,83,1,41,85,1,

123,83,1,41,84,1,

122,82,1,40,84,1,

121,82,0,39,83,1,

121,81,1,41,83,1,

123,81,1,40,83,1,

134,81,1,39,83,1,

133,81,1,39,82,1,

132,80,1,39,82,1,

131,80,1,39,81,1,

131,79,1,39,80,1,

130,79,1,39,80,0,

129,79,1,39,80,1,

129,79,0,38,79,1,

129,78,1,38,79,1,

127,78,0,38,79,1,

127,78,1,38,78,1,

127,78,1,37,78,0,

126,77,1,37,77,1,

125,77,0,37,77,1,

125,76,1,36,77,1,

124,76,1,37,77,1,

124,76,1,36,76,1,

123,75,0,36,76,0,

122,75,1,36,76,1,

121,75,1,36,75,1,

121,75,1,35,74,1,

121,74,1,35,75,1,

120,74,1,35,74,1,

120,73,1,35,73,1,

119,73,1,35,73,1,

119,71,1,35,73,1,

118,71,1,34,72,1,

117,71,1,34,71,1,

116,71,0,34,71,1,

116,71,1,34,71,1,

115,71,1,34,71,1,

115,70,0,33,71,1,

115,70,1,33,70,0,

115,70,0,33,71,1,

114,69,0,33,70,1,

113,70,1,33,69,0,

113,69,1,46,69,1,

113,69,0,102,121,1,

112,69,1,101,120,1,

111,67,1,100,119,1,

111,67,1,99,118,1,

110,67,1,99,118,1,

109,67,1,98,117,1,

109,67,1,98,115,1,

109,67,1,97,115,1,

108,66,0,97,115,1,

108,65,1,96,115,1,

107,66,1,96,114,1,

107,65,0,96,113,1,

106,65,1,95,112,0,

105,64,1,94,112,1,

105,63,1,94,111,1,

103,63,1,93,110,0,

103,63,1,93,110,1,

103,63,0,92,110,0,

103,63,0,92,109,1,

103,62,1,92,109,1,

102,62,1,91,108,1,

102,62,1,90,107,1,

101,62,1,90,107,1,

100,61,1,90,106,1,

101,90,1,89,105,1,

100,89,1,89,105,0,

100,88,1,88,105,0,

99,88,1,88,103,1,

99,88,1,88,103,1,

99,87,0,87,103,1,

98,86,1,87,103,1,

98,86,1,86,103,1,

97,86,1,86,102,1,

97,86,1,86,102,0,

96,85,1,85,101,1,

96,84,1,84,100,1,

95,84,1,85,100,1,

96,84,1,85,99,1,

95,83,1,84,99,1,

94,83,1,83,99,1,

94,83,1,83,98,1,

93,82,1,83,98,1,

93,81,0,83,98,1,

93,81,1,83,97,0,

92,81,0,83,96,1,

92,80,1,82,96,1,

92,81,1,81,96,1,

92,79,1,81,96,1,

91,79,1,81,95,1,

91,79,1,80,94,1,

90,79,1,80,94,0,

89,78,1,79,94,1,

89,78,1,79,94,1,

89,78,1,79,93,1,

88,77,1,79,93,1,

88,77,1,78,92,1,

88,77,1,78,92,1,

88,76,1,78,91,1,

87,76,1,77,91,1,

87,76,1,77,90,0,

86,76,1,77,90,1,

86,75,1,76,90,1,

86,75,1,76,89,1,

85,76,0,76,89,0,

85,76,0,76,89,1,

85,75,0,75,89,1,

84,75,1,75,88,1,

83,75,1,74,88,0,

83,74,1,74,88,0,

83,74,1,74,87,1,

83,73,1,74,87,1,

82,73,1,73,86,1,

82,71,1,73,86,1,

82,71,1,72,86,1,

83,78,1,71,85,1,

90,143,1,71,84,0,

92,142,1,71,84,1,

91,141,0,71,84,1,

91,140,1,71,84,1,

91,140,1,71,83,0,

89,139,0,70,83,1,

89,138,1,70,82,1,

89,137,0,70,82,1,

89,135,1,69,82,1,

88,135,1,69,81,1,

88,135,1,69,81,0,

88,135,1,69,80,1,

88,135,0,68,79,1,

87,133,1,68,79,1,

86,133,1,67,79,1,

86,132,0,67,79,1,

86,131,0,67,79,1,

85,131,1,67,79,1,

85,130,0,66,78,1,

84,129,1,66,78,1,

83,129,1,66,78,1,

83,128,1,66,77,1,

83,127,1,65,77,1,

83,127,0,73,77,1,

82,127,0,73,77,1,

82,126,1,73,81,1,

81,125,1,73,86,1,

81,125,1,73,85,0,

81,124,1,71,85,1,

80,123,1,71,85,1,

80,123,0,71,83,1,

79,122,1,71,83,1,

79,122,0,71,83,1,

79,121,1,71,82,1,

78,121,1,71,82,0,

78,120,1,70,82,1,

78,120,0,70,81,1,

99,120,1,70,81,1,

206,118,1,69,80,1,

207,118,0,68,80,1,

205,118,1,69,79,1,

204,117,0,67,79,1,

203,117,1,67,79,1,

201,116,1,67,80,0,

199,115,1,67,79,1,

199,115,1,67,79,1,

198,114,1,67,79,1,

197,113,1,66,88,1,

195,113,1,66,88,1,

195,112,1,66,88,1,

194,112,1,66,87,1,

193,112,1,65,86,1,

192,111,1,65,86,1,

191,110,1,65,86,1,

190,110,1,65,85,1,

189,109,1,65,85,1,

188,109,1,64,84,1,

187,109,1,63,83,1,

186,108,1,63,83,1,

185,107,0,63,83,1,

184,107,1,113,112,0,

184,106,1,112,112,1,

182,105,1,111,111,1,

181,105,1,110,110,1,

180,103,1,109,110,1,

226,103,0,108,109,1,

224,103,1,108,108,1,

222,103,1,108,108,0,

221,103,1,107,107,1,

220,102,1,107,106,1,

219,101,1,105,106,1,

217,101,1,105,105,1,

216,108,1,105,104,1,

215,110,1,103,103,0,

214,145,1,103,103,0,

212,143,1,103,103,1,

211,142,1,102,103,1,

210,142,1,102,102,1,

209,141,1,102,102,1,

207,140,1,101,101,0,

207,143,1,100,100,0,

205,142,1,99,99,1,

204,141,1,99,99,0,

204,140,1,99,99,1,

203,139,1,99,98,1,

201,139,1,98,98,1,

199,137,1,98,97,1,

199,137,0,97,97,1,

199,137,1,97,96,1,

197,135,1,96,96,0,

197,135,1,96,96,0,

195,135,1,96,95,1,

195,134,1,95,95,1,

194,133,1,94,94,1,

193,133,1,94,94,0,

192,131,1,94,93,1,

191,131,1,93,93,1,

190,131,1,92,92,1,

189,130,1,92,92,0,

188,130,1,92,118,1,

188,129,2,92,157,0,

186,127,1,91,156,2,

185,127,1,91,155,1,

185,127,1,90,154,1,

185,126,1,89,153,1,

184,125,1,116,153,1,

183,125,1,178,208,1,

182,124,2,176,206,1,

181,124,2,174,205,1,

180,123,1,174,204,1,

179,123,2,172,203,1,

179,121,2,171,201,1,

177,120,1,170,199,1,

176,120,1,169,199,1,

176,120,1,169,198,1,

175,120,2,167,197,2,

174,119,1,167,196,1,

225,183,1,166,222,1,

222,181,1,164,220,2,

221,179,1,163,218,1,

220,178,1,163,217,2,

218,177,1,162,216,1,

217,176,1,161,215,1,

216,175,1,160,214,1,

215,174,2,159,212,1,

213,173,1,159,211,1,

211,172,1,158,210,2,

211,171,2,157,208,2,

210,197,1,156,207,1,

208,194,1,156,206,1,

207,198,2,155,205,1,

206,197,1,154,204,1,

205,195,1,153,203,2,

204,194,2,152,202,1,

203,193,1,152,201,2,

202,192,2,151,199,2,

199,191,2,150,198,2,

199,190,2,149,197,1,

199,188,2,148,196,1,

197,187,1,147,195,2,

196,186,1,147,194,2,

195,185,1,146,193,2,

194,184,1,145,192,2,

193,184,1,145,192,1,

192,183,1,143,190,2,

192,182,1,143,189,2,

190,180,2,143,188,1,

189,179,1,142,187,2,

188,179,1,141,186,2,

187,178,2,141,185,1,

187,177,1,140,184,2,

185,176,1,139,183,1,

185,175,1,138,182,1,

184,174,1,138,181,1,

183,173,2,137,180,2,

182,172,1,137,179,1,

181,171,2,135,179,2,

179,171,2,135,178,2,

179,169,1,134,177,2,

177,169,1,134,176,1,

177,167,1,133,175,2,

176,167,1,132,174,1,

175,166,1,132,173,1,

174,166,1,131,172,2,

174,165,2,130,171,1,

172,164,2,130,171,2,

172,211,2,130,169,2,

171,215,1,129,167,1,

170,213,2,127,167,2,

169,211,2,127,167,2,

167,210,1,127,167,1,

167,209,2,126,166,2,

167,207,1,126,165,2,

166,207,1,125,163,2,

165,205,1,124,163,2,

164,205,2,124,162,1,

163,203,2,124,161,1,

163,202,2,123,161,2,

162,201,2,122,159,2,

197,199,2,122,159,2,

195,199,2,121,158,2,

194,198,2,120,158,2,

193,197,2,120,157,2,

192,196,2,120,156,2,

191,194,2,118,156,2,

190,194,2,118,154,2,

188,192,2,117,153,2,

187,191,2,117,153,2,

186,190,2,116,152,2,

185,189,3,116,152,3,

184,188,3,115,151,2,

183,187,3,115,150,2,

182,186,3,114,149,2,

181,185,2,114,149,3,

180,185,3,114,147,3,

179,184,3,112,147,3,

179,182,2,112,146,3,

177,181,3,111,145,2,

176,180,3,111,145,2,

176,179,3,111,143,2,

174,178,3,110,143,2,

174,243,3,147,143,3,

172,240,3,146,142,3,

171,239,3,145,141,3,

171,237,3,144,141,3,

171,236,3,143,140,3,

169,234,3,143,139,3,

167,233,2,142,139,2,

167,231,3,141,138,2,

167,230,3,141,137,3,

166,229,2,140,137,2,

165,227,2,139,135,2,

164,226,2,138,135,3,

163,225,3,137,135,3,

162,224,3,137,135,2,

161,287,3,135,133,2,

161,284,3,135,133,2,

159,281,3,135,132,2,

159,280,2,134,131,3,

158,278,2,133,131,2,

158,276,2,133,131,2,

157,275,2,131,130,2,

156,273,2,131,129,2,

155,271,2,131,128,2,

155,270,2,129,127,2,

154,268,2,129,127,2,

153,266,2,128,127,2,

152,265,2,127,126,2,

152,263,2,127,126,2,

151,263,2,126,124,2,

150,261,2,126,124,2,

149,259,2,125,123,2,

148,258,2,124,123,2,

157,257,2,124,123,2,

234,255,2,123,122,2,

231,254,2,123,121,2,

231,252,2,122,121,2,

229,251,2,121,120,2,

227,249,2,121,120,2,

226,248,2,120,119,2,

224,247,2,120,119,2,

224,246,2,119,118,2,

222,243,2,118,118,2,

221,243,2,118,117,2,

220,241,2,117,116,2,

219,240,2,116,115,2,

217,239,2,116,115,2,

216,237,2,116,115,2,

215,236,2,115,114,2,

214,236,2,115,113,2,

212,233,1,114,113,1,

211,231,1,113,112,2,

210,231,1,113,112,2,

209,231,1,112,111,1,

241,229,2,111,111,2,

239,228,2,111,110,2,

237,227,1,110,110,2,

236,254,2,110,109,1,

234,252,1,109,109,1,

233,251,2,109,108,2,

231,249,1,108,108,2,

231,248,2,108,108,2,

229,246,2,107,107,2,

227,245,2,107,107,1,

227,243,1,106,106,1,

225,242,2,106,105,1,

224,241,1,105,105,2,

222,239,1,105,108,2,

222,239,2,103,127,1,

220,238,2,103,127,2,

219,237,1,103,126,1,

218,235,2,103,126,2,

216,233,1,102,125,1,

216,233,2,102,124,1,

214,231,1,102,124,2,

213,230,1,100,123,2,

212,229,2,100,122,1,

211,227,1,100,121,1,

210,226,1,99,121,1,

209,225,2,99,120,1,

207,224,2,99,120,1,

207,223,2,99,119,1,

206,222,2,98,118,2,

205,221,1,97,118,1,

204,220,2,97,117,1,

203,219,1,97,117,1,

201,219,1,96,116,1,

201,219,2,96,115,1,

199,217,1,96,115,2,

199,216,1,95,114,2,

198,216,1,95,114,1,

197,214,1,99,113,1,

196,213,1,97,112,2,

195,212,1,97,112,1,

194,211,1,96,111,1,

193,210,2,96,111,1,

192,209,1,96,110,1,

192,207,2,96,110,1,

190,207,1,95,109,1,

189,206,1,94,109,2,

188,205,1,94,108,1,

188,204,2,94,108,1,

186,203,1,93,107,1,

185,203,1,92,152,1,

185,201,2,92,149,1,

184,199,1,92,149,2,

184,199,1,91,147,2,

182,199,1,91,146,1,

182,198,1,90,146,2,

181,196,1,90,145,1,

180,195,1,89,143,1,

179,194,1,89,147,1,

178,194,1,89,146,1,

178,193,2,89,145,1,

176,192,1,88,144,1,

176,191,1,88,143,2,

175,190,1,88,142,1,

174,190,1,88,142,1,

173,188,1,87,141,1,

172,188,2,86,140,2,

172,187,1,86,140,1,

171,185,2,85,140,1,

170,184,1,85,139,2,

169,184,1,85,137,1,

167,183,2,84,137,1,

167,182,1,83,135,1,

167,182,1,83,135,1,

166,180,1,83,135,1,

165,179,1,82,134,1,

164,179,1,82,133,1,

163,178,1,82,133,1,

163,177,1,81,132,2,

167,177,1,81,131,1,

167,175,1,80,131,2,

166,176,1,81,186,1,

164,174,1,80,184,1,

163,173,1,80,183,1,

163,173,1,79,181,1,

162,221,1,79,181,1,

161,231,1,78,179,1,

161,230,1,78,178,1,

159,228,1,78,178,1,

165,227,1,78,176,1,

164,226,1,77,176,1,

163,225,1,77,175,1,

162,223,1,76,174,2,

161,222,1,76,172,1,

159,221,1,76,172,1,

159,243,1,75,171,1,

159,242,1,75,170,1,

158,240,1,75,169,1,

157,239,1,74,167,1,

157,238,1,74,167,1,

156,237,1,74,166,1,

155,235,1,73,166,1,

155,234,2,73,165,1,

153,233,1,73,164,2,

153,231,1,73,163,1,

152,230,1,71,163,1,

152,229,1,71,162,1,

151,227,1,71,161,2,

150,227,1,71,159,1,

149,225,1,71,159,2,

148,224,1,70,158,1,

148,223,1,71,158,1,

147,222,1,74,157,2,

147,220,1,78,156,1,

146,219,1,78,156,1,

145,218,1,77,155,1,

144,217,1,77,153,1,

143,216,1,77,153,1,

143,215,1,76,152,1,

143,214,1,76,152,1,

142,212,1,75,150,1,

142,211,1,75,150,1,

141,210,2,101,150,1,

140,209,1,100,148,2,

140,208,1,99,147,1,

139,207,1,99,147,1,

138,206,0,98,147,1,

137,205,1,97,146,1,

137,204,1,97,145,1,

135,203,1,97,144,1,

135,203,1,96,143,1,

135,201,1,95,143,2,

134,199,1,95,142,2,

134,199,1,94,142,1,

133,198,1,94,141,1,

133,198,1,93,140,1,

167,196,1,93,139,1,

166,195,1,92,139,1,

165,194,1,92,138,1,

164,193,1,92,137,1,

163,192,1,91,137,1,

163,192,1,91,135,1,

162,191,1,90,148,1,

161,189,1,89,147,1,

159,189,1,89,146,1,

159,188,2,89,146,1,

158,187,1,88,145,1,

157,186,1,88,143,1,

156,185,1,88,143,1,

156,184,1,87,143,1,

155,184,1,86,142,0,

154,183,1,86,141,1,

153,222,1,86,140,1,

152,238,1,85,140,1,

152,236,1,85,139,1,

152,235,1,84,138,1,

150,233,1,84,137,1,

150,231,1,84,137,1,

149,231,1,83,135,1,

162,230,1,83,135,1,

161,228,1,83,135,1,

159,227,1,82,134,1,

159,226,1,82,133,1,

158,224,1,81,133,1,

157,224,1,81,132,1,

157,222,1,80,131,1,

156,221,1,79,131,1,

155,220,1,79,130,1,

154,219,1,79,129,1,

153,217,1,79,129,0,

153,216,1,79,128,1,

152,216,1,78,127,1,

152,214,1,77,127,1,

151,213,1,78,126,1,

150,211,1,77,126,1,

149,210,1,76,126,1,

148,210,1,77,125,1,

147,209,1,76,124,1,

147,207,1,76,124,1,

146,207,1,75,123,1,

145,205,1,75,123,1,

144,205,1,75,122,1,

143,203,1,74,121,1,

143,203,1,74,121,1,

142,201,1,73,120,1,

142,199,1,73,120,1,

141,199,1,73,120,1,

140,199,1,71,119,1,

140,198,1,72,118,1,

139,196,1,71,118,1,

139,195,1,71,117,1,

138,194,1,71,116,1,

137,193,1,71,115,1,

135,193,1,71,115,1,

135,192,1,70,115,1,

135,190,1,70,114,1,

135,190,1,69,114,1,

133,189,1,69,113,1,

133,188,1,69,112,1,

133,187,1,68,112,1,

132,186,1,67,112,1,

131,185,1,67,111,1,

130,184,1,70,112,1,

130,184,1,109,202,1,

129,182,1,107,199,0,

128,181,1,106,198,1,

127,180,1,105,196,1,

127,179,1,105,195,0,

127,178,1,103,194,1,

126,178,1,103,193,1,

125,177,1,103,192,0,

125,176,1,103,191,0,

125,175,1,102,190,1,

124,174,1,101,189,1,

123,184,1,101,187,1,

123,184,1,101,187,1,

122,204,1,99,185,1,

122,203,1,99,185,1,

121,201,1,99,184,1,

120,199,1,98,183,1,

120,199,0,97,182,1,

120,198,1,97,181,1,

119,197,0,97,180,1,

119,195,1,96,179,1,

118,216,1,96,178,1,

158,263,1,95,177,1,

158,261,1,95,176,1,

156,259,1,94,175,1,

156,258,1,93,174,1,

155,255,1,93,174,1,

153,255,1,92,172,1,

153,254,1,92,172,1,

152,252,1,92,171,1,

151,251,1,91,170,1,

151,249,1,91,169,1,

150,248,1,96,198,1,

149,246,0,95,197,1,

148,245,1,95,195,1,

147,243,1,94,195,1,

146,242,1,93,193,1,

146,241,1,93,192,1,

145,240,0,93,191,1,

145,239,1,92,190,1,

143,237,1,91,189,1,

143,236,1,91,188,1,

142,235,1,90,187,1,

142,233,1,90,185,1,

141,231,1,89,185,1,

140,231,1,89,184,1,

140,231,1,89,184,1,

139,229,1,88,182,1,

138,227,1,88,181,1,

137,226,1,88,181,1,

137,225,1,87,179,1,

135,224,1,87,179,1,

135,224,1,87,178,1,

135,222,1,86,176,1,

134,221,1,85,176,1,

134,220,1,85,175,1,

133,219,1,84,174,1,

132,217,1,84,174,1,

131,216,1,83,172,1,

131,216,1,83,172,1,

130,215,1,83,171,1,

129,213,1,83,170,1,

129,212,1,82,169,1,

128,211,0,81,167,1,

127,210,1,81,167,0,

127,209,1,81,166,1,

127,207,1,80,166,1,

126,207,1,80,165,1,

125,206,1,79,164,0,

124,205,1,79,163,0,

124,204,1,79,162,1,

124,203,1,78,162,1,

122,202,1,78,161,1,

122,201,1,78,159,1,

121,199,1,77,159,1,

121,199,1,77,159,1,

120,199,1,77,158,1,

120,198,1,86,157,1,

120,196,1,85,156,1,

119,195,1,84,156,1,

118,195,1,83,155,1,

118,194,1,83,154,1,

117,192,1,83,153,1,

117,192,1,82,153,1,

116,191,1,82,156,1,

115,190,1,81,199,1,

115,189,1,80,197,1,

114,188,1,80,195,1,

114,187,1,80,195,1,

114,186,1,79,194,1,

124,185,1,79,192,1,

124,184,1,79,192,1,

123,184,1,78,190,1,

122,183,1,78,189,1,

122,182,1,78,188,1,

121,181,1,77,188,1,

120,180,1,76,186,1,

120,179,1,76,185,1,

120,178,1,77,184,1,

120,177,1,76,184,1,

119,177,1,76,183,1,

120,207,1,75,181,1,

120,206,1,75,181,1,

119,205,1,74,179,1,

118,203,1,74,178,1,

118,203,1,73,178,1,

117,201,1,73,176,1,

116,201,1,73,176,1,

116,199,1,71,175,1,

115,198,1,71,174,1,

115,197,1,71,174,0,

114,196,1,71,172,1,

113,195,1,71,172,1,

113,194,1,71,171,1,

113,193,1,70,170,1,

112,192,1,70,169,1,

111,191,1,70,167,1,

111,190,1,70,167,1,

111,189,1,69,166,1,

110,188,1,69,166,1,

109,187,1,68,165,1,

109,185,1,68,164,1,

109,185,1,68,163,1,

108,184,1,67,162,1,

107,184,1,67,161,1,

107,206,1,66,160,1,

106,205,1,66,159,1,

106,203,1,66,159,1,

105,202,1,66,158,1,

105,201,1,65,158,1,

103,199,1,65,157,1,

103,199,1,65,156,1,

103,198,1,65,156,0,

103,196,1,65,155,1,

103,195,1,64,154,1,

103,195,1,63,153,1,

102,194,0,63,153,1,

102,193,1,63,152,1,

102,192,1,63,151,1,

101,191,1,63,150,1,

101,189,1,63,150,1,

100,189,1,63,149,1,

100,188,1,62,148,1,

103,187,1,62,147,1,

103,185,0,61,147,1,

102,185,1,61,146,1,

101,184,1,61,145,1,

101,183,1,60,144,1,

99,182,1,60,143,0,

100,181,1,60,143,1,

99,180,1,60,143,1,

98,179,1,59,142,1,

98,178,1,59,142,1,

98,177,1,59,141,1,

97,177,1,59,140,0,

97,176,1,58,140,1,

96,175,1,58,139,1,

96,175,1,57,138,1,

96,173,1,57,137,1,

96,173,1,57,137,1,

95,172,1,57,137,0,

94,171,1,57,135,1,

94,171,0,56,135,1,

94,169,1,56,135,1,

93,169,1,56,134,1,

93,167,1,56,134,1,

93,167,1,56,133,1,

92,167,1,55,132,1,

92,167,1,67,131,1,

101,165,1,79,131,0,

151,164,0,77,130,1,

149,163,0,77,130,1,

148,163,1,77,129,0,

147,162,1,77,129,1,

146,161,1,76,127,0,

145,161,1,75,127,1,

145,159,1,75,127,1,

144,159,0,74,126,1,

143,158,1,74,126,0,

143,158,1,73,125,1,

142,157,1,73,124,1,

141,156,0,73,124,1,

141,156,1,73,123,1,

140,155,1,73,123,1,

140,154,1,71,122,1,

139,154,1,71,121,1,

137,153,1,71,121,1,

137,152,1,71,121,1,

135,152,1,71,120,1,

135,151,1,70,120,0,

135,150,1,70,119,1,

134,150,1,69,118,1,

134,149,0,69,118,1,

133,161,1,69,118,1,

132,234,1,68,117,1,

131,231,1,68,115,0,

131,231,1,67,115,1,

131,229,1,67,115,0,

130,227,0,67,115,1,

129,227,0,66,114,1,

128,225,1,66,114,1,

128,224,1,65,113,1,

127,223,1,79,112,0,

126,222,1,79,112,1,

126,220,1,78,112,1,

125,219,0,78,111,1,

125,218,1,78,110,1,

124,217,0,78,110,1,

124,216,1,77,110,1,

123,215,1,77,109,1,

123,214,1,77,109,1,

121,212,1,76,108,1,

183,312,1,76,108,0,

181,323,1,75,107,1,

179,319,1,75,107,1,

178,318,0,74,106,1,

177,316,1,74,105,1,

176,313,1,73,105,1,

175,312,1,73,103,1,

174,311,0,73,103,1,

173,308,1,71,103,1,

172,307,1,71,103,1,

172,305,1,71,103,0,

170,303,1,71,102,1,

170,301,1,71,102,1,

167,300,1,70,102,0,

167,298,1,70,101,1,

167,297,1,70,101,1,

166,295,1,69,100,0,

165,293,0,69,100,1,

164,291,1,68,99,1,

163,289,0,68,99,1,

163,289,1,67,98,1,

162,287,1,67,98,0,

161,286,1,67,97,1,

159,284,0,67,97,1,

159,283,1,67,97,1,

159,281,1,66,97,1,

158,280,1,66,97,1,

158,279,0,65,96,1,

157,277,1,65,96,1,

156,276,1,65,96,1,

155,275,1,65,95,0,

155,273,1,65,95,0,

154,271,0,63,94,1,

153,271,1,63,93,1,

152,269,1,63,93,1,

152,268,1,63,93,1,

151,266,0,63,93,0,

150,265,1,62,92,1,

150,263,1,62,92,1,

149,263,1,62,92,1,

148,262,1,62,91,1,

147,260,1,61,91,1,

146,259,1,61,91,1,

146,257,1,61,90,0,

145,255,1,60,89,1,

145,255,1,60,89,1,

143,254,1,60,89,1,

143,253,1,60,89,1,

143,252,1,59,88,1,

142,250,0,59,88,1,

141,248,1,58,88,1,

141,248,1,59,87,0,

140,247,1,58,87,1,

139,245,1,58,86,1,

139,244,1,58,86,1,

138,243,1,57,86,1,

137,242,1,57,85,1,

137,241,1,57,85,1,

135,240,1,59,85,1,

135,239,1,58,84,1,

135,238,1,58,83,0,

134,237,1,57,83,0,

134,235,1,57,83,1,

133,235,1,57,83,1,

133,233,1,57,82,1,

131,231,1,56,82,1,

131,231,1,56,81,1,

131,230,1,56,81,1,

130,229,1,56,81,1,

130,228,1,56,81,1,

129,227,1,55,79,0,

129,225,1,55,79,1,

127,225,1,55,79,1,

127,224,1,55,79,0,

127,223,1,54,79,1,

126,222,1,54,79,1,

125,221,1,54,78,1,

125,220,1,54,78,1,

124,219,1,53,77,0,

124,217,1,53,77,1,

124,217,1,52,77,1,

123,216,1,52,77,1,

122,215,1,52,77,1,

121,214,1,52,76,1,

121,212,0,51,76,1,

120,212,0,52,76,1,

120,211,1,51,76,1,

120,210,1,51,75,0,

118,209,1,51,75,1,

118,207,0,50,74,1,

117,207,1,51,74,0,

118,206,1,50,74,1,

117,205,1,50,73,1,

116,204,1,58,73,1,

115,204,0,57,73,1,

115,203,0,57,71,1,

115,202,1,57,72,0,

114,201,1,56,71,1,

114,199,1,56,71,0,

113,199,1,56,71,1,

113,198,1,56,71,1,

112,197,0,56,71,1,

112,217,1,55,70,0,

112,231,1,55,71,1,

111,230,1,94,70,1,

110,229,1,93,70,0,

110,227,1,92,70,1,

109,226,0,92,69,1,

109,225,1,92,69,0,

108,224,1,91,69,1,

108,223,1,91,67,0,

108,222,1,90,68,1,

107,220,0,89,67,1,

106,219,1,89,67,1,

105,219,1,88,67,1,

106,217,1,88,67,1,

105,216,1,88,66,1,

103,215,1,88,66,0,

103,214,1,88,66,1,

103,214,1,87,65,1,

137,260,0,86,65,1,

137,259,1,86,65,1,

135,257,1,85,65,1,

135,255,1,85,65,1,

134,255,0,84,64,1,

134,253,1,83,63,1,

133,252,1,83,63,1,

132,251,1,83,63,1,

131,249,1,83,63,1,

131,248,1,135,62,0,

130,246,1,137,63,1,

130,245,1,135,62,0,

129,243,1,135,62,1,

128,243,1,135,62,1,

127,241,1,133,61,1,

127,240,0,133,61,1,

126,239,1,132,60,1,

126,237,1,131,61,1,

125,236,1,131,60,0,

124,235,1,130,60,0,

124,233,1,130,60,1,

123,231,1,128,60,1,

122,231,1,127,59,1,

121,230,1,127,59,1,

121,229,1,126,59,1,

120,227,1,126,59,0,

120,226,1,126,58,1,

120,225,1,125,58,1,

119,224,1,124,57,1,

119,223,1,124,57,1,

118,222,1,123,57,1,

117,221,0,122,56,1,

116,220,1,121,56,1,

120,219,1,121,56,1,

119,217,1,121,56,0,

119,216,0,120,56,1,

118,216,1,119,56,1,

117,215,1,119,56,1,

117,213,1,118,55,1,

115,212,1,118,55,1,

115,211,1,117,55,1,

115,210,1,116,54,1,

114,209,1,115,54,0,

113,207,0,115,54,1,

113,207,1,115,54,1,

113,206,1,114,53,1,

112,205,1,113,53,1,

111,204,1,113,53,1,

111,203,1,112,52,1,

110,202,1,112,52,1,

110,199,1,112,52,1,

109,199,1,111,52,1,

109,199,1,110,51,1,

108,198,0,109,51,1,

107,197,1,109,51,1,

107,196,1,108,51,1,

106,195,1,108,50,1,

107,194,0,108,50,0,

106,194,0,107,50,1,

105,192,1,107,50,1,

103,192,1,106,50,1,

103,191,1,105,49,1,

103,190,1,105,49,1,

103,189,1,105,49,1,

129,188,1,103,49,1,

128,188,1,103,48,1,

127,186,1,103,48,1,

127,185,1,103,48,1,

126,184,1,102,48,1,

125,184,1,102,48,1,

125,183,1,101,48,1,

125,182,1,101,48,1,

124,181,1,100,53,1,

124,180,1,99,57,0,

122,179,1,99,56,1,

121,179,1,99,56,1,

121,178,1,99,56,1,

120,177,1,98,56,1,

121,176,1,98,56,1,

120,176,1,97,55,1,

120,175,1,97,55,1,

120,174,1,96,55,0,

119,174,1,96,54,1,

119,173,0,95,54,1,

118,172,1,95,53,1,

117,172,0,94,54,1,

117,170,1,94,53,1,

116,170,1,93,52,1,

129,181,1,94,52,1,

127,254,1,93,53,1,

127,253,1,92,51,0,

127,250,1,92,51,0,

126,249,1,92,51,1,

125,248,0,91,51,1,

125,246,1,91,51,1,

124,245,1,90,50,1,

124,243,0,89,50,1,

133,243,1,90,50,1,

177,241,1,89,50,1,

176,240,1,90,51,1,

175,238,0,90,51,1,

173,238,1,89,51,1,

172,236,1,89,50,1,

172,235,1,89,50,1,

171,234,1,88,50,1,

169,233,1,88,50,1,

169,231,1,87,49,1,

167,231,1,87,50,1,

167,229,1,87,49,0,

166,227,0,86,49,0,

165,227,1,86,48,1,

165,225,1,85,48,0,

164,225,1,85,48,1,

163,224,1,84,48,1,

162,222,1,84,48,1,

161,221,1,83,47,1,

161,220,1,83,48,1,

159,219,1,83,47,1,

159,218,1,82,46,1,

158,217,1,82,46,1,

157,216,1,82,46,1,

157,215,1,82,47,1,

156,214,1,81,46,1,

156,212,1,81,46,1,

155,211,0,80,46,1,

153,211,1,80,45,1,

153,210,1,79,45,1,

152,209,1,79,45,1,

152,207,1,78,44,1,

151,206,1,78,44,1,

150,206,1,78,44,1,

149,205,1,78,44,1,

149,203,1,78,44,1,

148,203,1,77,44,1,

147,202,1,77,57,1,

147,201,1,77,56,1,

146,199,1,76,56,1,

145,199,1,76,55,1,

145,198,0,76,56,1,

143,197,1,76,55,1,

143,197,1,75,54,1,

143,195,1,75,55,0,

142,195,0,74,54,0,

141,193,1,74,54,1,

141,192,1,73,54,0,

140,192,1,73,53,1,

140,191,1,73,52,0,

138,190,1,73,52,1,

138,196,1,73,52,1,

137,235,1,71,52,1,

185,282,1,71,51,1,

184,279,1,71,51,1,

182,278,1,71,51,1,

181,275,1,71,51,1,

180,274,0,71,50,0,

179,273,1,71,50,0,

178,271,1,70,50,1,

177,270,1,70,49,1,

177,268,1,69,49,0,

176,267,0,69,49,1,

175,265,1,69,49,1,

174,263,1,68,48,1,

173,263,1,67,48,1,

172,261,1,67,48,1,

171,260,1,67,48,0,

170,258,0,67,48,1,

170,257,1,67,47,0,

168,255,1,66,47,1,

167,254,0,66,47,1,

167,253,0,66,46,1,

209,252,1,66,46,1,

241,250,0,66,46,1,

239,249,1,65,46,1,

238,248,0,65,45,1,

237,247,1,64,45,1,

235,246,1,64,45,0,

233,244,1,63,45,0,

233,243,1,63,45,1,

231,242,1,63,44,0,

230,241,1,63,44,0,

229,240,1,63,44,0,

228,239,1,62,44,1,

227,237,0,62,44,1,

226,236,1,62,44,1,

224,235,1,61,43,1,

224,234,0,61,43,1,

222,233,1,61,43,1,

221,231,1,60,43,1,

220,231,1,60,43,0,

219,230,1,60,42,1,

217,228,1,60,42,1,

217,227,1,60,42,1,

216,226,1,60,41,1,

215,225,1,59,41,1,

215,224,0,59,41,1,

214,223,0,59,41,1,

213,222,1,58,41,1,

211,221,1,58,41,0,

211,220,1,57,41,1,

209,219,1,58,39,0,

209,217,1,57,39,0,

207,216,1,57,39,1,

207,216,0,57,39,1,

205,215,1,57,39,1,

205,214,0,57,39,1,

204,213,1,56,39,1,

203,211,1,56,39,1,

202,211,1,56,39,1,

199,210,1,56,39,1,

199,209,1,56,38,1,

199,207,1,55,38,1,

198,207,0,55,38,1,

198,207,1,55,38,1,

196,206,0,54,38,1,

195,206,1,54,37,1,

194,205,0,53,38,1,

193,204,1,54,37,1,

192,203,1,53,37,1,

192,202,1,53,37,1,

191,201,1,53,37,1,

190,259,0,52,37,1,

189,257,1,52,37,1,

188,255,1,52,36,1,

187,254,1,51,36,1,

186,253,1,51,35,1,

185,251,1,51,36,2,

185,250,1,51,35,1,

184,249,1,51,36,1,

183,248,1,50,35,1,

182,246,1,50,35,1,

181,245,1,50,35,1,

181,243,1,50,35,1,

179,243,1,49,34,0,

179,241,1,49,34,1,

178,240,1,49,34,1,

177,239,1,49,34,1,

177,238,1,49,39,1,

176,236,1,48,39,1,

175,235,0,48,39,1,

174,234,1,49,39,1,

173,233,1,48,38,1,

172,231,1,48,38,1,

172,230,1,48,38,1,

171,229,1,47,38,1,

171,228,1,47,37,1,

169,227,1,47,37,1,

169,226,1,47,37,1,

167,225,1,46,36,1,

167,224,1,46,36,1,

167,222,1,47,36,1,

166,221,1,46,35,1,

165,221,1,46,35,1,

164,219,1,46,35,1,

167,269,1,45,35,1,

166,278,1,45,35,1,

165,276,1,44,35,0,

164,275,1,45,35,1,

163,273,1,44,35,1,

163,271,1,44,34,1,

162,270,1,44,34,1,

162,269,1,44,39,1,

160,267,1,44,39,1,

159,266,1,43,39,1,

159,263,1,43,39,1,

158,263,1,43,39,1,

158,262,1,43,39,1,

157,260,1,43,39,1,

156,259,1,42,39,0,

156,257,1,43,39,1,

155,255,1,42,39,1,

155,255,1,42,38,1,

154,253,1,41,37,0,

153,252,1,41,38,1,

152,251,1,41,37,1,

152,249,1,41,37,1,

151,249,1,41,37,1,

150,247,1,41,36,0,

150,246,1,40,36,1,

149,244,1,39,36,1,

149,243,1,41,36,1,

147,242,1,39,36,1,

147,241,1,39,35,1,

146,240,1,39,35,1,

146,238,1,39,35,1,

145,238,1,39,35,1,

144,236,1,39,34,1,

143,235,1,39,35,1,

143,234,1,39,34,1,

143,233,1,38,34,0,

142,231,1,38,34,1,

141,230,1,38,34,1,

141,229,0,38,34,1,

140,229,1,38,34,1,

140,227,1,38,33,1,

139,226,1,38,34,1,

138,225,1,37,33,1,

138,224,1,37,33,1,

137,223,1,37,33,1,

137,222,1,37,33,1,

135,221,1,37,33,1,

135,220,1,36,33,1,

135,219,1,36,33,1,

134,217,1,35,31,1,

134,217,1,36,31,1,

133,216,1,36,32,1,

132,215,1,35,31,0,

132,214,1,35,31,1,

131,213,1,35,31,1,

131,211,1,35,31,1,

130,210,1,35,31,1,

130,210,1,35,31,1,

129,209,0,34,30,1,

129,207,1,35,31,0,

127,207,1,34,71,1,

127,206,1,34,94,1,

127,205,1,34,93,1,

126,204,1,34,92,1,

126,203,1,34,92,1,

125,202,1,34,91,1,

124,201,1,33,90,1,

124,199,1,33,91,1,

124,199,1,33,90,1,

123,199,1,33,89,1,

123,197,1,33,88,1,

122,197,1,33,88,1,

121,195,1,32,88,1,

121,195,2,33,88,1,

120,194,1,32,87,1,

120,193,1,32,86,1,

120,192,1,32,86,1,

119,192,1,31,85,1,

119,190,1,31,85,1,

118,190,1,31,84,1,

118,188,1,31,84,1,

117,188,1,31,83,1,

116,187,1,31,83,1,

116,186,1,31,82,0,

115,186,0,31,82,1,

115,185,1,31,82,1,

115,184,1,31,82,1,

114,183,1,30,81,1,

114,182,0,30,81,0,

113,181,1,30,80,1,

112,180,0,30,79,1,

112,179,1,30,79,1,

112,179,1,29,79,1,

111,178,1,29,78,1,

110,178,1,29,78,0,

110,176,1,29,78,0,

110,176,1,29,77,1,

109,175,1,29,77,1,

109,174,1,29,77,1,

108,173,1,28,76,1,

108,173,1,28,76,1,

108,172,1,28,76,1,

107,171,0,28,75,1,

106,171,1,28,75,1,

145,190,1,28,75,0,

144,190,1,27,73,1,

143,189,1,28,74,1,

143,188,0,27,74,1,

142,187,1,27,73,1,

141,185,1,27,73,1,

141,185,1,27,71,1,

140,184,1,27,71,0,

139,184,1,27,71,0,

139,182,1,27,71,1,

138,181,0,26,71,1,

137,180,1,27,71,1,

135,179,1,27,70,1,

135,179,1,27,70,1,

135,178,1,27,70,0,

134,176,0,27,70,1,

134,176,1,26,69,1,

133,175,1,26,69,1,

132,174,1,26,68,1,

132,173,1,25,67,1,

131,173,1,25,67,1,

130,172,1,26,67,1,

130,171,1,25,67,1,

129,171,1,25,66,1,

129,169,1,28,71,1,

128,168,1,33,71,1,

127,167,1,35,71,1,

127,167,1,35,71,0,

127,166,1,34,71,1,

125,166,1,35,70,1,

125,165,1,35,70,1,

124,164,1,34,69,1,

124,163,1,34,69,0,

123,163,1,34,69,1,

123,163,1,34,68,1,

122,162,1,34,68,1,

121,161,1,34,67,1,

121,159,0,34,67,1,

120,159,1,34,67,1,

120,159,1,34,66,1,

120,159,1,33,66,1,

119,157,1,33,66,1,

118,156,1,33,66,1,

118,156,1,33,65,1,

117,156,1,33,65,0,

116,167,1,33,65,1,

116,167,1,32,64,1,

115,166,1,32,64,1,

115,165,1,31,63,1,

114,164,1,31,63,1,

114,164,1,31,63,0,

113,163,1,31,63,1,

112,163,1,31,62,1,

112,161,1,31,62,0,

112,160,1,31,62,1,

111,159,1,31,61,1,

111,159,1,31,61,1,

110,158,1,31,61,0,

110,158,1,30,61,1,

109,157,1,31,60,1,

108,156,0,31,60,1,

108,156,1,31,60,1,

108,155,1,31,59,1,

107,153,1,30,59,1,

107,153,1,30,59,1,

106,152,0,30,59,1,

106,152,1,30,58,1,

105,151,1,30,58,1,

105,150,1,30,57,1,

105,150,1,35,58,1,

103,149,1,45,57,1,

103,149,1,45,56,1,

103,147,1,44,56,1,

103,147,1,44,56,1,

102,146,1,44,56,1,

102,146,0,43,56,1,

101,145,1,43,56,0,

100,144,1,43,55,1,

100,144,1,43,56,1,

100,143,1,43,55,1,

99,143,0,42,54,1,

99,143,1,42,54,1,

99,142,1,41,54,0,

98,141,1,41,53,1,

98,141,1,41,53,0,

97,140,1,41,53,1,

97,140,1,41,53,1,

96,139,0,40,52,1,

96,139,0,39,52,1,

96,138,1,39,52,1,

95,138,0,39,52,1,

95,136,0,39,51,1,

95,135,0,39,51,1,

94,135,1,39,51,1,

94,135,1,39,51,1,

94,135,1,39,50,0,

