
30,12,4,32,26,4,

30,12,3,33,26,3,

30,12,4,32,25,3,

30,12,3,32,26,4,

30,12,4,31,25,3,

29,12,4,31,25,4,

29,12,4,31,25,4,

29,12,4,31,25,3,

29,11,4,31,25,3,

29,11,4,31,25,4,

29,12,4,31,25,3,

29,11,4,31,25,4,

28,12,3,36,25,3,

28,11,4,35,25,4,

28,12,4,36,25,3,

28,11,4,35,24,3,

28,12,3,35,24,4,

29,12,3,35,24,4,

28,14,3,34,24,4,

28,14,3,34,24,4,

28,13,3,35,24,3,

28,13,4,34,24,4,

28,13,4,34,24,3,

28,13,4,35,24,3,

27,13,4,33,24,4,

27,13,4,33,24,3,

28,13,3,33,25,4,

27,13,4,33,31,4,

27,13,3,33,32,3,

27,13,3,33,31,4,

27,14,3,33,31,4,

27,13,3,32,31,3,

26,12,4,31,31,4,

26,12,3,32,31,3,

26,12,3,31,31,3,

26,12,3,31,31,3,

26,12,3,32,30,4,

25,12,4,32,30,4,

25,12,4,31,30,4,

25,12,4,31,31,4,

26,12,3,31,33,3,

25,12,4,31,34,4,

25,12,3,31,33,3,

25,12,3,31,34,3,

25,12,4,31,33,4,

24,12,4,31,32,3,

25,12,4,30,32,3,

25,12,3,30,31,3,

24,11,4,30,32,4,

24,12,4,30,31,4,

24,12,4,30,32,3,

24,12,3,30,31,3,

24,12,4,30,31,4,

25,12,3,29,31,3,

30,11,3,29,31,3,

30,11,3,29,31,3,

30,11,4,30,31,3,

29,11,3,29,31,4,

29,11,3,29,31,4,

29,12,4,29,30,4,

29,11,4,29,31,3,

29,11,3,29,30,3,

29,11,4,28,30,4,

29,11,4,28,30,4,

28,11,3,28,30,4,

28,11,3,29,30,4,

29,11,3,28,30,3,

29,11,4,28,29,4,

28,11,3,28,29,4,

28,11,4,28,29,3,

28,10,3,28,29,3,

27,10,4,27,30,3,

27,10,4,27,29,4,

27,10,4,27,28,3,

27,10,3,27,29,4,

27,11,5,27,28,3,

26,10,3,27,28,3,

27,11,4,27,28,3,

27,10,4,26,28,3,

27,10,3,27,28,3,

26,10,4,26,28,3,

26,10,3,26,27,4,

26,10,3,26,28,3,

26,10,3,26,27,4,

25,9,3,26,27,3,

25,10,4,25,27,4,

26,10,4,25,27,4,

25,9,4,26,27,4,

25,10,4,25,27,4,

25,10,3,25,26,3,

26,9,4,25,26,4,

24,10,3,25,27,3,

25,10,4,25,44,3,

24,9,3,25,45,4,

24,9,3,24,44,3,

25,9,3,25,44,4,

24,10,3,25,44,3,

24,9,4,24,44,3,

24,10,3,25,44,3,

24,9,3,25,44,3,

24,9,5,25,43,4,

24,9,4,24,43,4,

24,9,3,24,43,4,

24,10,3,24,43,3,

24,9,3,24,43,3,

24,9,4,24,42,3,

24,9,4,24,43,3,

23,9,3,23,42,4,

24,9,3,23,42,4,

24,9,4,24,42,3,

23,9,5,23,41,4,

22,10,4,22,41,3,

23,10,3,23,41,3,

23,9,4,23,39,4,

22,9,3,23,41,3,

23,9,3,22,39,3,

22,9,3,22,39,4,

22,9,3,22,39,4,

22,9,3,23,39,3,

22,9,3,22,39,4,

22,9,3,22,39,4,

22,9,3,22,39,3,

22,9,3,22,39,4,

22,27,3,22,39,4,

22,26,3,22,38,3,

21,27,3,23,38,3,

21,27,3,21,38,3,

22,25,3,21,38,3,

21,25,3,21,38,3,

22,25,3,22,37,3,

21,25,3,21,38,3,

21,25,4,21,37,3,

22,25,4,22,38,3,

21,26,3,21,39,4,

20,25,4,22,39,3,

20,25,3,21,39,3,

20,25,4,21,38,3,

20,25,3,21,39,5,

21,25,3,20,38,3,

20,24,4,21,38,3,

20,24,3,21,38,3,

20,24,3,20,38,3,

20,24,3,20,37,4,

20,24,3,20,37,4,

20,24,3,21,37,4,

20,24,4,20,37,3,

19,24,3,20,37,3,

19,24,3,19,37,4,

21,24,4,20,36,4,

20,24,3,19,36,4,

20,24,4,20,35,3,

19,23,3,19,35,4,

19,24,3,19,35,3,

20,24,3,19,35,3,

21,23,3,19,35,3,

19,23,3,19,35,3,

20,22,3,19,35,4,

24,23,3,24,35,4,

24,22,3,25,35,3,

24,22,3,25,35,3,

24,22,3,25,35,4,

24,22,4,25,34,3,

23,22,3,24,34,4,

23,22,3,24,33,3,

24,22,3,24,34,3,

23,21,3,24,33,3,

24,22,3,24,33,4,

23,21,3,24,33,4,

23,21,3,24,33,3,

23,21,3,24,33,3,

22,21,3,24,33,3,

23,21,4,24,32,3,

23,21,3,24,32,4,

22,21,3,23,32,3,

22,21,3,23,32,4,

22,21,4,23,31,3,

23,21,3,24,32,4,

22,21,3,23,31,3,

23,20,3,24,31,3,

22,20,3,23,31,3,

37,21,4,23,31,4,

138,107,4,23,31,4,

240,188,4,22,31,3,

250,186,4,22,31,3,

248,185,4,22,40,4,

246,184,3,22,51,4,

244,182,4,22,49,3,

243,182,3,22,49,4,

241,180,4,22,49,4,

240,179,3,22,48,3,

239,179,3,22,48,4,

238,177,3,22,48,3,

236,177,4,22,48,3,

235,175,4,21,48,4,

233,175,3,21,47,3,

233,174,3,21,47,4,

231,173,3,26,49,4,

230,172,4,45,50,4,

229,172,3,49,49,4,

228,171,3,48,49,4,

227,169,4,48,49,4,

226,169,3,47,49,4,

224,167,4,48,49,3,

224,167,3,46,49,3,

222,166,4,46,48,3,

221,165,3,46,48,4,

220,164,3,46,48,3,

219,163,4,46,47,5,

219,163,4,46,47,3,

217,162,4,45,47,4,

216,162,4,45,46,3,

215,161,3,45,47,4,

214,159,5,45,47,3,

213,159,4,45,46,3,

211,159,4,44,46,3,

211,157,3,44,46,3,

210,157,3,44,45,5,

209,156,4,44,46,4,

207,155,4,44,45,3,

207,154,4,43,45,4,

206,154,4,43,45,4,

205,153,4,43,44,4,

204,152,4,43,45,3,

204,152,4,43,44,4,

202,151,4,43,44,3,

201,151,4,43,44,4,

199,150,4,42,44,4,

199,149,4,41,43,3,

199,149,4,41,43,4,

197,147,3,41,42,3,

197,147,3,41,42,4,

195,146,3,41,42,3,

195,146,4,41,42,4,

194,145,3,84,41,4,

230,145,4,83,41,4,

274,143,4,83,41,3,

273,143,5,82,41,5,

270,142,4,81,41,5,

269,142,4,81,41,4,

267,141,4,81,41,5,

265,141,4,80,39,4,

263,140,4,79,39,3,

263,139,4,79,39,4,

262,138,4,79,43,4,

260,137,4,78,42,3,

259,137,5,78,41,5,

259,137,5,78,42,4,

255,135,4,78,41,5,

255,135,4,78,41,4,

254,135,4,76,41,4,

252,134,4,76,41,4,

251,134,4,76,41,4,

271,134,4,76,39,5,

268,132,4,75,39,5,

267,132,5,75,39,5,

266,131,4,75,39,5,

265,131,5,75,39,5,

263,130,5,74,39,4,

261,130,5,73,39,4,

260,129,5,73,39,4,

259,128,4,73,39,4,

257,127,5,72,39,5,

255,127,5,71,39,4,

255,126,5,71,39,5,

253,127,5,71,39,4,

252,125,4,71,38,5,

250,125,4,71,38,5,

249,124,4,70,38,4,

248,124,5,70,38,5,

247,123,5,70,37,5,

246,123,5,69,37,5,

244,123,4,69,38,4,

243,122,5,69,37,5,

242,121,5,68,36,5,

241,121,5,68,37,5,

240,120,5,67,36,5,

238,120,5,68,36,5,

238,120,5,67,35,5,

236,119,5,67,36,5,

236,118,5,66,36,5,

234,117,5,67,35,5,

233,117,5,67,35,5,

231,116,5,67,35,4,

231,116,5,66,35,5,

229,115,5,66,34,5,

228,115,5,65,34,5,

227,114,5,66,34,5,

226,113,5,65,34,5,

225,113,5,65,33,4,

224,113,5,64,34,5,

223,112,5,65,33,6,

223,121,5,65,34,5,

221,120,4,63,33,6,

220,120,5,63,33,5,

220,119,5,63,33,5,

219,118,5,63,33,5,

217,118,4,62,32,5,

216,118,6,62,33,5,

215,117,4,62,33,5,

214,116,5,61,31,5,

213,131,5,61,32,5,

211,130,5,61,31,6,

211,129,5,61,57,5,

210,128,5,60,57,5,

209,127,5,61,58,6,

208,127,5,60,58,5,

207,127,5,59,57,5,

206,126,5,59,56,5,

205,125,5,59,57,4,

204,124,5,59,56,5,

204,124,6,59,56,6,

203,123,6,58,55,5,

202,122,5,57,55,5,

201,123,5,57,55,6,

199,121,5,62,56,5,

199,121,5,68,55,5,

198,120,5,68,55,5,

198,120,4,68,54,6,

196,120,5,67,53,4,

195,119,5,67,53,5,

194,118,5,66,53,5,

194,118,5,66,53,5,

193,117,5,66,53,5,

192,116,5,65,51,5,

191,115,5,65,52,5,

191,115,5,65,52,5,

190,114,5,64,51,4,

189,114,5,64,51,5,

187,113,5,63,51,5,

187,113,4,64,50,5,

186,112,5,63,50,5,

186,112,5,63,51,6,

184,111,4,62,50,5,

184,112,5,62,50,5,

183,110,5,61,50,5,

183,110,5,62,49,5,

182,109,5,61,50,6,

181,109,5,62,49,5,

179,109,5,61,51,5,

179,108,4,60,50,5,

178,108,5,61,50,5,

177,108,5,60,49,5,

176,107,5,60,49,5,

176,106,5,60,49,5,

176,105,5,60,48,5,

174,105,5,59,48,5,

174,105,5,58,48,5,

173,105,5,58,48,4,

172,103,5,59,48,5,

171,103,5,58,48,5,

171,103,5,57,48,6,

171,102,5,57,48,5,

169,102,5,57,48,5,

167,102,5,57,48,5,

167,101,5,56,47,5,

167,100,5,56,48,4,

167,101,5,56,46,5,

165,99,4,56,46,5,

165,99,4,56,46,5,

165,99,5,56,46,5,

163,99,5,56,45,4,

163,98,5,55,71,5,

163,98,5,55,69,5,

161,97,5,54,69,5,

161,97,5,54,68,5,

159,96,4,54,68,5,

159,96,5,54,67,5,

159,96,4,53,67,5,

158,95,5,53,67,5,

157,96,4,53,67,5,

157,95,5,53,66,5,

157,94,5,53,66,5,

156,94,4,52,66,5,

156,94,5,51,77,5,

155,94,5,51,77,5,

154,93,5,51,76,4,

154,92,4,51,76,5,

153,93,5,51,76,5,

152,92,4,51,75,5,

152,91,5,51,75,4,

151,90,5,51,73,4,

151,90,4,50,74,5,

150,90,5,50,74,5,

149,89,4,50,73,5,

148,89,4,49,73,4,

147,89,5,49,71,4,

148,89,4,50,71,4,

147,88,4,49,71,6,

146,88,3,49,71,4,

145,87,5,48,71,4,

145,87,5,49,71,4,

143,87,5,48,70,5,

144,86,4,48,70,4,

143,85,4,47,70,5,

143,85,4,47,70,4,

142,85,5,48,69,4,

142,84,5,47,68,4,

141,84,4,48,69,4,

141,83,5,47,67,4,

140,84,4,46,67,4,

139,83,4,46,67,5,

139,83,4,46,67,5,

138,83,4,46,66,5,

138,82,5,45,66,4,

137,82,4,46,66,4,

135,82,5,45,66,4,

135,81,4,45,66,4,

135,82,5,45,66,4,

135,80,4,45,65,5,

134,80,5,44,65,5,

134,79,4,44,63,5,

134,79,4,44,64,4,

133,79,4,45,69,5,

132,79,4,53,68,4,

132,79,3,53,68,4,

131,79,4,52,68,4,

131,78,4,53,67,4,

130,78,4,52,67,4,

129,78,4,52,67,4,

129,77,5,51,67,4,

129,77,4,52,66,4,

127,77,4,51,66,5,

127,77,4,51,65,4,

127,76,3,54,75,4,

127,76,4,53,75,4,

126,76,4,53,75,4,

126,76,4,53,74,3,

126,75,4,52,74,5,

126,75,4,52,73,4,

124,74,4,52,73,4,

124,75,4,52,73,4,

123,73,4,51,71,4,

123,73,3,51,71,4,

122,73,4,51,71,4,

122,73,4,51,71,5,

121,73,4,51,71,4,

121,71,4,51,74,4,

120,71,5,61,74,4,

120,71,4,61,73,4,

120,71,4,60,73,3,

119,71,4,60,71,5,

199,71,5,60,71,4,

214,70,4,59,71,3,

212,70,5,59,71,5,

211,69,4,58,71,5,

210,69,4,58,71,5,

209,69,4,58,70,4,

207,69,4,57,70,4,

207,68,4,58,70,4,

205,69,4,57,69,4,

205,67,4,57,69,5,

204,67,4,56,69,4,

202,67,3,56,68,4,

201,67,4,56,67,4,

201,67,4,56,67,3,

199,66,4,56,67,3,

199,66,5,56,67,4,

198,66,4,56,66,5,

197,66,5,55,66,4,

195,65,4,55,66,4,

195,66,5,55,66,4,

194,65,4,54,65,4,

193,65,3,54,65,4,

192,64,5,54,65,4,

192,65,4,54,64,3,

190,63,4,53,64,3,

189,63,5,53,63,3,

190,63,3,52,63,5,

188,63,4,53,63,4,

187,63,4,52,63,4,

186,63,4,52,63,4,

186,63,3,51,63,4,

184,62,5,52,63,4,

184,62,4,52,62,4,

183,62,4,51,62,4,

182,61,4,51,62,4,

182,61,5,51,61,5,

181,61,4,51,61,4,

179,61,4,50,61,4,

179,60,4,50,60,4,

179,60,5,50,60,4,

177,60,5,50,60,5,

176,60,5,49,59,4,

176,60,4,49,60,4,

176,59,4,49,60,4,

175,59,4,49,59,4,

174,59,5,64,58,5,

173,59,5,63,58,4,

172,58,4,63,57,5,

171,57,4,63,57,4,

171,58,4,62,57,4,

170,58,4,62,57,4,

169,57,4,61,57,4,

169,56,4,62,56,4,

167,56,4,61,57,3,

167,57,3,61,56,4,

166,56,4,61,56,4,

166,56,4,60,56,4,

165,58,3,61,55,4,

164,59,4,60,56,4,

163,57,4,60,56,4,

162,57,4,60,56,4,

162,57,4,59,55,4,

162,56,4,62,55,4,

161,56,5,88,54,3,

159,56,4,88,54,4,

159,56,3,87,54,4,

158,56,3,87,54,4,

158,55,4,86,71,3,

157,55,4,85,74,4,

156,55,4,85,73,4,

156,54,3,85,73,4,

156,54,4,83,73,4,

155,54,4,83,73,4,

154,53,3,83,71,3,

153,53,3,83,71,3,

152,54,4,82,71,3,

152,53,3,82,71,4,

152,53,3,81,71,4,

151,52,4,81,71,4,

150,52,5,81,70,4,

150,51,3,81,70,4,

149,52,4,80,124,3,

148,52,4,79,123,4,

147,52,4,79,121,5,

147,51,4,79,121,3,

146,51,4,78,120,4,

145,50,4,78,120,4,

145,51,5,78,118,3,

144,51,4,77,118,3,

143,51,3,77,117,3,

143,50,4,77,117,4,

143,49,3,76,115,3,

142,50,4,77,115,5,

141,49,3,76,115,4,

140,50,4,88,115,3,

140,49,5,101,114,4,

140,49,4,179,135,3,

139,48,3,177,135,3,

139,48,4,175,134,4,

137,48,3,174,132,4,

137,48,3,173,131,4,

135,47,3,172,131,5,

135,47,4,171,130,4,

135,48,4,170,129,3,

134,47,3,169,129,5,

133,47,3,167,128,3,

134,46,4,173,127,4,

133,46,3,174,127,3,

131,46,3,172,126,4,

131,46,4,171,125,4,

130,46,4,169,125,4,

131,45,4,169,124,4,

129,45,4,167,124,4,

129,45,3,167,123,4,

129,45,4,167,122,4,

127,44,3,166,123,3,

127,45,4,164,121,4,

126,52,4,164,120,3,

126,52,4,163,120,4,

125,51,4,162,120,3,

125,51,3,162,119,3,

124,51,4,161,118,3,

124,50,3,159,118,3,

123,50,3,159,117,4,

123,50,4,159,117,3,

122,50,4,157,116,4,

121,50,3,157,115,3,

121,49,4,156,115,3,

121,50,4,156,115,5,

120,50,4,155,114,4,

120,49,3,154,112,4,

120,49,4,153,112,4,

118,49,4,153,112,4,

117,48,3,152,112,4,

117,48,4,152,111,3,

116,48,3,151,111,3,

117,48,4,149,109,4,

115,48,3,149,110,5,

115,47,3,148,109,3,

115,48,4,147,108,3,

115,47,3,147,108,3,

114,47,3,147,108,3,

113,47,4,145,107,3,

112,46,3,145,107,3,

112,46,3,143,105,4,

112,46,3,143,105,3,

111,46,3,142,105,4,

111,45,4,142,103,3,

110,45,4,142,103,3,

110,45,3,141,103,3,

110,45,4,140,103,4,

109,45,3,140,102,5,

108,45,4,139,102,4,

109,44,3,137,101,3,

108,44,4,137,101,4,

107,44,4,137,100,4,

107,44,4,137,99,3,

106,44,3,135,99,3,

105,43,3,135,99,3,

105,43,3,134,99,5,

105,43,3,135,98,4,

105,42,4,133,97,4,

103,42,4,133,97,4,

103,42,4,132,97,3,

103,43,3,131,96,4,

103,41,4,131,96,3,

103,41,4,130,95,4,

102,41,4,130,95,4,

102,42,3,129,94,3,

101,41,4,129,94,4,

101,41,3,128,93,3,

101,39,4,128,93,4,

99,39,3,127,93,3,

99,41,3,127,92,4,

99,41,5,126,92,4,

99,39,4,125,92,3,

99,39,3,125,92,3,

99,39,3,125,91,3,

97,39,4,124,90,3,

97,39,3,124,91,4,

97,39,3,123,90,3,

96,39,4,123,89,3,

96,39,3,122,89,3,

96,38,4,121,89,4,

96,39,4,121,88,3,

95,39,3,121,88,3,

95,38,4,121,88,4,

94,38,4,120,87,3,

94,38,4,120,86,3,

93,38,4,119,87,4,

93,38,4,118,86,4,

93,37,3,117,86,3,

92,37,3,117,85,4,

92,36,4,116,85,4,

92,37,4,115,84,4,

92,37,4,115,84,3,

92,37,4,115,83,4,

91,35,4,115,84,4,

91,36,4,114,83,4,

90,36,4,114,83,4,

89,35,4,113,83,4,

89,35,5,113,82,3,

89,35,4,113,81,3,

89,35,3,112,81,4,

88,35,3,112,81,3,

88,35,3,111,81,3,

88,35,4,111,80,3,

88,34,3,110,79,3,

87,35,4,111,79,3,

87,34,3,109,79,4,

86,34,4,109,79,4,

86,34,4,108,78,4,

86,35,4,108,79,3,

85,34,3,108,78,3,

85,35,3,108,78,3,

85,35,4,107,78,4,

84,34,3,107,77,3,

84,34,4,106,77,4,

84,33,4,105,77,3,

83,34,4,105,76,4,

83,33,3,104,76,3,

83,34,4,105,75,3,

83,33,4,103,76,3,

82,33,3,103,75,4,

81,33,3,103,75,3,

81,32,4,103,75,4,

81,31,3,102,73,4,

81,32,5,102,73,3,

80,31,3,102,73,3,

79,31,4,101,73,4,

79,31,3,101,73,3,

79,31,4,100,71,3,

79,31,4,99,71,4,

79,31,4,99,71,3,

79,31,4,99,71,3,

78,31,4,99,71,4,

78,31,4,99,71,3,

78,31,4,97,70,3,

77,30,3,98,71,4,

78,31,3,98,70,3,

77,30,3,97,70,3,

76,31,3,97,70,3,

76,30,3,96,69,4,

77,30,4,96,69,3,

76,29,3,96,69,3,

76,30,3,96,69,4,

75,30,4,94,68,4,

75,30,4,94,68,4,

76,30,4,94,68,3,

75,30,4,94,67,4,

75,30,3,94,67,4,

74,30,3,94,67,3,

74,29,4,93,67,3,

74,29,4,92,66,3,

74,28,3,92,66,4,

73,29,3,92,66,3,

73,29,4,92,66,4,

73,29,3,92,65,3,

71,29,4,91,65,3,

73,28,4,90,65,3,

71,28,3,90,65,3,

71,28,3,90,64,3,

71,28,5,89,64,3,

71,28,3,89,63,3,

71,28,4,88,63,3,

71,28,3,88,63,4,

70,27,3,88,63,3,

70,27,4,88,63,5,

70,28,4,88,62,4,

70,27,3,88,63,4,

69,28,4,88,62,4,

70,27,4,87,62,4,

69,27,3,87,62,3,

69,27,4,86,61,3,

69,26,3,86,62,4,

68,26,3,86,61,4,

68,26,3,85,61,3,

68,26,3,85,60,4,

67,26,3,84,60,3,

67,26,3,85,60,4,

67,26,4,84,60,4,

67,27,4,83,59,3,

66,25,4,83,60,4,

66,25,3,83,59,3,

66,25,4,83,58,4,

66,25,5,83,59,4,

66,26,4,83,59,3,

65,25,4,82,57,3,

65,25,5,81,58,4,

65,25,3,81,59,3,

64,25,3,81,57,4,

65,25,4,81,57,3,

64,24,4,80,57,3,

64,25,3,79,57,3,

63,24,3,79,57,3,

63,25,4,79,56,4,

63,24,4,79,56,4,

63,24,4,79,56,3,

63,24,3,78,55,3,

62,25,4,78,56,3,

63,24,3,78,56,3,

62,24,3,77,55,3,

61,24,5,77,55,3,

62,23,3,78,54,3,

61,24,4,77,54,4,

62,24,3,77,54,4,

61,23,3,76,54,3,

61,23,3,76,54,4,

61,23,4,76,53,3,

60,23,3,76,53,4,

60,23,4,75,61,3,

60,23,4,75,60,4,

60,22,3,75,61,3,

60,22,4,74,60,4,

60,22,3,75,60,4,

59,22,3,73,59,3,

59,22,3,73,60,4,

59,22,4,73,59,3,

58,22,4,73,59,3,

59,22,3,73,59,3,

58,22,4,71,59,4,

58,21,3,71,59,4,

57,22,3,71,57,4,

57,21,4,71,57,3,

57,21,4,71,57,4,

57,21,3,71,56,3,

56,22,3,71,60,3,

56,21,3,71,60,3,

56,21,4,70,59,4,

56,21,4,70,58,3,

56,20,3,70,59,3,

56,21,3,69,58,3,

56,21,3,70,58,3,

55,20,4,69,57,4,

55,21,4,69,57,3,

54,21,4,69,57,4,

55,21,3,68,56,4,

54,21,4,68,57,4,

54,20,3,68,57,3,

54,20,3,67,56,4,

54,20,3,67,56,4,

53,20,5,67,60,3,

53,20,3,67,60,3,

53,20,4,66,59,4,

53,19,3,66,59,3,

53,19,3,66,58,3,

52,19,3,66,59,4,

53,19,4,65,59,3,

52,19,5,65,57,3,

52,19,3,65,57,3,

51,19,4,65,57,4,

51,19,4,65,56,5,

51,19,4,63,57,4,

51,19,3,64,56,3,

51,19,4,63,56,4,

51,19,3,63,56,3,

51,19,3,63,56,4,

51,18,3,63,55,3,

50,18,3,62,56,4,

50,19,3,63,55,4,

49,18,3,62,55,4,

50,17,3,62,54,3,

49,19,3,62,54,3,

49,18,3,62,54,3,

49,18,3,61,53,4,

48,18,3,61,55,3,

48,18,3,61,54,4,

48,17,3,61,54,4,

49,18,4,61,53,3,

48,18,3,60,54,4,

48,18,3,61,54,4,

47,18,4,60,53,4,

48,18,3,60,53,4,

47,17,3,60,52,3,

47,18,3,59,51,4,

47,16,3,59,52,4,

47,17,3,59,52,3,

46,17,4,59,52,3,

71,22,4,59,51,3,

71,21,3,59,51,4,

70,21,4,57,51,3,

70,21,3,58,51,4,

69,21,4,58,51,3,

69,21,3,57,50,4,

69,20,4,57,51,4,

69,21,4,57,50,3,

69,20,3,56,49,3,

67,20,3,57,50,4,

67,20,4,56,49,3,

67,20,4,56,49,3,

67,20,3,56,49,4,

67,19,3,56,49,4,

67,19,4,56,48,4,

66,19,3,56,48,3,

66,19,3,56,49,4,

66,19,4,55,48,3,

65,19,3,54,48,3,

65,19,3,54,48,4,

64,19,3,54,47,4,

64,19,4,53,48,3,

63,19,3,53,48,3,

63,19,4,54,46,3,

63,19,3,53,47,3,

63,18,3,53,46,3,

62,18,4,54,46,4,

63,18,3,53,46,4,

62,18,3,52,46,3,

61,19,4,51,45,3,

61,18,4,52,45,3,

61,18,4,52,45,3,

61,18,4,51,45,3,

61,19,4,51,45,4,

60,18,3,51,45,3,

60,17,3,51,44,3,

60,18,3,51,44,3,

60,18,3,51,44,3,

60,18,4,50,44,3,

60,17,3,51,44,4,

59,18,3,50,44,4,

59,18,4,50,44,4,

59,17,4,50,43,4,

58,17,4,49,44,3,

57,17,3,50,43,4,

57,17,4,49,43,3,

57,17,3,49,42,3,

57,17,3,48,42,4,

56,17,3,49,42,4,

57,17,3,49,41,3,

57,16,3,48,41,4,

57,16,3,48,42,4,

57,16,4,48,41,3,

56,16,3,48,41,3,

56,16,3,48,41,3,

55,16,4,47,41,3,

55,16,3,47,41,3,

54,19,3,48,41,3,

55,18,4,47,41,3,

54,18,3,47,39,4,

54,18,4,47,39,3,

54,18,3,47,39,3,

53,19,3,46,39,4,

53,18,4,46,39,4,

53,19,4,47,39,4,

53,31,3,46,39,4,

52,45,4,47,39,4,

53,46,3,46,39,4,

51,46,3,46,39,3,

52,45,3,46,39,4,

52,44,4,46,39,4,

51,44,3,45,38,4,

51,44,3,45,38,4,

51,44,3,45,39,3,

50,44,3,45,38,3,

50,43,3,44,38,4,

51,43,4,44,37,3,

50,43,3,45,38,3,

50,43,3,45,37,3,

49,45,3,46,39,4,

50,45,3,46,62,3,

49,44,3,45,61,3,

49,44,3,45,61,4,

49,44,3,45,61,4,

48,44,3,44,60,4,

48,44,3,44,60,3,

48,43,4,44,60,4,

48,43,3,44,59,3,

48,43,3,44,60,3,

48,42,4,43,60,3,

48,43,4,44,59,3,

47,43,4,43,59,3,

47,42,3,43,59,3,

47,42,4,43,58,3,

47,41,4,43,58,4,

46,41,4,43,57,4,

46,41,3,42,57,4,

46,40,4,43,57,4,

46,41,4,41,56,4,

45,41,3,41,56,3,

46,39,4,41,56,3,

46,39,4,41,56,3,

45,39,3,42,56,3,

45,39,4,41,56,4,

45,39,3,40,55,3,

45,39,3,41,54,3,

44,39,3,41,55,4,

44,39,3,41,54,3,

44,39,4,39,54,3,

44,38,3,39,54,3,

44,39,3,39,54,4,

43,38,3,39,54,3,

44,39,4,39,54,3,

43,38,4,39,53,3,

43,37,3,39,53,3,

43,37,4,69,53,3,

43,37,4,82,51,3,

43,38,4,81,52,4,

43,37,4,80,52,3,

42,37,3,80,51,4,

43,37,3,79,51,4,

42,36,3,79,51,3,

42,36,3,78,51,3,

41,36,3,79,50,4,

42,35,3,78,50,3,

42,36,3,78,50,3,

41,35,4,78,50,3,

41,35,4,78,50,3,

41,35,4,77,49,4,

41,35,3,76,50,4,

41,34,3,76,49,4,

40,34,4,75,49,4,

39,34,5,75,49,3,

39,35,4,75,49,4,

39,34,4,75,49,3,

39,34,3,75,48,3,

39,34,4,74,48,3,

39,33,3,75,48,3,

39,34,4,73,48,3,

39,33,5,73,48,3,

39,33,3,73,47,4,

39,34,3,71,47,4,

39,32,4,71,48,3,

38,32,3,71,47,3,

38,33,3,71,47,4,

39,32,3,71,46,3,

39,31,4,71,46,4,

38,31,3,71,46,3,

38,31,5,70,45,3,

38,31,3,70,45,3,

37,32,4,70,45,4,

38,32,4,69,45,4,

38,31,4,69,45,4,

37,31,3,69,45,3,

38,31,3,69,45,4,

37,31,3,68,44,4,

37,31,3,68,45,3,

37,30,3,67,45,3,

37,30,3,67,44,4,

36,31,4,67,44,4,

36,30,3,67,44,3,

36,30,3,66,44,4,

37,30,4,66,44,4,

35,29,4,66,43,3,

36,29,3,66,43,4,

36,30,3,66,42,4,

35,29,3,65,42,4,

35,29,3,65,43,4,

35,29,3,64,42,4,

35,29,3,65,43,4,

35,28,4,63,94,3,

35,29,4,63,94,4,

34,29,4,63,93,4,

35,35,4,63,92,4,

34,35,4,63,92,4,

35,39,3,63,91,4,

34,59,3,62,91,3,

34,57,3,62,90,3,

34,57,3,61,90,4,

34,57,3,62,89,3,

34,57,3,62,89,3,

34,56,3,61,89,4,

33,56,4,61,89,4,

33,56,3,60,88,3,

33,56,4,60,88,3,

33,56,3,60,87,4,

33,55,3,60,87,4,

33,56,3,60,87,3,

33,54,4,59,86,3,

33,54,3,59,86,3,

32,54,4,59,85,4,

32,54,3,58,85,4,

31,53,3,58,85,3,

31,54,3,57,84,4,

31,53,3,57,84,4,

31,53,4,57,83,3,

31,53,3,57,83,4,

31,52,4,57,84,3,

31,51,4,57,83,4,

31,51,4,57,83,3,

31,51,3,63,83,3,

31,51,3,63,82,3,

30,51,4,62,82,3,

31,51,4,62,81,4,

30,50,4,62,82,3,

30,50,4,62,82,3,

30,50,4,61,80,3,

30,50,3,61,79,4,

30,51,4,61,81,4,

30,49,3,60,80,3,

30,49,3,61,80,3,

30,49,3,60,79,3,

29,49,4,60,79,3,

29,49,3,59,79,3,

29,48,4,59,78,4,

29,48,3,59,78,3,

29,48,3,59,77,3,

29,48,3,59,77,3,

29,48,3,58,77,3,

28,47,4,57,77,3,

29,46,4,57,77,3,

28,46,3,57,76,4,

29,47,3,57,75,4,

29,46,3,57,133,4,

28,45,4,57,131,4,

28,46,4,56,130,3,

28,45,3,56,130,4,

28,45,4,56,129,4,

37,66,4,56,127,3,

38,79,4,56,127,3,

37,79,4,56,127,3,

38,78,3,55,126,4,

38,78,3,56,126,3,

37,78,3,55,125,4,

37,77,3,55,124,3,

37,76,3,54,124,4,

37,76,4,54,124,5,

37,76,3,54,123,3,

36,75,3,54,122,4,

37,75,4,54,121,3,

37,75,4,89,121,4,

36,74,3,90,120,3,

35,73,4,89,120,3,

35,73,3,89,119,3,

35,73,4,89,118,4,

35,73,4,88,118,3,

35,72,4,87,117,3,

35,71,3,88,117,3,

35,71,3,87,116,4,

34,71,3,86,115,3,

35,71,3,85,115,3,

34,71,4,85,115,3,

34,70,4,85,115,3,

34,70,3,84,114,3,

34,70,3,83,113,3,

33,69,4,83,113,4,

33,69,3,83,112,3,

33,68,3,83,112,4,

34,69,3,83,112,3,

33,68,3,82,111,4,

32,67,3,82,110,3,

32,67,3,81,110,3,

33,67,4,81,110,4,

32,67,4,81,109,3,

31,66,4,81,108,3,

32,67,3,79,108,5,

32,66,3,79,108,3,

31,66,4,79,107,4,

31,65,3,78,106,3,

31,65,3,78,106,4,

31,65,3,78,106,4,

30,64,3,78,106,4,

31,63,3,78,105,3,

31,64,3,77,103,3,

31,63,4,77,103,3,

31,63,3,76,103,3,

31,63,3,76,103,3,

30,63,3,76,102,3,

30,62,3,76,103,3,

30,62,3,75,101,4,

30,62,4,74,101,3,

30,61,3,74,101,3,

29,61,3,75,101,3,

29,61,4,73,101,3,

29,60,3,73,99,3,

29,60,3,73,99,4,

29,60,3,71,99,3,

29,60,3,73,99,4,

30,59,4,71,98,5,

29,59,4,71,97,4,

30,59,3,71,97,4,

29,58,3,71,96,4,

29,58,5,71,97,3,

30,57,3,71,96,4,

28,58,3,70,96,4,

29,57,3,71,95,3,

28,57,4,70,94,3,

28,57,3,70,94,4,

28,57,4,70,94,4,

29,57,3,69,93,4,

28,57,3,68,93,4,

28,56,4,69,93,3,

28,56,3,68,93,3,

28,56,4,68,92,3,

28,56,4,67,92,4,

27,56,3,67,91,4,

28,55,4,67,91,4,

28,55,3,66,90,4,

27,54,3,66,90,4,

27,54,3,66,89,3,

27,54,4,66,90,4,

26,54,3,66,89,3,

27,54,4,65,88,3,

26,53,3,65,89,4,

26,53,3,65,88,3,

27,53,4,64,88,3,

26,52,4,64,87,3,

26,53,3,63,87,4,

26,52,4,63,87,4,

25,51,3,63,86,3,

26,52,4,63,87,3,

26,51,4,63,86,4,

26,51,4,67,86,3,

25,50,3,82,86,4,

26,51,4,81,85,4,

25,51,3,81,84,3,

25,50,3,80,83,4,

25,50,5,80,83,3,

25,50,3,79,83,3,

25,49,3,79,83,4,

25,49,3,93,83,3,

25,49,3,93,83,3,

25,48,3,93,82,3,

24,49,3,91,81,3,

25,49,4,91,81,3,

24,49,3,91,81,3,

24,49,4,91,81,3,

24,48,3,90,79,4,

25,48,3,90,79,3,

24,47,4,89,80,3,

24,47,3,89,79,5,

24,47,3,89,79,3,

24,47,4,88,79,3,

24,47,3,88,79,3,

24,47,3,88,78,3,

24,46,4,87,78,3,

24,46,3,87,77,4,

24,45,3,86,78,3,

24,45,4,86,77,3,

24,46,3,85,76,4,

41,45,4,85,76,3,

43,45,4,85,76,3,

43,45,5,84,76,4,

46,45,3,85,76,3,

47,44,3,83,75,3,

47,44,3,83,75,4,

46,44,4,83,75,4,

46,44,3,83,74,4,

46,44,4,82,74,4,

45,43,3,82,73,4,

45,43,3,81,73,3,

45,44,3,80,73,3,

45,43,4,81,72,4,

45,44,4,81,85,4,

45,44,4,80,105,3,

45,44,4,80,105,3,

44,43,4,79,105,3,

44,43,3,78,103,3,

44,44,3,78,103,3,

44,43,3,79,103,3,

43,42,3,78,102,3,

43,42,4,78,102,3,

43,42,4,77,101,4,

43,42,3,78,101,4,

43,42,3,76,100,3,

42,41,3,76,99,3,

43,41,4,76,99,4,

43,42,4,93,99,3,

42,41,3,92,98,3,

42,40,3,92,98,3,

41,41,5,91,98,3,

41,41,3,91,97,3,

41,39,3,90,97,3,

41,39,4,89,97,4,

41,39,3,89,97,3,

40,39,3,89,96,4,

39,39,3,88,96,3,

39,39,4,88,95,3,

39,39,4,123,95,4,

39,39,3,122,95,3,

39,39,4,121,94,4,

39,39,3,120,93,4,

39,39,3,119,94,3,

39,38,3,119,93,4,

39,38,4,119,92,4,

39,38,3,117,91,4,

39,38,3,117,91,3,

39,37,4,116,91,4,

38,38,4,116,90,4,

38,38,3,115,90,4,

38,37,3,115,89,4,

38,37,3,114,89,3,

38,36,4,114,89,4,

37,37,3,113,88,3,

37,37,3,113,89,4,

37,37,5,112,88,3,

37,36,3,112,87,3,

61,36,3,111,86,3,

60,36,3,111,86,4,

60,36,3,110,86,4,

59,36,4,110,86,3,

58,35,3,112,85,3,

59,35,4,111,85,3,

57,35,3,110,84,3,

57,35,3,111,84,4,

57,35,4,109,83,3,

57,35,3,109,83,4,

56,34,5,109,83,3,

56,34,3,108,83,3,

56,34,4,108,82,3,

56,33,4,108,82,4,

56,34,4,107,81,3,

55,33,3,106,81,3,

54,33,3,105,81,4,

55,34,5,105,81,3,

55,33,3,105,79,3,

54,34,4,103,79,4,

54,33,4,103,79,3,

54,33,4,103,79,3,

53,33,4,103,79,4,

52,33,4,103,78,4,

52,33,4,102,78,4,

53,32,4,102,77,5,

53,33,3,101,77,3,

52,31,3,100,77,4,

51,32,3,100,76,3,

51,32,3,100,76,3,

51,32,4,110,77,3,

57,32,3,110,76,3,

60,33,3,109,76,4,

99,61,4,108,75,3,

98,84,3,108,75,3,

97,83,3,108,75,4,

97,83,4,107,74,4,

96,82,3,106,74,4,

96,82,3,107,73,4,

96,81,3,105,73,3,

94,81,4,105,73,3,

95,80,3,103,73,3,

94,80,3,103,71,3,

94,79,4,103,71,3,

93,79,3,103,71,4,

93,79,4,103,71,3,

92,79,4,103,71,4,

92,78,4,102,70,4,

91,78,4,102,70,3,

91,78,3,101,71,4,

91,77,3,100,70,3,

90,77,3,99,70,4,

89,76,3,100,70,3,

89,76,3,99,69,3,

88,76,3,99,69,3,

88,75,4,99,69,3,

88,75,4,98,69,4,

88,75,3,97,69,4,

87,75,3,97,68,4,

87,73,3,97,68,3,

86,74,3,96,67,4,

86,73,3,96,67,3,

85,73,3,96,67,3,

85,71,4,96,67,3,

85,71,5,96,67,4,

84,71,3,94,66,4,

84,71,3,95,65,3,

83,71,4,93,66,3,

83,71,3,94,66,3,

83,71,3,93,121,4,

82,70,3,93,119,3,

83,70,4,92,119,3,

82,69,4,92,117,3,

81,69,3,91,117,3,

81,69,4,91,116,4,

81,68,3,91,116,4,

80,69,4,90,115,3,

79,68,3,91,115,4,

79,67,4,89,114,4,

79,67,4,90,113,4,

79,67,3,89,114,4,

79,67,4,88,113,3,

78,67,3,89,115,4,

78,66,4,93,118,4,

78,66,3,92,118,3,

77,66,4,92,117,3,

77,66,4,92,117,3,

76,65,4,91,115,3,

76,65,3,91,115,4,

76,64,4,91,115,3,

76,64,4,90,114,3,

75,63,3,90,113,3,

74,63,3,89,113,3,

74,63,4,89,113,4,

74,63,3,88,113,3,

74,62,4,88,113,4,

73,62,3,88,112,4,

73,62,3,88,111,3,

72,61,3,88,111,4,

73,61,3,86,111,3,

71,61,4,86,109,4,

71,61,3,86,109,4,

71,61,3,85,109,3,

71,60,4,85,109,3,

71,60,3,85,108,4,

71,60,3,84,107,3,

70,59,4,84,107,3,

71,59,3,83,106,3,

69,59,3,88,105,3,

69,58,3,88,105,3,

69,58,4,87,105,3,

69,58,4,87,103,4,

68,57,3,86,103,3,

68,57,3,86,103,4,

67,57,4,89,103,4,

67,57,4,89,103,4,

67,56,3,89,102,4,

67,56,4,89,102,3,

66,56,3,88,101,4,

66,56,3,88,101,4,

66,56,3,88,100,3,

66,56,4,88,100,3,

66,56,5,87,99,3,

65,56,4,98,99,3,

65,54,4,97,98,4,

65,55,3,97,98,4,

64,54,4,96,97,4,

64,54,4,96,97,3,

63,54,4,95,96,5,

63,54,3,95,96,3,

63,53,3,94,96,4,

63,54,4,94,96,4,

62,53,4,94,96,4,

62,53,3,93,94,4,

63,53,4,93,94,4,

62,52,3,92,94,3,

61,52,4,92,93,4,

61,51,3,92,93,5,

61,51,4,91,93,3,

61,51,4,91,93,4,

60,51,3,90,92,4,

60,51,3,90,92,3,

60,51,3,89,91,4,

60,50,3,89,91,3,

60,50,3,89,91,3,

60,50,4,88,90,3,

59,49,4,88,89,3,

59,50,4,88,89,4,

60,50,3,88,89,4,

60,51,4,87,88,3,

60,50,4,86,89,4,

59,50,4,157,88,3,

59,50,3,176,88,3,

59,49,3,175,88,4,

59,49,3,173,87,3,

59,49,3,172,87,3,

58,49,3,172,86,3,

57,48,3,171,86,3,

57,48,4,169,86,4,

57,48,3,169,85,4,

57,48,3,167,85,4,

57,48,3,167,84,4,

56,48,3,166,85,3,

56,47,3,166,83,3,

56,46,4,166,83,4,

56,47,4,165,83,3,

56,47,4,163,83,4,

56,47,4,163,82,4,

55,46,4,162,81,3,

54,46,3,161,81,4,

54,46,4,160,81,3,

54,46,4,159,80,4,

55,45,3,159,79,4,

53,45,3,159,79,3,

54,48,4,158,79,3,

53,47,3,157,79,3,

53,47,3,156,79,3,

52,47,4,156,79,3,

52,47,3,155,78,4,

52,46,3,155,78,3,

53,46,3,153,77,4,

52,45,3,153,78,4,

51,46,3,152,77,3,

51,46,4,152,80,3,

51,45,4,152,79,4,

51,45,3,150,79,4,

50,45,4,150,79,3,

50,45,3,149,78,4,

51,44,4,148,78,3,

50,45,4,147,78,3,

50,44,3,147,77,4,

49,44,4,147,77,3,

50,43,3,146,77,4,

49,44,4,145,76,4,

51,44,3,145,76,3,

75,43,4,143,76,4,

73,42,3,143,76,3,

74,42,3,142,75,3,

73,42,3,142,75,4,

73,41,3,142,75,4,

72,43,4,141,74,3,

71,42,3,141,74,3,

71,41,3,140,74,3,

71,41,3,139,73,3,

71,41,4,139,73,4,

71,41,3,138,71,3,

71,41,3,137,73,3,

70,40,4,137,71,4,

70,39,3,135,71,3,

70,39,4,135,71,3,

69,39,3,135,71,4,

69,39,4,135,71,3,

69,39,3,135,70,3,

67,39,4,134,70,4,

68,39,3,133,70,3,

67,39,3,133,70,4,

67,39,3,132,69,3,

67,39,3,131,69,3,

67,39,3,131,68,4,

67,39,3,131,68,3,

66,38,3,129,68,4,

65,39,4,130,67,3,

65,38,4,129,67,3,

65,38,3,128,67,3,

65,37,3,127,67,4,

64,38,4,127,66,3,

63,37,4,126,66,4,

63,37,4,126,66,3,

63,36,3,126,66,3,

63,37,4,125,65,3,

63,37,4,125,65,3,

63,36,3,124,65,3,

62,36,3,123,66,4,

63,35,4,123,65,4,

61,36,4,123,65,4,

61,36,4,121,65,3,

61,35,4,121,65,4,

61,35,4,121,64,3,

60,35,4,120,63,3,

60,35,3,120,63,3,

60,34,3,120,63,4,

60,35,4,119,63,4,

60,35,3,119,63,4,

78,35,4,118,63,4,

81,34,4,118,63,3,

81,34,3,117,62,4,

79,33,4,117,62,4,

79,35,3,115,62,4,

78,33,3,116,61,3,

79,34,4,115,61,4,

78,33,3,115,61,3,

77,34,4,115,60,3,

77,34,3,114,60,4,

77,33,3,113,61,3,

77,33,3,113,60,3,

76,32,3,113,60,4,

76,32,4,112,59,4,

76,31,4,112,60,3,

76,33,3,111,59,3,

75,31,3,110,59,3,

75,31,4,110,58,3,

74,32,4,110,58,4,

74,31,3,109,57,3,

73,31,3,109,58,3,

73,31,3,108,58,4,

73,31,4,108,57,4,

73,31,4,108,57,3,

73,30,3,108,56,4,

71,31,3,107,56,4,

71,31,4,106,57,3,

71,31,3,106,56,4,

71,30,3,106,56,4,

71,30,3,105,56,3,

70,30,3,105,55,3,

70,30,3,103,55,4,

70,30,3,103,55,3,

69,30,3,103,55,3,

69,29,3,103,55,3,

68,29,4,102,54,3,

68,29,4,103,53,4,

67,30,4,102,54,4,

67,29,4,102,54,3,

67,29,3,101,53,3,

67,29,4,101,53,4,

66,29,3,100,53,4,

66,29,3,99,52,3,

66,28,4,99,53,3,

65,28,3,99,52,4,

66,28,3,99,52,4,

66,28,3,98,51,4,

65,28,4,98,51,4,

64,27,4,97,51,4,

65,27,4,97,51,4,

65,27,4,97,58,4,

63,27,4,97,71,4,

63,28,4,96,70,3,

63,27,4,96,71,3,

63,27,4,95,70,4,

62,27,4,96,70,4,

62,27,4,95,69,4,

63,27,4,94,68,3,

62,26,4,94,67,3,

61,26,4,94,67,3,

61,26,3,93,67,3,

61,27,3,93,67,3,

61,26,3,93,67,4,

60,27,4,92,67,4,

61,27,4,92,66,3,

60,26,3,92,66,3,

60,26,4,91,65,4,

59,27,3,91,66,3,

59,26,3,91,65,4,

59,25,3,91,65,3,

59,26,5,89,64,4,

59,25,4,90,65,4,

58,26,3,89,63,5,

58,25,3,89,63,4,

58,25,3,89,63,3,

57,25,5,89,63,4,

57,25,3,88,62,4,

57,25,4,88,69,4,

57,25,3,87,69,4,

57,24,3,87,68,3,

57,25,3,87,68,3,

57,25,4,86,67,4,

56,24,3,86,67,3,

56,24,3,85,67,4,

56,24,4,85,67,4,

55,24,3,85,66,3,

55,24,3,85,65,4,

54,24,3,84,65,3,

54,24,4,84,65,3,

55,24,3,84,64,3,

54,24,4,83,64,3,

54,25,4,83,65,4,

54,27,5,83,63,3,

53,27,3,82,63,4,

53,26,3,82,63,3,

53,27,3,82,63,3,

53,27,4,81,63,3,

53,26,4,81,63,3,

52,25,3,80,62,3,

51,26,3,81,62,3,

51,25,4,81,61,3,

51,25,3,81,61,3,

51,25,3,79,61,5,

51,26,3,79,61,3,

51,25,3,79,61,4,

51,25,3,79,60,3,

50,25,4,78,60,4,

50,24,3,78,60,4,

50,25,4,78,60,3,

49,25,4,77,59,4,

50,24,3,77,59,4,

49,25,4,77,59,3,

49,24,3,77,58,3,

49,24,4,77,58,4,

49,24,3,77,59,4,

48,24,4,75,57,3,

48,24,4,76,58,4,

48,24,4,76,58,4,

48,24,4,76,57,3,

48,24,3,75,57,4,

47,24,4,75,56,3,

48,24,3,74,56,3,

47,23,4,74,56,3,

47,22,3,74,56,3,

47,23,3,73,56,4,

47,22,3,73,56,3,

46,23,4,73,55,4,

46,23,3,73,55,4,

46,22,3,71,56,3,

46,33,4,71,59,3,

56,39,4,71,59,4,

56,38,4,71,58,4,

56,38,4,71,57,3,

56,38,3,71,57,5,

56,38,5,71,57,4,

55,38,4,71,57,4,

54,38,3,71,57,3,

54,37,4,70,57,3,

54,36,3,70,57,3,

54,37,3,70,57,3,

53,36,3,70,56,3,

54,36,4,69,56,3,

53,36,3,69,57,3,

53,36,4,69,96,3,

53,35,3,67,95,3,

52,35,4,68,95,3,

52,35,3,68,94,4,

51,35,3,68,94,3,

51,35,4,67,93,4,

51,34,4,67,92,4,

51,34,3,67,92,3,

51,35,3,66,92,4,

50,34,3,66,91,4,

50,34,3,66,91,3,

50,34,4,66,90,3,

50,34,3,66,89,4,

50,34,3,66,89,4,

49,33,3,65,89,3,

49,34,3,64,89,3,

49,33,4,64,89,4,

48,33,3,65,88,4,

48,33,3,64,88,3,

49,33,3,63,88,4,

48,31,3,63,87,4,

48,33,3,63,86,3,

47,32,3,63,86,3,

48,31,3,63,86,3,

48,31,3,63,86,3,

48,31,4,63,85,4,

47,31,4,62,84,3,

47,31,4,62,84,3,

49,31,4,62,85,4,

49,31,3,61,83,3,

48,31,4,62,83,3,

48,31,3,61,83,3,

48,31,4,61,82,3,

48,30,3,61,82,3,

47,30,4,61,82,3,

48,30,3,60,81,4,

48,30,3,60,81,3,

46,30,4,60,81,4,

46,30,3,60,81,3,

47,29,3,60,79,4,

47,29,3,59,79,4,

46,30,4,59,79,3,

45,30,4,59,79,4,

45,29,4,58,78,4,

46,29,3,59,78,3,

46,29,3,58,78,3,

45,28,3,57,77,4,

45,29,4,57,77,3,

44,28,3,57,77,3,

44,28,3,58,77,4,

45,28,3,57,77,4,

44,28,4,56,83,3,

44,28,4,57,83,3,

44,28,3,56,82,3,

44,28,4,56,83,3,

43,28,3,56,82,3,

43,27,4,56,81,3,

43,27,3,56,81,3,

43,27,4,56,81,3,

43,27,3,54,81,3,

42,27,4,55,79,3,

42,27,4,55,79,3,

42,27,3,55,79,4,

42,26,3,55,79,3,

41,26,4,54,78,5,

41,26,4,54,79,4,

41,26,3,54,78,4,

41,27,3,53,78,3,

41,26,4,53,77,3,

41,25,3,53,77,3,

41,25,4,53,77,3,

41,25,4,53,77,3,

39,25,4,52,76,3,

39,25,4,52,75,3,

39,25,3,51,75,3,

39,24,4,51,75,3,

39,25,3,51,75,4,

39,25,4,52,74,3,

39,24,4,51,74,3,

39,24,3,51,73,3,

39,24,3,51,73,3,

39,25,4,50,73,3,

39,24,3,51,73,3,

38,24,3,50,71,3,

39,24,5,50,73,3,

38,24,3,49,71,4,

38,24,4,50,71,5,

38,24,3,49,71,3,

38,24,3,50,71,4,

37,24,4,50,71,3,

37,23,4,49,70,4,

37,23,4,49,70,3,

37,23,4,48,70,4,

37,23,4,48,70,3,

36,23,3,48,69,4,

37,22,4,48,69,4,

37,23,4,48,69,3,

37,22,3,48,68,3,

36,23,3,48,68,3,

35,22,3,47,68,4,

36,22,4,47,67,3,

35,22,4,47,67,4,

35,22,3,47,67,4,

35,21,4,47,66,4,

35,21,3,46,66,3,

34,22,3,46,66,3,

35,22,3,46,66,3,

34,22,4,46,65,4,

35,21,4,46,65,3,

34,20,4,46,65,4,

34,21,3,46,64,3,

34,21,4,45,64,4,

35,21,3,45,63,4,

33,21,4,44,64,3,

34,21,4,45,63,3,

33,21,4,45,63,4,

33,20,3,91,63,3,

33,21,3,89,63,3,

33,20,4,89,62,4,

33,20,3,89,63,4,

33,20,3,88,62,3,

32,19,3,87,62,4,

32,20,3,87,61,3,

33,20,4,87,61,3,

31,19,3,86,61,3,

31,19,3,86,60,3,

32,19,4,86,60,4,

31,19,4,84,60,3,

31,19,3,84,60,3,

31,19,3,83,60,4,

31,19,4,83,59,3,

31,18,3,83,59,3,

31,19,3,82,59,3,

30,19,3,82,59,3,

31,19,4,82,58,3,

31,18,4,82,58,4,

31,18,3,81,58,4,

30,19,4,81,58,4,

31,18,3,81,57,4,

30,18,4,81,58,3,

30,18,4,80,57,3,

30,18,3,79,57,3,

30,18,4,79,56,3,

30,18,3,79,56,3,

29,18,3,78,56,4,

30,18,3,78,56,4,

30,34,5,85,56,3,

29,54,4,85,56,3,

29,54,4,84,56,4,

29,53,4,83,56,3,

29,53,3,83,55,3,

28,53,4,83,56,4,

28,53,3,82,54,4,

28,52,3,82,54,4,

28,51,3,82,54,4,

28,51,3,81,54,4,

28,51,3,81,56,3,

28,51,3,80,56,3,

28,51,5,80,56,3,

28,50,3,79,56,4,

28,50,4,79,56,3,

28,51,3,79,56,3,

27,50,4,79,56,4,

27,49,3,79,56,4,

27,49,3,78,55,4,

27,49,3,78,55,3,

27,48,3,77,54,3,

27,48,3,77,54,3,

26,48,3,77,53,3,

27,48,4,77,54,4,

28,48,4,77,54,3,

28,48,4,76,53,3,

28,48,4,76,53,3,

28,48,3,76,53,3,

27,47,3,75,53,3,

27,47,4,76,52,3,

27,46,3,75,53,4,

27,46,3,74,51,4,

27,46,3,73,51,3,

27,45,3,73,51,3,

26,45,3,73,50,3,

26,46,3,73,51,4,

26,45,4,72,50,4,

25,45,5,73,52,3,

25,45,3,71,52,4,

26,45,4,71,51,4,

26,44,3,71,51,4,

29,44,4,71,51,3,

28,44,4,71,50,4,

28,44,4,71,50,4,

28,44,3,70,50,3,

28,44,4,70,50,3,

28,43,3,70,50,3,

28,43,4,71,50,3,

27,43,3,70,49,3,

28,43,3,70,49,3,

28,42,3,70,49,3,

27,42,4,69,49,5,

26,42,3,69,49,4,

27,42,4,69,49,3,

27,41,3,68,48,4,

26,42,4,68,49,4,

27,41,4,68,48,3,

27,41,4,67,48,3,

26,41,3,67,48,3,

26,41,4,78,48,4,

26,41,4,89,48,3,

38,40,4,88,47,4,

54,39,4,88,47,3,

54,39,4,88,47,4,

53,39,4,87,46,3,

52,39,4,87,47,4,

52,39,3,87,47,4,

53,39,3,85,46,3,

53,39,3,86,46,3,

53,39,4,84,45,4,

53,38,4,85,46,3,

53,39,3,84,45,3,

52,38,3,83,45,3,

51,38,3,83,45,3,

52,38,4,83,45,4,

51,38,4,83,44,4,

51,38,3,83,65,3,

51,38,3,88,65,4,

50,37,4,87,65,4,

51,37,3,86,65,3,

50,37,4,86,65,3,

49,38,3,86,64,4,

49,36,4,86,63,4,

49,37,3,84,63,4,

49,36,3,85,63,4,

49,36,3,84,63,3,

48,35,3,83,62,3,

48,36,3,83,62,3,

49,35,3,83,70,3,

48,35,4,83,83,3,

48,35,4,82,83,3,

47,35,3,82,83,4,

47,35,4,81,81,3,

47,35,3,81,82,4,

47,34,4,81,81,4,

47,34,3,80,81,4,

46,34,4,79,80,4,

46,34,4,79,79,4,

46,34,3,79,79,4,

47,35,3,102,79,4,

46,34,4,113,79,3,

45,33,4,113,79,3,

45,34,3,112,78,3,

45,33,3,112,78,3,

45,33,3,111,78,4,

44,33,3,110,77,3,

45,32,4,110,77,4,

44,32,4,110,76,3,

44,32,3,109,76,4,

44,32,4,109,76,4,

44,32,4,108,76,4,

43,31,4,108,75,3,

43,32,4,107,74,4,

43,31,3,107,99,3,

43,31,4,107,100,3,

42,31,4,106,99,3,

42,31,3,105,99,3,

42,31,4,105,98,3,

43,31,4,103,98,4,

41,31,4,103,97,4,

42,31,4,103,96,3,

41,31,3,103,96,3,

41,30,3,102,96,3,

41,30,3,102,95,3,

40,30,4,102,96,4,

41,30,3,102,95,3,

40,30,3,129,126,4,

41,51,3,127,125,4,

39,51,3,162,124,5,

39,50,3,161,124,4,

39,49,3,159,123,4,

39,49,3,158,122,4,

39,49,4,158,121,3,

39,49,4,157,121,3,

38,48,4,156,121,3,

39,49,3,156,120,3,

38,48,3,154,119,3,