
17,15,1,89,44,1,

17,14,1,88,44,1,

17,14,1,88,44,1,

17,14,1,88,44,1,

16,14,1,88,44,1,

16,14,0,87,43,1,

17,14,1,87,43,1,

17,14,1,86,43,0,

16,14,1,86,43,0,

16,14,1,86,43,1,

16,14,1,85,42,0,

16,14,0,85,43,1,

16,14,1,84,42,1,

15,13,1,84,42,0,

15,13,0,83,41,0,

15,13,1,83,41,1,

15,14,1,83,41,1,

15,13,1,82,41,1,

15,13,1,82,41,1,

15,13,1,82,39,1,

16,13,1,82,41,1,

15,13,1,81,39,1,

16,13,0,81,39,1,

15,13,1,81,39,1,

15,13,1,79,39,1,

15,12,1,79,39,1,

15,13,1,79,39,0,

15,12,1,79,39,1,

15,12,1,78,39,1,

15,12,0,78,38,1,

15,13,1,78,38,0,

15,12,1,78,38,1,

25,12,1,78,39,1,

24,12,0,77,38,1,

25,12,1,77,38,1,

24,12,1,77,38,1,

24,12,0,76,37,0,

24,12,1,76,37,1,

24,12,1,76,37,1,

24,12,1,76,36,0,

24,12,1,75,36,0,

24,11,1,75,37,1,

24,12,1,74,36,0,

24,11,1,74,35,0,

24,11,0,73,35,0,

24,11,1,74,36,1,

24,11,1,73,35,0,

23,11,1,73,35,1,

23,11,1,73,35,1,

23,11,1,71,34,0,

23,11,1,71,35,0,

23,10,1,71,35,1,

22,11,1,71,34,0,

22,11,1,71,34,1,

22,11,1,71,34,0,

22,10,1,71,34,1,

22,10,1,70,34,0,

22,10,1,70,34,1,

22,10,0,70,33,1,

21,10,1,97,34,1,

21,11,1,97,33,1,

21,10,1,96,33,0,

21,10,1,96,33,1,

21,10,1,95,32,1,

21,10,1,95,32,0,

20,10,1,94,32,1,

20,10,1,94,32,1,

20,10,0,93,32,1,

20,10,1,93,31,0,

20,10,0,92,31,1,

19,10,1,92,31,1,

20,9,1,92,31,1,

20,10,1,91,31,1,

20,10,1,91,31,0,

20,9,1,91,31,1,

20,9,0,90,31,1,

20,9,0,89,31,1,

19,9,1,89,31,1,

19,9,1,89,30,0,

19,9,1,89,30,1,

19,9,1,88,30,1,

19,9,1,88,30,1,

19,9,0,88,30,1,

19,9,1,87,29,1,

19,9,0,92,30,1,

19,9,1,92,30,1,

19,9,1,92,30,1,

20,9,0,91,29,1,

19,9,1,91,29,0,

19,8,1,91,28,0,

19,9,1,91,29,1,

19,9,1,90,28,1,

19,8,1,89,28,0,

19,7,1,89,28,0,

19,8,1,89,28,1,

19,7,1,88,28,1,

19,7,1,88,28,0,

19,7,1,88,28,0,

19,7,1,88,28,1,

25,7,1,87,27,0,

26,7,0,87,27,1,

25,7,0,86,27,1,

25,7,1,86,28,1,

25,7,1,86,27,0,

25,7,0,85,27,1,

25,7,1,85,27,0,

25,7,0,84,26,0,

25,7,0,84,27,1,

24,7,0,84,26,1,

24,7,0,83,26,0,

24,7,1,83,26,1,

24,7,1,83,26,1,

24,7,0,82,25,1,

24,7,1,82,25,1,

24,7,1,82,26,0,

24,7,0,81,25,1,

24,7,1,81,25,1,

24,9,1,81,25,1,

24,7,1,79,25,1,

24,7,0,80,25,1,

24,7,0,79,25,0,

24,7,0,79,25,1,

23,7,1,79,25,0,

23,8,1,79,24,0,

23,7,1,78,24,0,

22,7,0,78,24,0,

23,7,1,78,24,0,

23,7,1,77,24,1,

22,7,1,77,24,1,

23,8,0,77,24,0,

23,10,0,76,24,0,

22,10,1,76,24,1,

23,9,0,76,23,0,

22,9,0,76,24,1,

22,9,1,75,23,0,

22,9,1,75,23,1,

22,9,0,75,23,1,

22,9,0,74,24,1,

21,9,1,74,22,0,

21,9,0,74,23,1,

21,9,0,73,23,1,

21,9,1,73,22,1,

21,9,0,73,22,1,

21,12,1,72,22,0,

21,14,0,71,22,0,

21,14,1,71,22,1,

20,14,1,71,22,1,

20,14,1,71,22,1,

20,14,0,71,22,0,

20,13,1,71,22,1,

20,13,0,70,22,0,

20,13,0,70,21,1,

19,13,0,70,21,0,

19,13,1,69,21,0,

19,13,0,69,21,1,

19,13,0,69,21,0,

19,13,1,69,21,0,

19,13,0,68,21,1,

19,13,1,69,21,1,

19,12,0,68,19,1,

19,12,0,68,20,0,

19,12,0,67,20,0,

19,12,0,67,19,0,

19,12,1,67,20,1,

19,12,1,66,19,1,

18,12,1,66,19,1,

18,12,1,69,19,1,

18,12,1,68,19,0,

18,12,0,68,19,1,

18,12,1,67,19,1,

18,11,1,67,19,0,

18,11,0,67,19,1,

18,12,1,67,19,1,

17,12,0,66,19,1,

18,11,0,66,19,1,

17,11,1,66,20,1,

17,12,0,65,19,0,

17,11,1,65,19,0,

17,11,0,65,20,1,

17,11,0,64,19,1,

17,11,1,64,19,1,

17,11,1,64,19,1,

17,11,1,63,19,1,

17,11,1,63,19,1,

17,11,1,63,19,1,

17,10,1,63,18,1,

17,11,1,63,19,1,

16,11,1,63,18,1,

17,10,0,62,18,0,

16,10,1,62,18,1,

16,11,1,62,18,1,

16,10,1,62,18,1,

29,10,1,61,18,1,

33,11,1,61,18,1,

33,11,0,61,18,1,

32,12,0,60,17,1,

32,13,1,60,18,1,

32,12,1,60,17,1,

31,12,1,60,17,1,

31,12,1,59,17,1,

31,12,1,59,17,1,

31,12,1,59,17,0,

31,12,1,59,17,1,

31,12,1,59,17,0,

30,12,1,58,16,1,

31,11,0,57,17,1,

30,12,1,57,17,1,

30,12,1,57,20,0,

30,13,1,57,50,1,

30,25,1,57,49,0,

30,26,0,57,48,0,

29,26,1,57,49,1,

29,25,0,56,49,1,

29,25,1,56,48,0,

29,25,1,56,48,1,

29,25,0,56,48,0,

29,25,0,55,47,1,

29,25,1,55,47,1,

28,25,1,56,46,1,

28,25,0,54,47,1,

28,24,1,55,46,0,

28,24,1,54,46,1,

28,24,1,54,46,1,

28,24,1,54,45,0,

28,37,1,53,45,1,

27,37,1,53,45,1,

27,36,1,53,45,0,

27,36,1,53,45,1,

27,35,1,53,44,1,

27,35,0,52,44,1,

26,35,1,53,44,0,

26,35,1,57,44,0,

27,35,0,57,44,1,

26,35,1,56,43,1,

26,35,1,56,43,1,

25,34,1,56,43,0,

26,34,1,56,43,1,

25,34,1,55,42,1,

26,34,1,55,42,0,

25,33,1,54,42,1,

25,33,1,55,42,0,

25,33,1,54,41,1,

25,33,1,54,41,1,

25,32,0,54,41,1,

25,33,0,53,41,1,

25,33,1,53,41,1,

24,32,1,53,41,1,

24,32,1,52,39,1,

24,31,1,53,39,1,

24,31,0,52,39,1,

24,31,1,52,39,1,

24,31,1,51,39,0,

24,31,1,51,39,0,

24,31,0,51,39,1,

24,31,1,51,39,1,

24,31,1,51,38,1,

24,31,1,50,39,1,

24,31,1,50,38,1,

25,30,1,50,38,1,

25,30,1,50,38,1,

25,30,1,50,38,0,

25,30,1,49,37,0,

25,29,1,49,38,1,

25,29,0,49,37,1,

25,29,1,49,37,0,

25,29,1,49,36,1,

24,29,0,48,37,1,

24,29,1,48,37,1,

25,29,0,48,35,1,

24,29,1,48,36,1,

24,29,1,48,36,1,

25,30,1,48,35,1,

25,30,1,48,83,1,

25,31,1,55,83,0,

25,39,1,54,81,1,

25,38,1,53,81,1,

25,38,1,53,81,1,

24,37,0,53,81,1,

24,38,1,53,79,1,

24,38,1,53,79,1,

24,37,0,51,79,1,

24,37,0,51,78,1,

24,36,1,51,78,1,

24,36,1,52,78,0,

24,37,1,51,77,1,

24,36,1,51,77,1,

23,36,1,51,77,1,

23,35,0,50,76,1,

23,35,0,50,76,1,

23,35,1,50,76,0,

23,35,1,50,75,0,

23,34,1,49,75,1,

23,35,1,49,75,1,

23,35,1,49,74,0,

22,34,1,49,74,1,

22,34,1,49,74,1,

23,34,1,48,73,1,

88,34,1,48,73,1,

96,34,1,48,71,1,

96,35,1,48,71,1,

95,35,0,48,71,1,

94,34,1,48,71,1,

94,39,1,47,71,0,

93,38,1,47,71,1,

93,39,0,47,71,1,

93,38,1,47,70,1,

92,38,1,46,70,1,

92,38,1,46,70,1,

91,38,1,46,70,0,

91,37,1,46,69,1,

91,37,1,52,69,1,

90,37,0,51,68,1,

89,37,1,51,67,0,

89,36,1,51,68,0,

89,36,1,51,68,1,

88,36,1,50,67,1,

88,35,0,50,66,0,

88,35,0,50,67,0,

88,35,0,49,66,1,

87,35,1,50,66,0,

86,35,1,49,66,1,

86,35,1,49,65,1,

85,35,1,55,65,0,

85,35,1,76,65,1,

85,34,1,75,64,1,

84,34,0,75,64,1,

84,39,1,75,63,1,

83,47,1,74,63,1,

83,46,1,73,63,1,

83,46,1,72,63,1,

82,46,1,73,63,1,

82,46,1,71,62,0,

81,45,1,71,62,1,

81,45,0,71,62,1,

81,45,1,71,62,1,

83,44,0,71,61,1,

82,44,1,71,61,1,

82,44,1,70,61,1,

81,44,1,70,61,1,

81,44,1,70,60,1,

80,43,1,69,60,0,

79,43,0,69,60,1,

79,43,1,69,59,1,

79,43,1,68,59,1,

79,42,1,68,59,1,

79,43,1,67,59,1,

79,42,1,67,58,1,

78,42,1,67,58,1,

78,41,1,67,58,1,

77,41,1,66,57,1,

77,42,1,67,57,0,

77,41,1,66,57,1,

76,41,1,65,59,1,

76,41,1,65,58,1,

76,41,1,65,57,0,

76,39,0,64,57,1,

75,39,1,64,57,1,

75,39,1,64,57,1,

75,39,0,63,57,1,

74,39,0,63,57,1,

74,39,1,63,56,0,

73,39,1,63,56,1,

73,39,1,63,56,1,

76,39,1,62,56,1,

76,39,1,62,55,1,

75,39,1,62,55,1,

75,39,1,62,54,0,

75,39,0,61,55,0,

74,39,1,61,54,1,

74,39,1,61,54,1,

73,39,1,61,53,1,

73,38,1,60,53,1,

73,38,1,61,53,1,

73,38,1,60,53,1,

71,38,1,60,53,1,

71,37,1,60,52,1,

71,37,1,59,52,0,

71,36,0,59,56,1,

71,38,0,59,57,1,

70,47,1,59,56,1,

70,48,1,58,56,1,

70,48,1,58,56,1,

70,48,1,57,56,1,

69,48,1,57,55,1,

69,48,1,57,55,0,

68,47,1,57,55,1,

68,46,1,57,55,1,

68,46,0,56,55,1,

68,46,1,56,73,1,

67,47,1,125,143,1,

67,46,1,123,141,1,

66,46,0,123,141,1,

66,46,1,122,140,1,

66,46,1,121,139,1,

66,45,0,121,138,1,

65,45,1,120,137,1,

65,45,1,120,135,1,

64,45,1,119,135,0,

64,44,1,118,135,1,

63,44,1,117,134,1,

63,44,1,117,134,1,

63,44,0,116,133,1,

63,43,1,115,132,1,

63,43,1,115,131,0,

63,46,1,114,131,1,

62,103,1,114,130,1,

62,102,1,113,130,1,

62,101,1,112,129,1,

61,100,1,112,128,0,

61,99,1,112,127,1,

61,99,0,111,127,1,

61,98,1,117,126,1,

62,98,1,122,126,1,

62,97,1,120,125,1,

61,97,1,121,125,1,

61,97,1,120,124,1,

61,96,1,119,123,1,

60,96,1,118,123,1,

60,95,1,118,122,1,

60,94,1,117,122,1,

59,94,1,117,121,1,

59,93,0,116,120,1,

59,93,0,115,120,1,

58,93,1,115,119,1,

58,92,1,114,119,1,

57,92,1,114,118,1,

57,91,1,113,118,1,

57,90,1,112,117,1,

57,90,1,112,116,1,

56,90,1,112,115,1,

56,89,0,111,115,1,

56,89,1,111,115,1,

56,88,1,110,115,1,

56,88,1,110,114,1,

59,88,1,109,113,1,

122,87,1,109,112,1,

121,86,1,108,113,1,

120,86,1,108,112,1,

119,135,1,107,111,1,

118,135,1,106,110,1,

117,134,0,106,110,1,

116,133,0,105,109,1,

115,131,0,105,109,1,

115,131,1,103,108,0,

114,130,1,103,108,1,

114,130,1,103,107,1,

113,129,1,102,107,1,

113,127,1,102,107,1,

112,127,1,101,105,1,

112,127,1,101,105,1,

111,126,1,100,103,1,

110,126,1,101,103,1,

110,125,1,99,103,1,

109,124,1,99,103,1,

108,123,1,99,102,1,

108,123,1,98,102,1,

109,123,1,97,102,1,

119,122,1,97,101,1,

118,121,0,97,100,1,

118,120,0,96,99,1,

117,120,1,96,99,1,

116,119,1,96,99,1,

115,119,1,95,98,1,

115,118,0,94,98,1,

114,117,1,94,98,1,

113,117,1,94,97,1,

113,117,1,93,97,1,

112,115,1,93,96,1,

112,115,1,92,96,1,

112,115,1,92,95,0,

111,114,1,91,95,1,

111,113,1,91,94,0,

110,113,1,91,94,1,

109,112,1,90,94,1,

108,112,1,90,93,1,

108,112,1,90,93,1,

108,111,1,89,92,1,

107,110,0,88,92,1,

107,110,1,88,92,1,

105,117,1,88,91,1,

106,117,1,87,90,1,

105,116,1,88,91,1,

105,115,1,87,90,1,

103,115,1,86,89,1,

103,114,1,86,89,1,

103,113,1,85,89,1,

103,112,1,85,88,1,

102,115,1,85,88,0,

102,145,1,84,88,1,

101,143,1,84,87,1,

100,143,1,83,87,1,

100,142,1,83,86,1,

99,141,1,83,86,1,

99,141,1,83,85,1,

99,140,1,82,135,1,

98,139,1,81,135,1,

98,138,1,81,134,1,

97,137,1,81,133,1,

97,137,1,81,132,1,

97,135,1,80,131,1,

96,135,1,79,131,1,

96,135,1,79,130,1,

95,134,0,79,129,1,

95,134,1,79,128,1,

94,133,1,79,127,1,

94,132,1,79,127,1,

93,131,1,79,127,1,

93,130,0,78,126,1,

93,130,1,77,126,1,

92,130,1,77,125,1,

92,129,1,76,124,1,

92,128,1,77,124,1,

91,127,1,76,123,1,

91,127,1,76,122,1,

90,126,1,76,121,1,

90,126,1,75,121,1,

89,138,1,75,120,1,

89,137,1,75,120,1,

89,137,1,73,119,1,

88,135,1,73,119,1,

88,135,1,73,118,1,

87,135,1,73,118,1,

87,134,1,73,117,1,

86,133,1,71,116,1,

86,132,1,71,116,1,

86,131,1,71,115,1,

85,131,1,71,114,0,

85,130,0,71,114,0,

84,129,1,71,113,1,

84,129,1,71,113,1,

83,151,1,70,112,1,

83,175,1,70,112,1,

83,174,0,69,112,1,

83,172,1,69,111,1,

82,172,0,69,111,1,

82,171,1,69,110,1,

81,170,1,68,109,1,

81,169,1,68,109,0,

83,167,1,67,108,1,

110,167,1,67,108,0,

109,166,1,67,107,1,

108,165,0,67,107,1,

107,164,1,66,106,0,

107,163,1,67,106,1,

107,163,1,66,105,1,

105,162,1,66,105,1,

105,161,1,65,105,1,

105,160,1,65,105,0,

103,159,1,64,103,0,

103,158,1,64,103,1,

103,158,1,63,103,1,

102,157,1,63,103,1,

102,156,1,63,103,1,

101,155,1,63,102,1,

101,155,1,63,101,1,

100,153,1,63,100,1,

99,153,0,62,100,1,

99,152,1,62,99,1,

99,152,1,62,99,0,

98,151,1,61,99,1,

98,150,1,61,99,0,

97,149,1,61,98,0,

97,149,1,60,97,0,

97,148,1,60,123,1,

96,153,0,60,129,1,

97,152,1,60,127,1,

96,152,1,59,126,1,

96,150,0,59,126,1,

95,150,1,59,125,1,

95,149,1,59,124,1,

95,148,1,58,124,1,

94,147,1,58,123,1,

94,147,1,58,122,1,

93,146,1,57,122,1,

93,145,0,57,121,1,

92,144,1,57,121,1,

92,156,0,57,120,1,

92,163,1,56,120,1,

91,162,1,56,119,1,

90,161,0,56,118,1,

89,161,1,56,117,1,

89,159,1,56,118,1,

89,159,1,55,116,1,

89,158,1,55,116,1,

89,157,1,55,117,1,

88,156,1,55,116,1,

88,156,0,55,116,1,

87,155,1,54,115,1,

86,154,1,54,115,0,

86,153,0,53,114,1,

86,153,1,54,113,1,

85,152,1,53,113,1,

85,151,0,52,112,1,

85,150,1,52,112,1,

84,150,1,52,111,1,

83,149,1,52,111,1,

83,148,1,52,110,0,

83,147,1,54,110,1,

82,147,1,54,109,1,

103,146,1,54,109,1,

132,145,1,54,108,1,

131,144,1,53,108,1,

130,146,1,53,107,0,

129,194,0,52,107,1,

129,193,0,52,106,1,

127,192,1,52,105,1,

127,191,1,51,105,1,

126,189,1,51,104,1,

125,188,1,70,103,1,

125,188,1,113,103,1,

124,187,1,112,103,1,

124,185,1,112,102,1,

123,184,1,111,102,1,

122,184,1,110,101,1,

121,182,1,109,101,1,

121,181,1,109,100,1,

120,180,1,108,100,1,

120,179,1,108,99,1,

119,178,1,107,99,1,

119,177,1,107,98,0,

118,176,1,106,98,1,

117,176,1,105,97,1,

117,175,1,105,97,1,

115,173,0,103,96,1,

115,173,0,103,96,1,

115,172,1,103,96,1,

114,171,1,102,95,1,

113,170,1,102,94,1,

113,169,1,102,94,0,

112,167,1,101,94,1,

112,167,1,101,93,0,

111,167,1,100,93,1,

110,166,1,100,93,1,

111,165,1,99,91,1,

110,164,1,99,125,1,

109,163,0,98,140,1,

108,162,1,97,139,1,

108,162,1,97,138,1,

108,161,0,96,137,1,

107,159,0,96,137,1,

140,159,0,96,135,0,

138,159,1,95,135,1,

137,158,1,95,134,1,

137,157,1,98,134,1,

135,156,1,101,133,1,

135,155,1,100,132,1,

134,155,1,99,131,1,

133,154,1,99,131,0,

133,153,1,98,146,1,

132,152,1,98,145,1,

131,152,0,97,143,1,

131,151,1,97,143,1,

130,150,1,96,143,1,

129,149,1,96,142,1,

129,149,1,95,141,1,

127,147,0,95,140,1,

127,147,1,94,140,1,

127,188,1,94,139,1,

126,186,1,94,138,1,

125,185,1,93,137,1,

125,184,1,93,135,1,

167,183,1,92,135,1,

173,182,1,92,135,1,

172,181,1,91,135,0,

171,179,0,91,133,1,

170,179,1,90,143,1,

169,179,1,90,143,1,

167,178,1,89,143,1,

167,177,1,89,142,1,

166,176,1,88,141,1,

165,175,1,88,141,1,

164,174,1,88,140,1,

163,173,1,88,139,1,

163,173,1,87,138,1,

161,172,1,86,138,1,

161,171,1,89,137,0,

159,171,0,123,135,1,

159,191,1,123,135,1,

158,189,1,121,135,1,

158,188,0,121,134,0,

156,187,1,120,133,0,

156,185,1,120,132,1,

155,184,1,119,131,1,

154,184,1,119,131,1,

186,183,1,117,130,1,

184,181,1,117,129,0,

183,180,1,116,128,1,

182,180,1,115,128,1,

181,179,1,115,127,1,

179,177,1,114,127,1,

179,177,1,115,126,1,

178,176,1,114,126,1,

176,175,0,113,125,1,

176,174,1,112,124,1,

175,173,1,112,124,1,

174,172,1,111,123,1,

173,172,1,111,122,1,

172,171,1,110,122,0,

171,169,1,110,121,0,

170,167,1,109,120,1,

194,201,1,108,142,1,

206,238,1,108,141,1,

204,236,1,107,140,1,

203,235,1,107,139,1,

201,233,1,105,138,1,

199,231,1,105,137,1,

199,230,1,105,136,1,

198,229,1,103,135,1,

196,227,1,103,135,1,

196,227,1,108,149,1,

194,225,1,108,148,1,

193,224,1,107,147,1,

193,223,1,106,146,1,

191,221,1,105,145,1,

190,220,1,105,144,1,

189,219,1,105,143,1,

188,218,1,103,143,1,

187,216,1,103,142,1,

186,216,1,103,141,1,

185,214,1,102,140,1,

184,213,1,102,140,1,

184,211,1,101,139,1,

182,211,1,101,138,1,

181,209,1,100,137,1,

180,208,1,100,135,1,

179,207,1,99,135,1,

178,206,1,99,135,1,

177,205,1,98,135,1,

176,204,1,123,134,1,

176,203,1,121,133,1,

175,202,1,122,133,1,

174,201,1,130,131,1,

173,199,1,129,131,1,

172,198,1,129,131,1,

171,198,1,128,129,1,

170,197,1,127,129,1,

169,195,2,127,128,1,

169,195,1,126,127,1,

167,193,1,125,127,1,

167,193,1,124,126,1,

166,192,1,124,125,1,

165,191,1,123,125,1,

165,190,0,122,124,1,

163,189,1,121,123,1,

163,188,1,121,123,1,

161,187,1,120,122,1,

161,185,1,120,121,1,

159,185,1,119,120,1,

159,184,1,119,121,1,

158,184,1,118,120,1,

158,183,1,117,120,2,

173,219,1,117,119,1,

173,217,1,116,118,1,

172,216,1,115,118,1,

170,214,1,115,117,1,

169,213,1,115,116,1,

167,211,2,114,116,1,

167,210,1,113,115,1,

166,209,1,113,114,1,

166,207,1,112,114,1,

164,207,1,112,113,1,

164,206,1,111,113,1,

163,205,2,111,112,1,

162,203,1,110,112,1,

161,202,1,109,111,1,

161,201,1,109,110,1,

159,199,1,108,110,1,

159,199,1,108,109,1,

158,198,2,107,109,1,

157,197,1,107,108,1,

156,195,2,106,108,1,

156,194,1,105,107,2,

155,194,1,105,107,1,

154,193,1,103,106,1,

153,192,1,103,105,2,

152,190,2,103,105,1,

152,190,2,103,103,2,

151,189,1,103,103,2,

150,188,1,102,103,2,

149,187,2,102,103,2,

148,185,2,101,102,1,

147,184,2,100,102,2,

147,184,2,100,102,1,

147,183,2,99,102,2,

146,181,2,99,101,2,

145,181,1,98,100,2,

144,180,2,98,99,2,

143,179,2,97,99,2,

143,178,2,97,99,1,

142,177,2,96,98,2,

142,176,2,96,98,2,

140,176,2,96,97,2,

140,175,2,95,97,1,

140,174,1,95,97,2,

139,174,2,94,96,1,

139,173,1,94,96,2,

138,171,2,94,95,1,

137,171,1,93,95,2,

137,171,2,92,94,1,

135,169,2,92,94,2,

135,169,2,92,94,2,

135,167,2,92,93,2,

134,167,2,91,93,2,

134,167,2,90,92,2,

133,166,2,90,92,2,

132,165,1,89,92,2,

132,165,2,90,91,1,

131,163,2,89,91,1,

130,163,2,89,90,1,

130,162,1,88,90,2,

130,161,2,88,90,1,

129,159,1,88,89,2,

129,159,1,87,88,2,

127,159,2,87,88,1,

127,159,1,86,88,1,

127,158,2,86,88,1,

127,157,2,86,88,1,

126,156,1,85,87,2,

125,155,1,85,86,2,

125,155,1,84,86,2,

124,155,1,84,85,2,

124,153,2,83,88,1,

123,153,1,83,88,2,

123,152,2,83,87,1,

122,152,1,82,87,2,

121,151,1,82,86,1,

121,150,1,81,86,1,

120,149,1,81,85,2,

120,149,1,81,85,1,

120,148,1,80,84,1,

119,175,2,80,83,1,

119,173,2,79,83,2,

118,173,2,80,83,1,

117,172,2,79,83,2,

117,171,1,79,83,1,

116,169,1,78,82,1,

116,169,1,78,82,2,

115,167,1,78,81,1,

115,167,1,78,81,1,

115,166,1,77,80,1,

113,166,1,77,80,1,

113,164,1,77,80,2,

113,163,1,76,79,1,

112,163,1,76,79,1,

112,162,1,75,79,1,

111,161,1,75,78,1,

111,160,1,75,78,1,

131,159,1,74,77,1,

131,159,1,74,77,1,

130,158,1,73,77,1,

129,158,1,73,77,1,

129,156,1,73,77,1,

128,156,1,71,76,1,

127,155,1,71,76,1,

127,154,1,71,75,2,

126,154,1,71,75,1,

126,153,1,71,74,1,

125,152,1,71,74,1,

124,152,1,71,75,1,

124,151,1,71,74,1,

123,150,2,70,73,1,

123,149,1,70,73,1,

122,149,1,70,73,1,

122,147,1,69,71,1,

126,147,2,68,71,2,

125,172,1,69,71,1,

124,237,1,69,71,1,

124,236,1,67,71,1,

124,233,1,68,71,1,

123,231,1,67,71,2,

122,231,1,67,70,1,

161,230,1,66,70,1,

159,228,1,66,69,1,

159,227,1,66,70,1,

158,226,1,66,69,1,

157,225,1,66,69,1,

156,224,1,65,68,1,

155,223,1,65,69,1,

155,221,1,65,68,2,

153,221,1,64,67,1,

153,219,1,63,67,1,

152,218,1,63,67,1,

152,217,1,63,67,1,

151,216,1,63,67,1,

150,216,1,63,66,1,

149,214,1,62,66,1,

149,213,1,62,66,1,

147,211,1,62,65,1,

147,211,1,63,65,1,

146,209,2,62,65,1,

145,208,1,62,64,1,

145,207,1,62,65,1,

143,207,1,61,63,1,

143,206,1,61,63,1,

143,205,1,61,63,1,

142,204,1,60,63,1,

141,203,1,60,63,1,

141,201,1,60,63,1,

140,199,1,60,62,1,

140,199,1,59,61,1,

139,199,1,59,62,2,

137,198,1,59,62,2,

137,197,1,58,61,1,

137,196,1,58,61,1,

135,195,1,58,61,1,

135,194,1,57,60,1,

135,193,1,57,60,1,

134,192,1,57,60,1,

134,192,1,57,60,1,

133,190,1,57,59,1,

133,190,1,56,59,1,

132,189,1,56,59,1,

131,188,1,56,58,1,

131,188,1,64,105,1,

130,187,1,65,103,1,

129,185,1,64,103,1,

129,185,1,63,103,1,

127,184,1,63,102,1,

127,183,1,63,101,1,

127,182,1,63,101,1,

126,181,1,62,100,1,

126,180,1,62,99,1,

125,179,1,61,99,1,

125,179,1,61,99,1,

124,178,1,61,98,1,

123,177,1,60,97,1,

123,176,1,60,97,1,

122,175,1,60,97,1,

121,174,1,60,96,1,

121,174,1,60,96,1,

121,173,1,59,95,1,

120,172,1,59,95,1,

120,171,1,59,94,1,

119,170,1,58,94,1,

119,169,1,58,93,1,

118,169,1,83,93,0,

118,167,1,83,93,1,

116,167,1,83,92,1,

116,166,1,82,92,1,

115,165,1,82,91,1,

115,165,1,81,90,1,

115,165,1,81,90,1,

114,163,1,80,90,1,

114,162,0,79,89,1,

113,162,1,79,89,1,

113,161,1,81,89,1,

112,160,1,81,88,1,

112,159,1,80,88,1,

111,159,1,80,88,1,

110,158,1,79,87,1,

110,158,1,79,86,1,

110,157,1,79,86,1,

109,156,1,78,86,1,

109,156,1,78,85,1,

108,155,1,77,85,1,

108,154,1,78,84,1,

107,153,1,77,83,1,

107,153,1,77,83,1,

107,152,1,76,83,1,

106,152,1,76,83,1,

105,151,1,76,82,1,

105,150,1,75,81,1,

103,150,1,75,81,0,

103,149,1,75,81,1,

103,148,1,73,80,1,

103,147,1,73,80,1,

103,146,1,73,79,1,

103,146,1,71,79,1,

102,146,1,71,79,1,

101,145,1,99,79,1,

101,144,1,109,78,1,

100,143,1,108,78,0,

100,142,1,108,78,1,

99,142,1,107,77,1,

99,141,1,107,77,1,

99,141,1,105,77,1,

99,141,1,105,76,1,

98,140,1,105,76,1,

97,140,1,104,76,1,

97,138,0,103,75,1,

96,138,1,103,75,0,

96,137,1,103,74,1,

96,137,1,102,74,1,

96,135,1,102,73,1,

95,135,0,101,73,1,

94,135,1,101,73,1,

94,134,1,101,71,1,

94,134,1,99,71,1,

94,133,1,99,71,1,

93,132,1,99,71,1,

99,132,1,98,71,1,

105,132,1,98,71,1,

105,131,1,97,71,0,

103,130,0,97,70,1,

103,130,1,97,70,1,

103,129,1,96,69,1,

102,129,1,95,69,1,

102,127,1,95,69,1,

102,127,1,94,68,1,

149,127,1,94,69,1,

162,127,1,94,68,1,

159,126,1,93,67,1,

159,125,1,93,67,1,

159,125,1,92,67,1,

158,124,1,93,67,1,

157,124,1,92,66,1,

156,124,1,91,66,1,

156,123,1,91,66,1,

155,122,1,90,65,1,

154,121,1,90,65,1,

153,121,1,89,64,1,

152,121,1,89,65,1,

152,120,1,88,63,0,

151,120,0,88,63,1,

150,119,1,88,63,1,

150,118,1,87,63,1,

148,118,0,88,63,1,

147,118,0,87,81,1,

147,118,1,86,81,0,

146,154,1,86,80,0,

146,152,1,85,80,1,

170,163,1,85,79,1,

167,161,1,85,79,1,

167,161,1,84,78,1,

167,159,0,83,78,0,

166,159,0,83,78,1,

165,158,0,83,77,1,

164,158,1,83,77,1,

163,157,1,82,76,1,

162,159,1,82,76,1,

161,159,1,82,76,0,

161,157,0,81,76,1,

159,157,1,80,75,1,

159,157,1,80,75,1,

158,155,1,79,88,1,

158,155,1,79,107,0,

157,153,1,79,105,1,

156,153,1,79,105,1,

155,152,1,79,103,1,

155,152,0,78,103,1,

153,150,1,82,103,1,

153,150,1,82,102,1,

152,149,1,81,102,1,

152,148,1,80,101,1,

151,147,1,80,101,0,

150,147,1,79,100,0,

149,146,1,79,99,1,

149,145,1,79,99,1,

147,145,1,79,98,0,

146,143,1,78,98,1,

146,143,1,78,97,1,

146,142,1,78,97,1,

145,142,1,77,97,1,

144,141,1,77,96,0,

143,141,1,76,96,0,

143,140,1,76,95,1,

142,139,1,76,95,1,

141,139,1,76,94,1,

141,137,1,76,94,1,

140,137,1,75,93,0,

139,136,1,74,93,1,

139,135,1,75,93,1,

138,135,1,73,92,1,

137,135,0,73,91,1,

137,134,0,113,91,1,

135,133,1,112,90,0,

135,133,1,111,90,1,

135,131,1,110,90,1,

134,131,1,110,89,0,

134,131,1,109,89,0,

133,137,0,108,89,1,

133,137,1,108,88,1,

131,135,1,108,88,1,

131,135,1,107,87,1,

131,135,1,107,86,1,

130,134,1,105,86,0,

129,133,1,105,86,1,

129,132,1,105,85,1,

127,132,1,103,85,1,

127,153,1,103,84,1,

127,152,1,103,83,0,

126,152,1,103,83,0,

126,150,0,102,83,1,

125,149,1,101,83,1,

124,149,0,101,82,1,

124,148,1,100,82,1,

124,147,1,99,81,1,

122,147,1,99,81,1,

121,146,1,99,80,1,

122,144,1,98,80,1,

121,144,1,98,79,1,

120,143,1,97,79,1,

120,143,1,97,79,1,

120,142,1,97,79,1,

119,141,1,96,78,1,

119,141,0,96,78,1,

118,140,1,96,77,0,

117,140,1,95,77,1,

116,139,1,95,77,1,

115,138,1,94,94,1,

115,137,1,93,140,1,

115,135,0,93,138,1,

114,135,1,92,137,1,

114,135,1,92,135,0,

113,135,1,92,135,0,

113,135,1,92,135,1,

112,133,1,91,134,0,

112,133,0,90,133,1,

112,132,1,90,132,0,

111,131,1,89,131,1,

188,131,1,89,131,1,

192,130,1,93,149,0,

190,129,0,93,149,1,

189,128,0,92,147,1,

188,127,1,92,147,1,

187,127,1,91,146,1,

186,127,0,91,144,1,

184,126,1,90,144,1,

184,125,0,90,143,1,

183,125,0,89,142,1,

182,124,1,89,142,0,

181,124,1,89,140,1,

179,123,0,88,140,1,

179,161,1,88,140,1,

178,159,1,88,139,1,

177,159,1,87,138,1,

176,158,1,86,137,0,

175,157,1,86,137,1,

174,156,1,85,135,0,

173,155,0,85,135,1,

172,155,1,85,134,1,

172,153,1,84,134,1,

171,153,1,83,133,0,

169,152,1,83,133,1,

169,151,1,83,132,1,

167,150,1,83,131,1,

167,150,1,82,131,1,

167,148,0,82,130,1,

166,147,0,81,129,1,

165,147,1,81,128,0,

164,146,1,80,127,1,

163,146,1,80,127,1,

162,145,1,79,127,1,

162,143,1,89,127,0,

161,143,1,88,125,0,

159,142,1,88,125,1,

159,142,1,88,124,1,

159,141,1,87,124,1,

158,141,1,87,123,1,

157,140,1,86,122,1,

156,139,1,85,122,1,

156,138,0,85,121,1,

155,138,1,85,121,1,

153,137,1,84,120,1,

153,135,1,83,120,1,

152,135,1,83,119,0,

152,135,1,83,118,0,

151,135,1,82,117,1,

150,134,1,82,117,0,

150,133,1,82,116,1,

149,132,1,81,116,0,

148,131,1,81,115,1,

147,131,1,80,115,1,

147,131,1,80,114,1,

146,129,1,79,113,1,

145,129,1,79,113,1,

144,128,1,79,142,1,

143,147,1,79,141,1,

143,227,1,78,140,1,

143,225,1,78,139,1,

142,224,1,77,139,1,

141,222,1,77,137,1,

140,221,1,77,137,0,

183,219,1,77,137,1,

182,218,1,76,135,1,

181,217,1,76,135,0,

179,216,1,75,135,1,

239,216,1,75,134,1,

276,215,0,74,133,1,

273,214,0,74,132,1,

271,213,1,73,131,1,

270,211,1,73,131,0,

268,210,1,73,130,0,

267,209,1,72,129,1,

265,207,0,71,129,1,

263,207,1,71,127,1,

263,206,1,71,127,1,

261,205,1,71,126,1,

259,204,1,71,126,0,

259,203,1,115,125,1,

257,201,0,141,127,1,

255,199,1,140,127,1,

253,199,1,139,126,1,

252,198,1,137,125,1,

251,198,1,137,124,0,

249,196,0,135,124,1,

248,195,1,135,123,0,

247,194,1,135,123,1,

245,193,1,134,122,1,

244,192,1,134,121,1,

243,192,1,133,121,1,

242,190,1,131,120,1,

240,190,1,131,120,0,

239,188,1,130,119,1,

238,187,1,130,118,1,

236,187,1,129,118,1,

235,185,1,128,117,1,

233,184,1,127,116,1,

231,184,1,127,115,1,

231,183,1,126,115,1,

230,182,1,126,114,1,

229,180,1,125,114,1,

227,179,1,125,114,0,

227,179,1,124,113,1,

225,177,0,123,112,1,

224,177,1,123,112,1,

223,176,1,122,111,1,

222,175,0,121,110,1,

221,174,1,121,110,1,

220,173,1,120,110,1,

219,172,1,120,109,1,

217,172,1,119,108,1,

216,172,1,118,108,1,

215,172,1,117,107,0,

214,171,0,117,107,1,

213,170,1,116,106,0,

211,169,1,116,106,1,

211,167,1,115,105,1,

209,167,0,114,105,1,

208,167,1,114,103,1,

207,166,1,114,103,1,

207,166,0,113,103,1,

206,164,1,113,103,1,

205,163,1,112,103,1,

204,163,1,112,102,1,

202,161,1,111,101,1,

201,161,1,110,101,1,

199,159,0,110,100,1,

199,159,1,109,100,1,

198,158,1,108,99,1,

198,158,1,108,99,1,

197,157,1,107,98,1,

196,156,1,107,97,1,

195,155,1,107,97,1,

194,155,1,106,97,1,

193,154,1,106,96,1,

192,153,1,105,96,1,

192,153,1,105,96,1,

190,152,1,103,94,1,

189,182,1,103,95,1,

188,186,1,103,94,2,

188,185,1,103,94,1,

187,184,1,102,94,1,

186,182,1,102,93,1,

185,182,1,101,92,1,

185,180,1,100,92,1,

184,179,1,100,92,1,

183,179,2,99,91,1,

182,177,1,99,91,1,

181,177,1,99,90,1,

180,176,1,99,90,1,

179,175,1,98,89,2,

178,174,1,97,89,1,

178,173,1,97,88,2,

177,172,1,112,88,1,

176,171,2,123,96,1,

175,171,1,122,96,1,

175,170,1,121,95,1,

174,169,1,120,94,1,

173,167,1,120,94,2,

172,167,1,119,94,1,

171,166,2,119,93,1,

171,166,1,118,92,2,

170,164,1,117,92,1,

169,163,1,117,92,1,

167,163,1,116,91,2,

167,162,1,115,91,2,

167,161,1,115,90,1,

166,159,2,114,90,1,

165,159,2,114,89,1,

164,159,1,113,89,2,

164,158,1,112,89,1,

163,157,1,112,88,2,

162,156,1,112,88,1,

161,156,2,111,87,1,

161,155,1,110,86,1,

159,154,1,109,86,1,

159,153,2,109,86,1,

158,152,1,109,86,1,

158,152,1,108,85,1,

157,152,1,108,84,1,

156,150,1,107,84,1,

156,149,1,106,84,2,

155,149,1,106,83,1,

154,148,1,106,83,1,

153,147,2,105,83,1,

153,147,1,103,82,1,

152,146,1,103,81,1,

152,145,1,103,81,1,

151,144,1,103,81,1,

150,144,1,102,81,1,

149,143,2,102,79,1,

149,143,1,101,79,1,

148,142,1,101,79,2,

147,141,1,101,79,1,

147,140,1,100,79,1,

146,140,1,99,78,1,

145,139,1,99,78,1,

145,138,1,98,78,1,

144,138,1,98,77,1,

143,138,1,97,77,1,

143,137,1,97,76,1,

142,135,1,97,76,1,

142,135,1,96,76,1,

141,135,1,96,76,1,

140,135,1,96,76,1,

140,134,1,95,75,1,

140,134,1,95,75,1,

141,133,1,94,74,1,

140,132,1,93,73,1,

139,131,1,94,73,1,

139,131,1,93,73,1,

138,131,1,93,73,1,

137,130,1,92,72,1,

137,129,1,92,71,1,

135,129,1,91,71,1,

135,128,1,91,71,1,

135,127,1,90,71,1,

134,127,1,90,71,1,

134,126,1,89,71,1,

134,126,1,89,70,1,

133,126,1,89,70,1,

132,125,1,89,70,1,

131,124,1,88,69,1,

131,124,0,88,69,1,

131,124,1,88,71,1,

130,123,1,87,70,1,

130,122,1,87,69,1,

129,121,1,87,69,1,

128,121,1,86,69,1,

127,120,1,85,69,1,

127,120,1,85,68,1,

127,120,0,84,67,1,

126,119,1,85,68,1,

126,118,1,84,68,1,

125,118,1,83,67,0,

124,117,1,86,68,0,

124,117,0,85,67,1,

124,116,1,85,67,1,

123,116,1,84,67,1,

123,115,1,83,66,1,

122,115,1,83,66,1,

122,114,1,83,66,1,

121,114,1,83,65,1,

121,114,1,82,65,0,

121,113,1,82,65,1,

120,113,1,82,65,1,

120,112,1,81,65,1,

120,112,1,81,63,0,

119,111,0,80,63,1,

118,111,1,79,63,1,

118,110,1,80,63,1,

117,110,1,79,62,1,

117,109,1,79,62,0,

116,109,1,78,62,1,

116,109,0,78,62,1,

115,108,1,78,62,1,

115,107,1,78,62,1,

114,107,1,77,61,1,

114,107,1,77,61,1,

113,107,1,78,61,1,

113,106,0,78,60,1,

112,105,1,77,60,1,

112,104,1,77,60,1,

112,103,1,76,60,1,

111,103,1,76,59,1,

111,103,0,76,59,1,

110,103,1,75,59,1,

110,103,1,76,58,1,

110,102,1,75,58,1,

109,102,1,75,57,1,

108,101,1,74,57,1,

108,101,0,74,57,1,

108,100,1,73,57,1,

107,100,1,73,57,1,

107,99,1,73,56,1,

106,99,0,71,57,0,

105,99,1,71,56,1,

105,98,1,71,56,1,

105,98,1,71,56,1,

105,97,0,71,56,1,

103,97,1,71,56,1,

103,134,1,71,55,1,

103,133,1,70,54,1,

103,131,1,70,54,1,

102,131,1,70,54,1,

103,130,1,70,54,1,

102,130,0,69,54,1,

101,129,0,69,54,1,

101,129,0,68,54,1,

100,127,1,68,53,1,

100,127,0,67,53,1,

99,126,1,67,52,0,

99,126,1,67,52,1,

101,125,0,67,52,1,

101,125,1,67,52,1,

100,127,1,67,51,1,

100,127,0,66,51,1,

99,126,1,66,51,1,

99,126,1,66,51,0,

98,125,1,65,50,1,

98,125,1,65,50,1,

97,124,1,65,51,1,

97,124,1,65,70,1,

97,123,1,63,70,0,

96,123,0,63,69,1,

96,121,1,68,69,1,

96,121,1,67,68,1,

96,120,1,67,68,1,

95,120,1,66,67,1,

95,120,1,66,67,1,

94,119,1,67,67,1,

94,118,1,66,67,1,

93,118,1,65,66,0,

93,117,1,66,66,1,

92,117,0,65,66,1,

92,116,1,64,65,1,

92,115,1,64,65,1,

91,115,1,64,65,1,

91,114,1,63,65,1,

91,114,0,63,64,0,

90,113,1,63,63,1,

90,113,1,63,63,0,

89,112,1,63,63,1,

89,112,0,62,63,1,

89,112,1,62,62,1,

89,112,1,62,62,0,

88,110,1,61,62,1,

88,110,1,61,61,0,

88,110,1,61,61,0,

87,109,1,61,62,1,

87,109,1,60,60,1,

86,108,1,60,60,1,

86,145,1,60,60,1,

86,156,1,60,60,0,

85,155,1,60,60,1,

115,153,1,59,59,1,

113,153,0,59,60,1,

113,152,1,59,59,0,

112,152,0,58,59,1,

112,151,1,58,58,1,

111,149,1,58,58,1,

110,149,1,57,57,1,

110,148,0,57,57,1,

109,147,1,57,57,1,

109,147,1,57,56,1,

108,189,1,56,57,0,

108,188,1,56,56,1,

107,186,1,56,56,1,

107,185,1,56,56,1,

106,184,1,56,55,1,

105,184,0,56,55,1,

105,182,1,56,54,1,

103,181,1,55,54,1,

115,180,1,55,54,0,

114,179,1,54,55,1,

113,179,1,54,54,1,

113,177,1,54,54,1,

112,177,1,53,53,1,

167,176,1,53,53,1,

196,175,1,53,53,1,

195,174,1,53,52,0,

193,174,1,52,52,0,

192,172,1,52,52,0,

191,171,1,52,51,0,

190,171,0,51,51,1,

189,169,1,51,51,1,

188,169,1,51,51,1,

187,167,1,51,51,1,

187,167,1,51,50,1,

185,167,1,50,50,1,

184,166,1,51,50,1,

184,165,1,50,50,0,

183,164,1,50,50,1,

182,163,1,50,49,1,

180,162,1,49,49,1,

179,161,1,49,48,0,

179,161,0,67,49,1,

178,159,1,67,49,1,

177,159,1,67,48,1,

176,159,1,67,48,1,

175,158,1,66,48,1,

175,157,1,66,48,1,

174,178,1,66,48,1,

173,177,1,65,47,0,

172,176,0,65,47,1,

171,175,1,65,47,1,

172,174,0,64,47,1,

173,173,1,63,46,1,

172,172,0,63,46,1,

171,172,1,63,45,1,

170,171,1,63,46,1,

169,169,1,63,65,1,

169,169,1,62,66,1,

237,243,1,62,65,1,

235,242,0,62,79,1,

233,241,1,62,79,1,

231,239,1,62,79,1,

230,238,1,61,78,1,

229,236,1,60,77,1,

228,235,1,60,77,1,

227,234,1,60,76,1,

225,231,1,59,76,1,

224,231,1,60,76,1,

223,230,1,59,75,1,

222,229,1,59,75,1,

221,227,1,59,74,1,

220,226,1,59,73,1,

219,226,1,57,73,1,

217,224,1,58,73,1,

216,223,1,57,73,1,

216,222,1,57,73,1,

214,221,1,57,71,1,

214,220,0,65,71,1,

212,219,1,65,71,1,

211,217,1,65,71,1,

210,216,1,64,71,1,

209,216,1,63,70,1,

207,215,1,63,70,1,

207,213,1,63,70,0,

206,212,1,63,69,1,

205,211,1,63,69,1,

204,210,0,62,68,1,

203,209,1,63,68,1,

202,207,1,63,67,0,

201,207,1,62,67,1,

199,206,1,62,67,0,

199,205,1,62,67,1,

198,204,1,62,66,1,

198,203,0,61,82,1,

196,202,1,61,81,0,

195,201,1,60,81,1,

195,199,1,60,80,1,

194,199,1,60,120,1,

193,198,1,60,118,0,

192,197,1,59,117,1,

191,196,1,59,117,0,

190,195,0,59,116,1,

189,195,1,58,115,1,

188,193,0,58,115,1,

187,192,1,57,114,1,

186,192,1,57,113,1,

185,191,1,57,113,1,

185,190,1,56,112,0,

184,189,1,57,112,1,

183,188,1,56,111,1,

182,187,1,56,111,1,

181,187,1,56,110,1,

180,185,0,55,109,1,

179,184,1,55,109,1,

178,184,1,55,108,1,

178,183,1,55,108,1,

177,182,1,54,107,1,

176,181,1,54,106,1,

176,179,1,54,106,1,

174,179,1,54,105,1,

174,179,1,53,105,1,

172,178,1,53,103,1,

172,177,1,52,103,1,

171,176,1,52,103,1,

170,175,1,52,103,1,

169,174,1,51,102,1,

167,173,1,51,102,1,

167,172,1,51,101,1,

167,172,1,51,101,0,

167,171,0,51,100,1,

165,170,1,50,99,1,

165,169,1,50,99,1,

164,167,1,50,99,1,

163,167,1,50,98,1,

163,167,1,51,98,1,

162,167,1,97,98,1,

161,166,1,96,97,1,

159,165,1,95,97,1,

159,164,0,94,96,1,

159,163,1,94,96,1,

158,163,1,94,95,1,

158,162,1,93,95,1,

157,161,1,93,94,1,

156,160,1,93,94,1,

156,159,1,92,93,1,

155,159,1,92,93,1,

154,158,1,92,92,1,

153,158,1,91,92,1,

153,157,1,91,92,1,

152,156,1,90,91,1,

152,155,1,90,91,1,

152,155,1,89,90,1,

151,153,1,89,89,1,

150,153,1,88,89,2,

150,153,1,88,88,1,

149,152,1,88,88,1,

148,152,1,87,88,1,

167,151,1,86,88,1,

166,150,2,86,88,1,

166,150,1,86,87,1,

165,150,1,86,87,1,

163,149,1,85,86,2,

163,148,1,85,86,1,

162,147,1,84,85,1,

161,147,1,83,84,1,

160,146,1,83,108,1,

159,146,1,83,108,1,

159,172,1,83,107,1,

158,246,1,82,107,1,

157,243,1,82,106,1,

156,241,1,81,105,1,

156,240,1,80,105,1,

155,239,2,80,103,1,

154,237,1,79,103,1,

153,235,1,79,103,1,

152,235,1,79,103,0,

152,233,1,78,102,1,

151,231,1,78,101,1,

150,230,1,78,101,1,

149,229,1,77,100,1,

149,228,1,77,99,1,

147,227,1,77,99,1,

147,225,1,77,99,1,

147,224,1,76,98,1,

146,223,1,76,98,1,

145,222,1,75,97,1,

145,221,1,75,97,1,

143,220,1,75,96,1,

143,219,1,74,96,1,

143,217,1,74,95,1,

142,216,1,73,95,1,

142,216,1,73,94,1,

141,215,1,109,94,0,

140,213,1,108,93,1,

140,211,1,107,93,1,

139,211,1,107,92,0,

138,210,1,106,92,1,

137,209,1,105,92,1,

137,207,1,105,91,1,

136,207,1,103,91,1,

135,206,1,103,90,1,

135,204,1,103,89,1,

135,204,1,103,89,1,

134,203,1,102,89,1,

134,202,1,106,88,1,

133,201,0,105,88,1,

133,199,1,105,88,1,

131,199,1,105,88,1,

131,198,1,103,86,1,

130,197,1,103,86,1,

130,195,1,103,86,1,

129,195,1,103,85,1,

129,194,1,102,85,1,

128,193,1,102,85,1,

127,192,1,101,84,1,

127,191,1,101,83,1,

126,190,1,100,83,1,

126,190,1,99,83,1,

125,189,1,99,83,1,

124,188,1,98,82,1,

124,187,1,98,82,0,

143,186,1,98,81,1,

143,185,1,97,81,1,

143,184,1,97,81,1,

142,184,1,96,80,1,

141,183,1,96,79,1,

140,182,1,96,79,1,

140,181,1,95,79,1,

139,180,1,95,79,1,

138,179,1,94,78,1,

138,178,1,94,78,1,

137,177,1,93,78,1,

135,177,1,92,77,1,

135,176,0,92,77,1,

135,175,1,92,77,1,

134,174,1,92,76,1,

134,174,1,91,76,1,

133,173,1,91,75,1,

131,172,0,90,75,1,

132,171,1,90,152,1,

131,171,1,89,241,1,

130,170,1,89,238,1,

130,167,1,88,236,1,

129,167,1,88,234,1,

128,167,1,88,233,0,

127,166,1,87,231,1,

127,166,1,87,230,1,

126,165,1,86,228,0,

126,163,0,85,227,1,

125,163,1,85,226,1,

124,162,1,85,225,1,

124,162,1,85,224,1,

123,161,1,84,223,1,

123,160,1,83,222,1,

123,159,1,83,220,1,

122,159,1,82,219,1,

121,158,1,83,218,1,

121,157,1,82,217,1,

120,157,1,81,216,1,

120,156,1,81,215,1,

120,155,1,80,213,1,

119,154,1,80,212,1,

118,153,1,79,211,1,

117,153,1,79,210,0,

117,152,1,79,209,1,

116,152,1,78,207,1,

115,151,1,78,207,1,

115,150,0,78,206,1,

115,149,1,77,204,0,

114,149,1,77,204,1,

114,147,1,77,203,1,

113,147,1,76,201,1,

112,148,1,76,199,1,

112,147,1,76,199,1,

112,147,1,75,199,0,

111,147,1,75,197,1,

110,146,1,75,197,1,

110,145,1,74,195,1,

110,144,1,74,195,1,

109,143,1,73,194,1,

109,143,1,73,193,1,

108,143,1,73,192,1,

108,142,0,71,191,1,

108,141,1,94,190,0,

107,140,0,94,189,1,

106,140,1,94,188,0,

106,139,0,92,187,0,

105,139,1,92,186,1,

105,137,1,91,185,1,

103,137,1,91,185,1,

103,135,1,91,184,1,

103,135,1,90,183,1,

103,135,0,89,182,1,

102,135,1,89,181,1,

102,134,1,89,180,1,

102,133,1,88,179,1,

102,133,1,88,179,1,

101,133,1,88,178,1,

155,132,1,87,177,1,

153,131,1,86,176,1,

152,131,1,86,175,1,

152,130,1,86,174,1,

151,129,1,86,174,0,

150,129,1,85,173,1,

149,128,1,84,172,1,

149,128,1,83,171,2,

147,147,0,83,170,1,

147,147,1,83,169,1,

146,146,1,83,167,0,

146,145,0,82,167,0,

144,144,1,82,167,1,

143,143,1,82,166,1,

143,143,1,81,166,1,

142,143,1,81,164,1,

142,141,1,80,164,1,

141,140,1,79,163,1,

140,140,1,79,162,1,

140,139,1,79,162,1,

139,139,1,79,161,1,

139,138,1,78,160,1,

137,137,0,78,159,1,

137,135,1,77,158,1,

