
19,24,0,69,25,0,

18,24,0,69,25,0,

18,24,0,69,24,0,

18,24,0,68,24,1,

19,24,0,67,24,0,

18,24,0,67,24,0,

18,24,0,67,24,0,

18,23,0,67,24,0,

17,23,0,67,24,0,

18,23,0,67,24,0,

17,23,0,66,24,0,

17,23,0,66,24,0,

17,23,0,65,24,0,

17,23,0,65,23,0,

17,22,0,65,23,0,

18,22,0,64,23,0,

18,22,0,64,23,0,

18,22,0,63,23,0,

18,22,0,63,23,0,

18,22,0,63,22,0,

17,22,0,63,22,0,

18,21,0,63,22,0,

17,22,0,62,22,0,

17,21,0,62,22,0,

17,21,0,62,22,0,

17,21,0,62,22,0,

17,21,1,61,22,0,

28,21,0,61,21,0,

29,21,0,61,21,0,

29,21,0,61,21,0,

28,21,0,60,21,0,

28,21,0,60,21,0,

28,21,0,60,21,0,

28,21,0,60,21,0,

28,20,0,59,21,0,

28,20,0,59,20,0,

27,20,0,59,20,0,

27,20,0,59,20,0,

27,20,0,58,20,0,

27,20,0,58,20,0,

31,20,0,58,20,0,

39,21,0,57,19,0,

39,21,0,57,19,0,

39,21,0,57,19,0,

39,21,0,57,19,0,

39,21,0,57,19,0,

38,21,0,56,19,0,

38,21,0,56,19,0,

38,20,0,56,19,0,

38,20,0,56,19,0,

37,20,0,56,19,0,

37,20,0,55,19,0,

37,20,0,55,19,0,

37,19,0,54,18,0,

37,19,0,54,18,0,

36,19,0,54,18,0,

36,19,0,54,19,0,

36,19,0,53,18,0,

35,19,0,53,18,0,

35,19,0,53,18,0,

35,19,0,53,18,0,

35,19,0,53,18,0,

35,19,0,52,17,0,

35,19,0,52,17,0,

34,19,0,52,17,0,

35,19,0,51,17,0,

34,19,0,51,17,0,

34,18,0,51,17,0,

34,18,0,51,17,0,

34,18,0,51,17,0,

34,18,0,51,36,0,

33,18,0,50,36,0,

33,18,0,50,36,0,

33,18,0,50,35,0,

33,17,1,49,35,0,

33,18,0,49,35,0,

32,17,0,49,35,0,

33,17,0,49,35,0,

32,19,0,49,35,0,

31,19,0,48,35,0,

31,19,0,48,34,0,

31,19,0,48,34,0,

31,19,0,48,34,0,

31,19,0,48,34,0,

31,19,0,48,33,0,

31,19,0,47,33,0,

31,19,0,47,33,0,

31,18,0,47,33,0,

31,18,0,46,33,0,

30,18,0,46,33,0,

30,18,0,46,32,0,

30,26,0,46,32,0,

31,39,0,46,32,0,

34,39,0,50,32,0,

34,39,0,49,31,0,

34,39,0,49,31,0,

34,39,0,49,31,0,

34,39,0,49,31,0,

34,38,0,48,31,0,

33,38,0,48,31,0,

33,38,0,48,31,0,

33,37,0,48,31,0,

33,37,0,48,30,0,

32,37,0,47,30,0,

32,37,0,47,30,0,

31,36,0,47,30,0,

32,37,0,47,30,0,

31,36,1,46,30,0,

31,36,0,46,30,0,

31,35,0,46,29,0,

31,35,0,46,30,0,

31,35,0,45,30,0,

31,35,0,46,30,0,

31,35,0,45,29,0,

31,35,0,45,29,0,

30,35,0,45,29,0,

30,34,0,45,29,0,

30,34,0,45,29,0,

30,34,0,46,29,0,

30,34,0,48,28,0,

30,34,0,47,28,0,

30,34,0,47,28,0,

30,33,0,47,28,0,

30,33,0,47,28,0,

30,33,0,46,28,0,

29,33,0,46,28,0,

29,33,0,46,28,0,

29,33,0,46,27,0,

29,32,0,45,27,0,

29,32,0,45,27,0,

29,32,0,45,27,0,

29,32,0,45,27,0,

28,31,0,45,27,0,

28,31,0,45,27,0,

28,31,0,45,26,0,

28,31,0,45,26,0,

28,31,0,44,26,0,

28,31,0,44,26,0,

28,31,0,44,29,0,

28,31,0,44,30,0,

28,31,0,43,30,0,

27,30,0,43,29,0,

27,30,0,43,29,0,

27,30,0,43,30,0,

27,30,0,43,29,0,

27,30,0,43,29,0,

27,30,0,42,29,0,

27,30,0,42,28,0,

27,29,0,42,28,0,

26,29,0,42,28,0,

26,29,0,41,28,0,

26,29,0,41,28,0,

26,29,0,41,28,0,

26,29,0,41,28,0,

25,28,0,41,28,0,

25,28,0,41,27,0,

25,28,0,41,27,0,

25,28,0,39,27,0,

25,28,0,39,27,1,

25,28,0,39,27,0,

24,28,0,39,27,0,

24,28,0,39,26,0,

24,28,0,39,26,0,

24,27,0,39,26,0,

24,27,0,39,26,0,

24,27,0,39,26,0,

24,27,0,39,25,0,

24,26,0,39,25,0,

24,26,0,38,25,0,

24,26,0,39,25,0,

23,26,0,39,25,1,

24,26,0,39,25,0,

24,26,0,39,25,0,

24,25,0,39,25,0,

24,26,0,38,25,0,

24,25,0,38,25,0,

24,25,0,38,24,0,

24,25,0,38,24,0,

23,25,0,38,24,0,

23,25,0,38,24,0,

23,25,0,37,24,0,

23,25,0,37,24,0,

22,25,0,37,24,0,

23,24,0,38,24,0,

22,25,0,38,24,0,

31,60,0,37,24,0,

31,60,0,37,23,0,

30,60,0,37,23,0,

30,59,0,37,23,0,

30,59,0,37,23,0,

30,59,0,37,23,0,

30,59,0,36,22,0,

30,58,0,36,22,0,

29,58,0,36,22,0,

29,57,0,36,22,0,

29,57,1,35,22,0,

29,57,0,35,22,0,

29,57,0,35,21,0,

29,56,0,35,22,0,

44,56,0,35,21,0,

43,56,0,35,21,0,

43,56,0,35,21,0,

42,56,0,34,21,0,

42,55,0,34,21,0,

42,55,0,34,21,0,

42,55,0,34,21,0,

41,54,0,34,21,0,

41,54,0,34,20,0,

41,54,0,34,20,0,

41,54,0,34,20,0,

41,53,0,34,20,0,

41,53,0,33,20,0,

41,53,0,33,20,0,

41,52,0,33,20,0,

39,52,0,33,19,0,

39,52,0,33,19,0,

39,51,0,33,19,0,

39,51,0,32,20,0,

39,51,0,32,20,0,

39,51,0,32,19,0,

39,50,0,32,20,0,

39,51,0,31,19,0,

39,50,0,31,19,0,

62,50,0,32,19,0,

62,50,0,31,19,0,

61,49,0,31,19,0,

61,49,0,31,19,0,

60,49,0,31,19,0,

60,49,0,31,19,0,

60,48,0,31,19,0,

60,48,1,31,19,0,

59,48,1,31,19,0,

59,48,0,31,19,0,

59,48,0,31,19,0,

59,48,0,30,18,0,

58,48,0,31,18,0,

58,47,0,30,18,0,

57,47,0,30,18,0,

57,46,0,30,18,0,

57,46,0,30,18,0,

57,46,0,30,18,0,

56,46,0,30,18,0,

56,45,0,30,17,0,

56,45,0,30,17,0,

56,45,0,29,17,0,

56,45,1,29,17,0,

56,45,0,29,17,0,

55,44,0,29,17,0,

55,44,1,29,17,0,

54,44,0,32,17,0,

54,44,0,33,17,0,

54,47,0,32,17,0,

53,47,0,32,17,0,

53,46,0,31,26,0,

53,46,0,31,25,0,

53,46,0,31,26,0,

53,45,0,31,25,0,

52,45,0,31,25,0,

52,45,0,31,25,1,

52,45,0,31,25,0,

51,44,0,31,25,0,

51,45,0,31,24,0,

51,44,0,31,24,0,

50,44,0,31,24,0,

51,44,0,31,24,0,

50,44,0,30,24,0,

50,44,0,30,24,0,

50,43,0,30,24,0,

49,43,0,30,27,0,

49,43,0,30,27,0,

49,43,0,30,27,0,

49,42,0,29,27,0,

49,42,0,29,26,0,

48,42,0,29,26,0,

48,42,0,29,26,0,

48,42,0,79,26,0,

48,41,0,80,25,0,

48,41,0,79,25,0,

47,41,0,79,25,0,

47,41,0,79,25,0,

47,41,0,78,25,0,

47,39,0,78,25,0,

46,39,0,77,25,0,

46,39,0,77,25,0,

46,39,0,77,25,0,

45,39,0,76,25,0,

45,39,0,76,24,0,

45,39,0,76,24,0,

45,39,0,75,24,0,

45,39,0,75,24,0,

44,39,0,74,24,0,

44,39,0,74,24,0,

44,38,0,73,24,0,

44,38,0,73,63,0,

44,38,0,73,64,0,

44,38,0,73,64,0,

43,37,0,71,63,0,

43,37,0,71,63,0,

43,37,0,71,63,0,

43,37,0,71,62,0,

42,37,0,71,62,0,

42,36,0,71,62,0,

42,36,0,71,62,0,

42,36,0,70,61,0,

42,36,0,70,61,0,

41,36,0,70,61,0,

41,36,0,69,60,0,

41,35,0,69,60,0,

41,35,0,68,60,0,

41,35,0,68,60,0,

39,35,0,68,59,1,

39,35,0,68,59,0,

39,35,0,67,59,0,

39,35,0,67,58,0,

39,35,0,67,58,0,

39,34,0,67,57,0,

39,34,0,66,57,0,

39,34,0,66,57,0,

39,34,0,66,57,0,

39,34,0,65,57,0,

38,33,0,65,57,0,

39,33,0,65,56,0,

38,33,0,65,56,0,

38,33,0,64,56,0,

38,33,0,63,55,0,

38,33,0,63,55,0,

37,32,0,63,55,0,

37,32,0,63,54,0,

37,32,0,63,54,0,

37,31,0,63,54,0,

37,31,0,62,54,0,

37,31,0,62,54,0,

36,31,0,62,54,0,

36,31,0,61,53,0,

36,31,0,61,53,0,

35,31,0,61,52,0,

35,31,0,61,52,0,

35,30,0,60,51,0,

35,30,0,60,51,0,

35,30,0,60,51,0,

35,30,0,60,51,0,

35,30,0,60,51,0,

35,30,0,59,51,0,

35,30,0,59,51,0,

35,29,0,59,50,0,

34,30,0,58,56,0,

34,29,0,58,60,0,

34,29,0,57,60,0,

34,29,0,57,60,0,

33,29,0,57,59,0,

33,29,0,57,59,0,

33,29,0,57,58,0,

33,28,0,57,58,0,

33,28,0,56,58,0,

33,28,0,56,57,0,

33,28,0,56,57,0,

32,28,0,56,57,0,

32,28,0,56,57,0,

32,28,0,55,56,0,

31,28,0,55,56,0,

31,28,0,55,56,0,

31,27,0,54,56,0,

31,27,0,54,56,0,

31,27,0,54,56,0,

31,27,0,54,56,0,

31,26,0,53,55,0,

31,26,0,53,54,0,

31,26,0,54,54,0,

30,26,0,53,54,0,

31,26,0,53,53,0,

30,26,0,52,54,0,

30,25,0,52,53,0,

30,25,0,52,53,0,

30,25,0,52,53,0,

30,25,0,51,52,0,

30,25,0,51,52,0,

29,25,0,51,51,0,

29,25,0,51,51,0,

29,25,0,51,51,0,

29,25,0,57,51,0,

29,25,0,60,51,0,

29,25,0,60,51,0,

30,24,0,60,50,0,

31,24,0,59,50,0,

31,24,0,59,50,0,

31,24,0,59,50,0,

31,24,0,59,49,0,

31,24,0,58,49,0,

31,24,0,58,49,0,

31,24,0,58,49,0,

31,24,0,57,48,0,

31,24,0,57,48,0,

31,24,0,57,48,0,

30,23,0,57,48,0,

30,22,0,56,48,0,

31,23,0,56,47,0,

34,23,0,56,47,0,

33,23,0,56,47,0,

33,22,0,56,47,0,

33,22,0,55,46,0,

32,22,0,55,46,0,

32,22,0,55,49,1,

32,22,0,54,49,0,

32,22,0,54,49,0,

31,22,0,54,48,0,

31,22,0,54,48,0,

31,21,0,53,48,0,

31,21,0,53,48,0,

31,21,0,53,48,0,

31,21,0,53,48,0,

31,21,0,52,47,0,

31,21,0,52,47,0,

31,21,0,52,47,0,

30,21,0,51,51,0,

30,21,0,51,50,0,

30,21,0,51,50,0,

30,20,0,51,49,0,

30,20,0,51,49,0,

30,20,0,50,49,0,

30,19,0,51,49,0,

29,19,0,51,49,0,

29,19,0,51,48,0,

29,20,0,51,48,0,

29,20,0,51,51,0,

29,19,0,50,51,0,

29,19,0,51,51,0,

28,19,0,50,51,0,

28,19,0,50,50,0,

28,19,0,49,50,0,

28,19,0,49,50,0,

28,19,0,49,50,0,

28,19,0,49,49,0,

28,19,0,49,49,0,

27,19,0,51,49,0,

27,19,0,51,49,0,

27,19,0,51,49,0,

27,18,0,51,48,0,

27,18,0,51,48,0,

26,18,0,51,48,0,

27,18,0,50,48,0,

26,18,0,50,48,0,

26,18,0,50,47,0,

26,18,0,50,47,0,

26,18,0,49,47,0,

26,17,0,49,46,0,

25,17,0,49,46,0,

25,17,0,51,46,0,

25,17,0,51,46,0,

25,17,0,50,45,0,

25,17,0,50,45,0,

25,17,0,50,45,0,

25,17,0,50,45,0,

25,17,0,49,45,0,

24,16,0,49,46,0,

24,17,0,49,46,0,

24,16,0,48,46,0,

24,16,0,49,45,0,

24,16,0,48,45,0,

24,16,0,48,45,0,

24,16,0,48,44,0,

35,17,0,48,44,0,

79,36,0,47,44,0,

79,36,0,48,44,0,

78,36,0,47,44,0,

78,35,0,47,44,0,

77,35,0,47,43,0,

77,35,0,46,43,0,

76,35,0,46,43,0,

76,35,0,46,43,0,

76,34,0,46,43,0,

75,34,0,45,42,0,

75,34,0,49,45,0,

75,34,0,111,48,0,

75,39,0,112,48,0,

74,39,0,111,47,0,

74,39,0,110,47,0,

73,38,0,110,47,0,

73,38,0,109,46,0,

72,38,0,108,46,0,

72,37,0,108,46,0,

71,37,0,108,46,0,

71,37,0,107,45,0,

71,37,0,107,45,0,

71,37,0,106,45,0,

71,37,0,105,45,0,

70,37,0,105,45,0,

70,36,0,104,44,1,

70,37,0,103,44,0,

69,36,0,103,44,0,

69,35,0,103,51,0,

69,35,0,103,66,0,

68,36,0,102,66,0,

67,35,0,101,65,0,

67,35,0,101,65,0,

67,35,0,100,64,0,

67,35,0,99,64,0,

66,35,0,99,64,0,

67,35,0,99,63,0,

66,34,0,99,63,0,

65,34,0,98,63,0,

65,34,0,98,63,0,

65,34,0,98,62,0,

65,33,0,97,62,1,

65,33,0,97,62,0,

64,33,0,96,62,0,

63,33,0,96,61,0,

63,33,0,96,61,0,

63,33,0,95,61,0,

63,33,0,95,61,0,

63,32,0,94,60,0,

63,32,0,94,60,0,

62,32,0,93,60,0,

62,31,0,93,59,0,

62,31,0,93,59,0,

62,31,0,92,58,0,

61,31,0,92,59,0,

61,31,0,91,58,0,

61,31,0,91,58,0,

60,31,0,91,61,0,

60,31,0,90,60,0,

60,31,0,90,60,0,

60,31,0,89,60,0,

60,31,0,89,59,0,

59,65,0,89,59,0,

59,65,0,89,59,0,

59,63,0,88,59,0,

58,63,0,88,58,0,

58,63,0,88,59,0,

57,63,0,87,65,0,

57,63,0,87,64,0,

57,62,0,86,64,0,

57,62,0,86,63,0,

57,62,0,86,63,0,

56,61,0,85,63,0,

56,61,0,85,63,0,

56,62,0,84,62,0,

56,62,0,84,62,0,

102,61,0,84,62,0,

106,61,0,83,61,0,

105,61,0,83,62,0,

105,60,0,83,68,0,

103,60,0,82,69,0,

103,60,0,82,69,0,

103,60,0,81,68,0,

103,60,0,81,68,0,

102,59,0,81,68,0,

101,59,0,80,67,0,

101,58,0,79,67,0,

100,58,0,79,67,0,

99,57,0,79,66,0,

99,57,0,79,66,0,

99,57,0,79,66,0,

99,57,0,78,65,0,

98,56,0,78,65,0,

97,56,0,78,65,0,

97,56,0,78,64,0,

97,56,0,77,64,0,

96,55,0,77,64,0,

96,56,0,76,63,0,

96,59,0,76,63,0,

95,81,0,76,63,0,

94,81,0,76,63,0,

94,81,0,75,63,0,

93,80,0,75,62,0,

94,79,0,75,62,0,

93,79,0,74,62,0,

92,79,0,74,62,0,

92,79,0,74,61,0,

92,78,0,73,61,0,

91,78,0,73,61,0,

91,78,0,73,60,0,

90,78,0,71,60,0,

90,77,0,71,60,0,

89,76,0,71,60,0,

89,76,0,71,59,0,

89,76,0,71,59,0,

89,90,0,71,59,0,

131,135,0,71,58,0,

130,135,0,70,58,0,

129,134,0,70,57,0,

129,133,0,70,57,0,

127,132,0,70,57,0,

127,132,1,69,57,0,

126,131,0,69,57,0,

126,130,0,68,57,0,

125,130,0,68,56,0,

124,129,0,92,56,0,

124,128,0,91,56,0,

123,127,0,91,56,0,

123,127,0,90,56,0,

122,126,0,89,55,0,

121,126,0,89,54,0,

121,125,0,88,54,0,

120,124,0,88,54,0,

120,124,0,88,54,0,

119,123,0,88,53,0,

119,122,0,87,53,1,

118,122,0,86,53,0,

117,121,0,86,53,0,

117,121,0,85,52,0,

116,120,0,85,51,0,

115,120,0,84,51,0,

115,120,0,84,124,0,

115,118,0,83,127,0,

114,118,0,83,126,0,

113,117,0,83,125,0,

113,116,0,82,124,0,

112,116,0,82,124,0,

112,115,0,82,123,0,

111,115,0,81,122,0,

110,114,0,81,121,0,

110,113,0,81,121,0,

109,113,0,79,121,0,

109,112,0,79,120,0,

108,112,0,79,119,0,

108,111,0,79,118,0,

107,111,0,78,118,0,

107,110,0,78,117,0,

106,109,0,77,116,0,

105,109,0,77,115,0,

105,108,0,76,115,0,

104,108,0,76,115,0,

103,108,0,79,114,0,

103,107,0,78,113,0,

103,107,0,78,113,0,

102,106,0,77,112,0,

102,105,0,77,112,0,

102,105,0,77,111,0,

101,103,0,76,110,0,

100,103,0,76,110,0,

99,103,0,76,110,0,

99,103,0,75,109,0,

99,102,0,75,109,0,

98,102,0,74,108,0,

98,101,0,74,107,0,

98,101,0,74,107,0,

97,101,0,73,107,0,

97,99,0,73,106,0,

96,99,0,73,105,0,

96,99,0,71,105,0,

96,99,0,71,103,0,

95,98,0,71,103,0,

95,98,0,71,103,0,

94,97,0,71,103,0,

94,97,0,71,103,0,

95,96,0,70,102,0,

94,96,0,70,102,0,

93,96,0,70,101,0,

93,95,1,69,101,0,

93,95,0,69,100,0,

92,94,0,69,100,0,

92,94,0,68,99,0,

91,94,0,68,99,0,

91,93,0,67,99,0,

91,93,0,67,98,0,

90,145,0,67,98,0,

89,144,0,78,97,0,

89,143,0,79,97,0,

89,143,0,96,96,0,

88,142,0,96,96,0,

88,141,0,95,96,0,

88,141,0,94,95,0,

88,140,0,94,95,0,

87,139,0,93,94,0,

87,138,0,93,95,0,

86,137,0,93,95,0,

86,137,0,92,94,1,

86,187,0,92,94,0,

85,185,0,91,93,0,

85,184,0,91,93,0,

84,183,0,90,92,0,

83,182,0,89,92,0,

83,181,0,89,92,0,

83,180,0,89,91,0,

83,179,0,89,91,0,

83,178,0,88,90,0,

82,177,0,88,89,0,

82,176,0,88,89,0,

82,176,0,87,89,0,

81,175,0,87,89,0,

81,174,0,86,88,0,

80,173,0,86,88,0,

79,172,0,86,88,0,

79,172,0,85,87,0,

79,171,0,85,87,0,

79,169,0,84,87,0,

78,169,0,83,86,0,

78,167,0,83,86,0,

78,167,0,83,85,0,

78,167,0,83,85,0,

77,166,0,83,84,0,

77,165,0,82,84,1,

76,164,0,81,83,0,

76,163,0,81,83,0,

76,163,0,81,83,0,

76,162,0,80,83,0,

75,161,0,79,83,1,

75,161,0,79,82,0,

75,159,0,79,81,0,

74,159,0,79,81,0,

74,158,0,79,81,0,

74,157,0,78,81,0,

73,157,0,78,81,0,

73,156,0,78,81,0,

73,156,0,77,79,0,

73,155,0,77,79,0,

72,154,0,77,79,0,

71,153,0,76,79,0,

71,153,0,76,79,0,

71,152,0,76,78,0,

71,152,0,75,78,0,

71,151,0,75,78,0,

71,150,0,74,77,0,

70,149,0,74,77,0,

70,148,0,73,77,0,

69,147,0,73,76,0,

69,147,0,73,76,0,

69,147,0,73,76,0,

69,146,0,85,76,0,

68,145,0,84,75,0,

68,145,0,84,75,0,

68,144,0,83,74,0,

67,143,0,83,74,1,

67,143,0,83,73,0,

67,142,0,83,73,0,

67,142,0,82,73,0,

66,141,1,82,71,0,

66,140,0,81,71,0,

66,140,0,81,71,0,

65,139,0,81,71,0,

65,139,0,80,71,0,

65,137,0,80,71,0,

65,137,0,79,71,0,

64,137,0,79,71,0,

64,135,0,79,70,0,

63,135,0,79,70,0,

63,135,0,78,69,0,

63,134,0,78,69,0,

63,134,0,78,69,0,

63,133,0,77,69,0,

62,133,0,77,68,1,

62,132,0,77,68,0,

62,131,0,76,68,0,

62,131,0,79,67,0,

61,131,0,78,67,0,

61,129,0,78,67,0,

61,129,0,78,67,0,

60,129,0,77,66,0,

60,127,0,77,66,0,

60,127,0,77,66,0,

60,127,0,76,65,0,

60,126,0,76,65,0,

59,126,0,76,65,0,

59,126,0,75,65,0,

59,125,0,75,64,0,

59,124,0,75,63,0,

58,124,0,74,63,0,

58,124,0,74,63,0,

103,123,0,73,101,0,

102,122,0,73,99,0,

101,122,0,73,99,0,

100,122,0,71,99,0,

100,121,0,71,98,0,

99,121,0,71,97,0,

99,126,0,71,97,0,

98,125,0,71,97,0,

98,125,0,71,96,0,

97,124,0,71,96,0,

97,124,0,71,95,0,

96,123,0,70,95,0,

96,123,0,69,94,0,

96,121,0,69,94,0,

95,121,0,69,94,0,

95,121,0,68,93,0,

94,120,0,68,92,0,

93,120,0,67,92,0,

93,120,0,67,92,0,

93,119,0,67,91,0,

92,118,0,67,91,0,

92,118,0,67,90,0,

92,117,0,67,90,0,

91,117,0,67,89,0,

91,116,0,67,89,0,

90,115,0,67,89,0,

89,115,0,67,88,0,

89,115,0,66,88,0,

89,114,0,66,88,0,

88,113,0,66,87,0,

88,113,0,66,87,0,

88,113,0,65,86,0,

88,112,0,65,85,0,

87,112,0,65,86,0,

87,111,0,64,85,0,

86,111,0,64,85,0,

86,110,0,63,84,0,

85,111,0,63,83,0,

85,111,0,63,83,0,

84,110,0,63,83,0,

84,110,0,63,83,0,

83,109,0,62,82,0,

83,109,0,62,82,0,

83,108,0,62,82,0,

83,108,0,62,81,0,

82,107,0,62,81,0,

81,107,0,61,80,0,

81,107,0,61,80,0,

81,188,0,61,79,0,

81,186,0,61,79,0,

79,185,0,60,79,0,

79,184,0,60,79,0,

79,183,0,60,79,0,

79,181,0,60,78,0,

79,181,0,59,78,0,

78,180,0,59,78,0,

78,205,0,59,77,0,

78,203,0,58,77,0,

77,201,0,58,76,0,

77,199,0,58,76,0,

77,199,0,58,76,0,

76,199,0,58,76,0,

76,197,0,57,75,0,

76,196,0,57,75,0,

75,195,0,57,74,0,

75,194,0,57,74,0,

75,193,0,56,74,0,

73,192,0,56,73,0,

74,192,0,56,73,0,

73,191,0,56,71,0,

73,190,0,56,71,0,

73,189,1,55,71,0,

71,188,0,55,71,0,

72,187,0,55,71,0,

71,186,0,55,71,0,

71,185,0,55,71,0,

71,184,0,54,70,0,

71,184,0,54,70,0,

71,183,0,54,70,0,

70,182,0,53,69,0,

70,181,0,53,69,0,

70,180,0,53,69,0,

69,179,0,52,69,0,

69,179,0,52,68,0,

69,177,0,52,67,0,

68,177,0,52,67,0,

86,176,0,51,67,0,

107,176,0,51,67,0,

107,174,0,51,66,0,

105,174,0,51,66,0,

105,173,0,51,66,0,

103,172,0,50,66,0,

103,171,0,50,65,0,

103,170,0,50,65,0,

103,169,0,50,65,0,

102,168,0,50,64,0,

102,167,0,49,63,0,

101,167,0,49,63,0,

127,166,0,49,63,0,

152,166,0,49,63,0,

150,165,0,48,63,0,

149,164,0,48,63,0,

148,163,0,48,70,0,

147,163,0,48,69,0,

147,162,0,48,68,0,

146,161,0,48,68,0,

145,184,0,47,67,0,

144,203,0,47,67,0,

143,203,0,47,67,0,

143,201,0,46,67,0,

142,199,0,46,66,0,

142,199,0,46,66,0,

141,199,0,46,66,0,

140,199,0,46,65,0,

140,198,0,46,65,0,

139,197,0,45,64,0,

138,196,0,45,64,0,

137,195,0,45,63,0,

135,194,0,45,63,0,

135,193,0,44,63,0,

135,192,0,44,63,0,

135,191,0,44,63,0,

134,190,0,44,62,0,

133,190,0,44,62,0,

132,188,0,43,62,0,

132,188,0,43,61,0,

131,187,0,43,61,0,

131,185,0,43,61,1,

130,185,0,42,60,0,

129,184,0,42,60,0,

129,183,0,42,60,0,

128,182,0,42,60,0,

127,181,0,56,60,0,

165,180,0,55,59,0,

163,179,0,55,59,0,

162,179,1,54,58,0,

161,177,0,54,58,0,

161,187,0,54,58,0,

159,185,0,53,58,0,

159,184,0,53,57,0,

158,184,0,53,57,0,

157,183,0,53,57,0,

156,182,0,54,57,0,

156,181,1,61,56,0,

155,180,0,61,56,0,

154,189,0,61,56,0,

153,224,0,60,56,0,

152,222,0,60,56,0,

152,220,0,60,55,0,

152,219,0,60,55,0,

150,217,0,59,54,0,

150,217,0,59,54,0,

149,216,1,59,54,0,

148,214,0,59,54,0,

147,214,0,58,54,0,

147,212,0,58,54,1,

146,211,0,57,53,0,

145,210,0,57,53,0,

144,209,0,57,53,0,

143,208,0,57,52,0,

143,221,0,57,52,0,

143,233,0,56,51,1,

142,231,0,56,51,0,

141,231,0,56,51,0,

140,230,1,56,51,1,

140,227,0,55,51,0,

139,227,0,55,50,0,

139,225,0,54,50,0,

138,224,0,58,50,0,

137,223,0,58,50,0,

137,222,0,57,49,0,

135,221,0,57,49,0,

135,219,0,57,49,0,

135,219,0,57,49,0,

134,217,1,56,49,1,

134,216,0,56,49,0,

133,216,1,56,48,0,

132,214,0,56,48,0,

131,213,0,55,48,1,

131,212,0,55,47,0,

131,211,1,55,48,0,

130,210,0,54,47,0,

129,209,0,54,47,0,

128,207,0,54,47,0,

127,207,0,54,61,1,

127,206,0,53,85,1,

127,205,0,53,84,0,

126,204,0,53,83,0,

125,203,1,52,83,0,

125,202,0,52,83,0,

124,201,1,52,82,0,

124,199,0,51,82,0,

124,199,0,51,81,0,

123,198,0,51,81,0,

122,197,0,51,80,1,

121,196,0,51,81,1,

121,195,0,51,79,1,

121,195,0,50,79,0,

120,193,0,50,79,1,

120,192,1,50,79,0,

119,192,1,50,78,0,

119,190,0,49,78,0,

118,190,1,49,77,0,

117,189,0,49,77,0,

117,188,1,49,77,1,

116,187,0,48,76,1,

115,186,0,48,76,0,

115,185,1,48,76,1,

115,185,1,48,75,0,

114,184,1,47,74,1,

114,183,1,47,74,0,

113,182,1,47,74,0,

113,181,0,47,73,0,

112,180,0,47,73,0,

111,179,1,46,73,0,

111,178,0,46,73,0,

111,178,0,46,71,1,

110,177,1,46,71,1,

109,176,1,45,71,0,

109,175,1,45,71,0,

109,175,0,45,71,1,

108,174,1,44,70,0,

108,173,0,45,70,0,

107,172,1,44,70,0,

107,172,0,44,69,1,

106,171,0,44,69,1,

105,170,0,44,68,0,

105,169,0,44,68,1,

105,167,1,43,68,1,

105,167,1,43,67,1,

105,167,0,43,67,1,

103,166,0,43,67,1,

103,165,0,42,67,1,

103,165,1,42,67,0,

103,163,1,42,66,1,

103,163,1,41,66,1,

102,162,1,41,65,0,

101,161,1,41,65,1,

101,161,0,41,65,0,

101,159,1,41,64,0,

99,159,1,41,64,0,

99,159,1,39,64,0,

99,158,0,39,63,0,

99,157,0,39,63,1,

98,157,1,39,63,1,

98,156,1,39,63,1,

97,156,0,39,62,0,

97,155,0,39,62,1,

97,153,0,39,62,0,

96,153,1,39,62,1,

96,153,0,39,61,0,

95,152,0,38,61,1,

95,152,0,38,61,0,

95,151,0,38,61,0,

94,150,0,38,60,0,

94,150,0,38,60,0,

93,149,0,38,59,0,

93,148,0,38,59,0,

93,147,0,38,59,0,

92,147,1,37,59,0,

92,146,1,37,58,0,

91,146,0,41,58,0,

91,145,1,61,58,0,

91,144,0,60,57,0,

90,143,0,60,57,0,

89,143,1,60,57,1,

89,143,0,60,57,1,

89,142,0,59,56,0,

89,142,1,59,56,1,

88,141,0,58,56,0,

88,140,0,58,56,0,

88,140,0,58,56,0,

88,140,1,58,56,1,

87,139,0,57,56,0,

86,142,0,57,55,0,

86,141,0,59,54,0,

86,140,1,58,54,0,

85,140,0,58,54,0,

85,139,0,58,53,0,

85,138,0,57,53,0,

84,137,1,57,53,0,

83,137,0,57,53,0,

83,137,0,57,52,0,

83,135,0,56,52,0,

83,135,0,56,52,0,

82,135,0,56,52,0,

82,134,1,70,51,0,

82,134,0,156,51,1,

81,133,1,153,51,0,

81,133,0,152,51,0,

80,132,0,152,50,0,

80,131,1,150,50,0,

79,131,0,149,50,0,

79,130,0,148,50,0,

79,130,0,147,50,0,

79,129,0,147,49,0,

79,128,0,146,49,0,

78,128,0,146,49,0,

78,127,0,145,48,0,

78,127,0,143,49,1,

77,127,0,143,48,0,

77,127,1,142,48,0,

77,126,0,142,48,0,

76,125,0,141,47,0,

76,124,0,141,47,0,

76,124,0,140,48,0,

75,124,0,139,47,0,

75,123,0,138,46,0,

74,123,0,137,46,0,

74,122,0,137,46,0,

74,121,0,137,46,0,

73,121,0,135,46,0,

73,120,0,135,45,0,

73,120,0,135,45,0,

71,120,0,134,45,0,

71,119,0,133,45,0,

71,119,0,133,45,0,

71,118,0,131,44,0,

71,117,0,131,44,0,

71,117,0,131,44,1,

70,116,0,131,44,0,

70,115,1,130,44,0,

70,115,0,129,43,0,

70,115,0,129,43,0,

69,115,0,127,43,1,

69,114,0,127,42,0,

69,113,0,127,43,0,

68,113,0,126,42,0,

68,112,1,126,42,0,

67,112,0,125,42,0,

67,112,0,125,42,0,

67,111,0,124,41,0,

67,111,0,123,41,0,

67,110,0,123,41,0,

66,109,0,122,41,0,

66,109,0,121,41,0,

66,109,0,121,41,0,

66,108,0,120,59,0,

65,108,0,120,58,0,

65,107,0,120,58,0,

65,107,0,119,57,0,

64,106,0,118,57,0,

63,106,0,118,57,0,

63,105,1,117,57,0,

63,105,0,117,57,0,

63,105,0,116,56,0,

63,103,0,115,56,0,

63,103,0,115,56,0,

62,103,0,115,55,0,

62,103,0,114,55,0,

62,102,0,114,55,0,

62,102,0,113,54,0,

61,101,0,113,54,0,

61,101,0,112,54,0,

60,101,0,112,53,0,

60,99,0,111,53,0,

60,99,0,111,53,0,

60,102,0,110,52,0,

60,121,0,110,52,0,

60,137,0,109,52,0,

59,135,0,109,51,0,

59,135,0,108,51,0,

92,135,0,108,51,0,

92,134,0,108,51,0,

91,133,0,107,51,0,

90,133,0,107,50,0,

90,132,0,106,50,0,

89,131,0,105,50,0,

89,131,0,105,50,0,

88,130,0,103,49,0,

88,129,0,103,49,0,

88,129,0,103,49,0,

87,128,0,103,48,0,

86,127,0,103,48,0,

86,127,0,103,48,0,

86,126,0,102,48,0,

85,125,0,101,52,0,

85,125,0,101,51,0,

84,124,0,100,51,0,

84,124,0,100,51,0,

83,123,0,99,51,0,

83,122,0,99,51,0,

83,122,0,99,50,0,

82,121,0,98,50,0,

82,121,0,98,51,0,

81,120,0,97,50,0,

81,120,0,97,50,0,

81,119,0,97,50,0,

81,119,0,96,49,0,

80,118,0,96,49,0,

79,117,0,96,49,0,

79,117,0,96,49,0,

79,124,0,94,48,0,

79,124,0,95,48,0,

78,123,0,94,48,0,

78,122,0,94,48,0,

77,121,0,93,48,0,

77,121,0,93,47,0,

77,121,0,93,47,0,

76,120,0,92,47,0,

76,120,0,91,46,0,

76,119,0,91,46,0,

75,118,0,91,46,0,

75,118,0,91,46,0,

75,117,0,90,45,0,

74,116,0,89,46,0,

74,115,0,89,45,0,

73,115,0,89,45,0,

73,115,0,88,44,0,

73,115,0,88,45,0,

84,114,0,88,44,0,

83,113,0,88,44,0,

88,113,0,88,44,0,

88,113,0,87,43,0,

88,112,0,86,43,0,

87,111,0,86,43,0,

87,111,0,86,43,0,

86,111,0,89,43,0,

86,167,0,89,43,0,

85,176,0,89,42,0,

85,175,0,88,42,0,

142,174,0,88,42,0,

140,173,0,88,41,0,

139,172,0,87,41,0,

138,171,0,87,41,0,

137,170,0,86,41,0,

136,169,0,86,41,0,

135,167,0,86,41,0,

135,167,0,85,40,0,

134,167,0,85,39,0,

134,166,0,84,39,0,

133,165,0,84,39,0,

132,164,0,104,39,0,

131,163,0,103,39,0,

131,163,0,103,39,0,

130,162,0,102,39,0,

129,161,0,102,39,0,

129,159,0,101,38,0,

127,159,0,101,38,1,

127,158,0,100,38,0,

126,158,0,99,38,0,

126,157,0,99,38,0,

126,156,0,99,37,0,

125,156,0,98,37,0,

124,155,0,98,37,0,

124,154,0,97,37,0,

123,153,0,97,37,0,

123,152,0,96,36,0,

122,152,0,96,37,0,

121,152,0,96,36,0,

121,150,0,95,36,0,

120,150,0,94,36,0,

120,149,0,94,35,0,

120,148,0,94,35,0,

119,147,0,93,35,0,

118,147,0,93,35,0,

117,146,0,92,35,0,

117,145,0,92,50,0,

116,144,0,92,50,0,

115,143,0,91,51,0,

115,143,0,90,50,0,

115,143,0,90,50,0,

114,142,0,89,50,0,

113,141,0,89,49,0,

113,141,0,89,49,0,

112,140,0,88,49,0,

112,139,0,88,49,0,

112,139,0,88,49,0,

111,138,0,87,48,0,

110,137,0,87,48,0,

110,135,0,87,48,0,

141,135,0,86,47,0,

140,135,0,86,47,0,

140,135,0,85,47,0,

139,134,0,85,46,0,

138,134,0,84,46,0,

137,133,0,83,46,0,

137,132,0,83,46,0,

135,132,0,83,46,0,

135,131,0,83,46,0,

134,130,0,82,45,0,

134,130,0,82,45,0,

133,129,0,82,45,0,

133,129,0,81,45,0,

132,127,0,81,44,0,

131,127,0,81,44,0,

131,127,0,79,44,0,

130,126,0,79,43,0,

129,126,0,79,43,0,

129,125,0,79,43,0,

127,125,0,79,43,0,

127,124,0,78,42,0,

127,123,0,78,42,0,

126,123,0,78,41,0,

125,122,0,78,41,0,

125,122,0,77,41,0,

124,121,0,77,41,0,

124,121,0,76,41,0,

124,120,0,76,41,0,

123,120,0,76,41,0,

122,119,0,76,39,0,

121,118,0,75,40,0,

121,143,0,75,39,0,

120,143,0,75,39,0,

120,142,0,74,39,0,

120,141,0,74,39,0,

119,140,0,73,61,0,

118,140,0,73,60,0,

117,139,0,73,60,0,

118,138,0,71,60,0,

116,137,0,71,59,0,

116,137,0,71,59,0,

115,135,0,71,59,0,

115,135,0,71,58,0,

114,135,0,71,57,0,

113,134,0,71,57,0,

113,133,0,71,57,0,

113,133,0,70,57,0,

112,131,0,69,56,0,

111,131,0,69,57,0,

111,131,0,69,56,0,

110,130,0,69,56,0,

110,129,0,68,56,0,

110,129,0,68,56,0,

109,127,0,68,55,0,

108,127,0,67,55,0,

108,127,0,67,54,0,

107,126,0,67,54,0,

107,126,0,67,53,0,

107,125,0,67,53,0,

106,124,0,66,53,0,

105,124,0,66,53,0,

105,123,0,66,52,0,

103,123,0,65,52,0,

103,122,0,65,52,0,

103,121,0,65,51,0,

103,121,0,64,51,0,

102,120,0,64,51,0,

102,120,0,63,51,0,

102,119,0,63,50,0,

101,119,0,63,50,0,

101,135,0,63,50,0,

100,134,0,63,50,0,

99,134,0,63,50,0,

99,133,0,62,49,0,

99,132,0,62,49,0,

98,131,0,62,49,0,

98,131,0,62,48,0,

97,130,0,61,48,0,

97,130,0,61,48,0,

97,165,0,61,48,0,

96,164,0,60,48,0,

96,163,0,60,47,0,

96,162,0,60,47,0,

95,161,0,60,47,0,

95,160,0,59,46,0,

94,159,0,59,46,0,

94,158,0,59,46,0,

94,158,0,59,46,0,

93,157,0,58,46,0,

93,156,0,58,45,0,

92,156,0,58,45,0,

92,155,0,57,45,0,

92,154,0,57,45,0,

91,153,0,57,45,0,

91,153,0,57,45,0,

91,152,0,57,44,0,

90,151,0,56,44,0,

89,151,0,56,44,0,

89,150,0,56,43,0,

89,149,0,56,43,0,

88,148,0,56,43,0,

88,147,0,56,43,0,

88,147,0,59,43,0,

88,147,0,59,42,0,

87,146,0,58,42,0,

86,145,0,58,42,0,

86,144,0,58,41,0,

101,143,0,57,41,0,

128,143,0,57,41,0,

127,143,0,57,41,0,

126,142,0,57,41,0,

126,141,0,56,39,0,

125,140,0,56,39,0,

124,140,0,56,39,0,

124,139,0,56,39,0,

123,138,0,55,39,0,

123,137,0,55,39,0,

122,137,0,55,39,0,

121,135,0,54,39,0,

121,135,0,54,39,0,

121,135,0,54,39,0,

120,134,0,54,38,0,

120,134,0,54,39,0,

119,133,0,53,38,0,

119,133,0,53,38,0,

118,131,0,53,38,0,

117,131,0,52,38,0,

117,131,0,52,37,0,

115,130,0,52,37,0,

115,130,0,51,37,0,

115,128,0,51,37,0,

114,128,0,51,36,0,

114,127,0,51,36,0,

113,127,0,51,36,0,

113,127,0,50,36,0,

112,126,0,50,35,0,

112,125,0,50,35,0,

111,124,0,50,35,0,

111,124,0,50,35,0,

110,123,0,49,35,0,

110,123,0,49,35,0,

109,123,0,49,34,0,

108,121,0,49,34,0,

108,121,0,48,34,0,

108,121,0,48,34,0,

107,120,0,48,34,0,

106,120,0,48,34,0,

106,119,0,48,34,0,

105,119,0,48,33,0,

105,118,0,48,33,0,

103,117,0,52,33,0,

103,117,0,53,33,0,

103,116,0,52,33,0,

103,115,0,52,32,0,

102,115,0,51,32,0,

102,115,0,51,32,0,

102,114,0,51,31,0,

101,114,0,51,31,0,

100,113,0,50,31,0,

100,113,0,50,31,0,

99,112,0,51,31,0,

99,112,0,51,31,0,

99,111,0,51,31,0,

98,115,0,51,31,0,

98,126,0,51,31,0,

97,125,0,51,31,0,

97,124,0,50,31,0,

96,124,0,50,30,0,

96,123,0,50,31,0,

96,123,0,50,31,0,

95,122,0,49,31,0,

95,121,0,49,31,0,

94,121,0,48,31,0,

94,120,0,49,31,0,

94,120,0,49,31,0,

93,120,0,49,31,0,

93,118,0,48,31,0,

92,118,0,48,30,0,

92,117,0,48,30,0,

91,117,0,47,30,0,

91,116,0,47,30,0,

91,115,0,47,30,0,

90,115,0,47,30,0,

90,114,0,46,29,0,

89,114,0,46,29,0,

89,113,0,75,29,0,

89,113,0,96,29,0,

88,113,0,95,29,0,

88,112,0,94,29,0,

88,112,0,94,29,0,

88,111,0,93,65,0,

87,111,0,93,65,0,

86,110,0,92,63,0,

86,109,0,92,63,0,

86,109,0,91,63,0,

85,109,0,91,63,0,

85,108,0,90,63,0,

84,108,0,90,62,0,

84,107,0,90,62,0,

83,107,0,89,62,0,

83,106,0,89,61,0,

83,106,0,88,61,0,

117,105,0,88,61,0,

197,105,0,88,60,0,

195,103,0,87,60,0,

193,103,0,87,60,0,

192,103,0,87,60,0,

191,103,0,86,59,0,

190,102,0,86,59,0,

189,103,0,85,59,0,

188,102,0,84,58,0,

187,101,0,84,58,0,

186,101,0,83,57,0,

228,100,0,83,57,0,

235,99,0,83,57,0,

233,99,0,82,57,0,

231,99,0,82,56,0,

230,99,0,82,56,0,

230,98,0,81,56,0,

228,98,0,81,56,0,

227,97,0,80,56,1,

225,97,0,80,55,0,

225,97,0,79,55,0,

224,132,0,79,55,0,

222,197,0,79,54,0,

221,195,0,79,54,0,

220,194,0,78,54,0,

219,193,0,78,53,0,

218,192,0,77,53,0,

217,191,0,77,52,0,

216,190,0,77,52,0,

215,189,0,76,52,0,

214,188,0,76,52,0,

212,187,0,76,51,0,

211,186,0,76,51,0,

210,185,0,75,51,0,

209,184,0,75,51,0,

207,183,0,75,51,0,

207,182,0,74,50,0,

206,181,0,74,50,0,

206,180,0,73,50,1,

204,179,0,73,49,0,

203,178,0,73,49,0,

203,178,0,71,49,0,

201,176,0,71,49,0,

200,176,0,71,49,0,

199,175,0,71,48,0,

199,174,0,71,48,0,

197,173,0,71,48,0,

197,172,0,70,48,0,

195,172,0,70,47,0,

195,171,0,70,48,0,

194,170,0,69,50,1,

193,169,0,69,49,0,

192,167,0,69,49,0,

192,167,0,68,49,0,

190,167,0,68,48,0,

190,166,0,77,48,0,

189,165,0,81,48,0,

188,164,0,80,48,0,

187,163,0,79,48,0,

186,163,0,79,47,0,

185,162,0,79,47,0,

184,161,0,78,46,0,

184,160,0,78,61,0,

183,159,0,78,61,0,

182,159,0,77,60,0,

181,158,0,77,60,0,

180,157,0,77,60,0,

179,157,0,76,59,0,

179,156,0,76,59,1,

178,155,0,76,59,0,

177,154,0,75,58,0,

176,153,0,75,57,0,

176,153,0,75,57,1,

175,152,0,74,57,0,

174,152,1,73,57,1,

173,151,1,73,57,0,

172,150,1,73,56,0,

171,150,1,71,56,1,

171,149,1,71,56,0,

170,148,1,71,56,1,

169,147,1,71,56,1,

167,147,1,71,55,0,

167,146,1,71,55,1,

167,145,1,71,54,1,

166,145,1,70,54,1,

165,143,1,70,54,1,

164,143,1,69,54,1,

164,143,1,69,54,1,

163,142,1,68,53,0,

163,142,1,68,53,1,

162,141,1,67,53,1,

161,140,1,67,52,1,

160,140,0,67,51,1,

159,139,1,67,51,0,

159,139,0,67,51,1,

158,138,1,67,51,1,

157,137,1,67,51,1,

157,137,1,66,51,1,

156,135,1,65,50,1,

156,135,1,65,50,1,

155,135,0,65,50,1,

154,134,1,65,50,1,

153,134,1,64,49,1,

153,133,1,64,49,1,

152,132,1,63,48,1,

152,131,1,63,48,1,

167,134,1,63,48,0,

167,134,1,63,50,1,

167,133,0,63,56,1,

166,132,0,62,56,1,

165,131,1,62,55,1,

163,131,1,61,54,1,

163,130,0,61,54,1,

162,130,0,61,54,1,

161,129,1,61,54,1,

160,129,0,60,53,1,

159,128,1,60,53,0,

159,127,1,60,52,1,

158,127,1,60,52,0,

188,126,1,59,52,1,

195,126,1,59,51,1,

193,125,0,59,51,1,

193,125,1,59,51,0,

192,135,0,58,50,1,

190,179,0,58,51,0,

190,178,1,58,50,0,

189,177,0,57,50,0,

188,176,1,57,50,1,

186,175,0,57,49,0,

185,174,0,57,54,0,

185,173,0,56,54,0,

184,172,1,56,54,1,

183,172,1,56,53,0,

182,171,1,56,56,0,

181,170,0,56,56,0,

180,169,0,55,56,1,

179,167,0,55,55,1,

178,167,0,55,55,0,

178,166,0,54,54,0,

177,166,1,54,54,1,

176,165,0,54,54,0,

175,163,0,54,53,0,

176,163,1,53,53,0,

176,162,1,53,53,1,

175,161,1,52,52,1,

174,160,1,52,52,0,

173,159,0,52,102,0,

172,159,1,51,101,1,

172,158,1,51,100,1,

171,157,0,73,99,1,

169,157,1,71,99,0,

169,156,1,71,98,0,

167,155,0,71,97,0,

167,155,0,70,97,0,

167,153,0,70,96,0,

166,153,1,70,96,1,

165,152,0,70,96,0,

164,152,0,69,95,0,

163,151,1,69,95,1,

162,150,0,69,94,0,

162,149,1,68,94,1,

161,148,0,68,93,0,

160,148,0,67,93,0,

159,147,0,67,92,0,

159,147,0,67,91,0,

158,146,0,66,91,0,

158,145,0,66,96,1,

157,144,0,65,96,1,

156,143,0,65,96,0,

156,143,1,65,95,0,

155,143,1,65,94,1,

154,142,0,65,94,0,

153,141,0,64,93,1,

152,140,0,63,93,0,

152,140,0,63,92,0,

151,139,0,63,92,0,

151,139,0,63,92,0,

150,138,0,63,92,0,

149,137,0,62,90,0,

148,137,0,62,90,0,

147,135,0,61,89,0,

147,135,1,61,89,0,

147,135,0,61,89,0,

146,134,0,60,88,0,

145,134,0,63,88,0,

144,133,0,63,88,0,

143,132,0,68,87,1,

143,131,0,79,87,1,

143,131,0,79,86,1,

142,130,0,78,86,0,

141,130,0,78,85,0,

141,129,1,78,85,0,

140,128,0,77,84,0,

140,128,0,77,84,0,

139,127,0,76,83,1,

139,161,0,79,83,0,

138,159,0,131,83,0,

137,159,0,129,83,0,

136,158,0,129,82,0,

135,157,0,127,82,1,

157,156,0,127,81,0,

178,155,0,126,81,0,

177,155,0,126,80,0,

176,153,0,125,80,0,

175,153,0,124,79,0,

174,152,0,123,79,0,

173,152,0,123,79,0,

172,151,0,122,78,0,

171,150,0,122,78,0,

171,149,0,121,78,0,

169,148,0,120,77,0,

167,147,0,120,77,1,

167,147,0,119,76,0,

167,146,0,119,123,0,

166,145,0,118,122,0,

165,144,0,118,121,0,

164,143,1,117,120,1,

163,143,0,116,120,0,

162,142,0,115,119,0,

161,141,0,115,118,0,

161,141,0,114,117,0,

159,140,0,114,117,0,

159,139,0,113,116,1,

158,139,0,112,115,0,

157,137,0,112,115,0,

156,137,0,111,114,0,

155,135,0,111,113,0,

155,135,0,110,113,0,

154,135,0,110,112,0,

153,134,0,109,111,0,

152,133,0,109,111,0,

151,133,0,108,110,0,

151,131,0,108,110,0,

150,131,0,107,109,0,

149,131,0,106,109,0,

148,130,0,106,108,0,

147,129,0,105,107,0,

147,128,0,105,107,0,

146,141,0,103,106,0,

145,154,0,103,105,0,

145,153,0,103,105,0,

143,152,0,103,103,0,

143,152,0,102,103,0,

142,150,0,101,103,0,

141,149,0,101,103,0,

141,149,0,101,102,0,

140,147,0,100,102,0,

140,147,0,99,101,0,

139,146,0,99,101,0,

138,145,0,99,100,0,

137,144,0,98,99,0,

137,144,0,98,99,0,

135,143,0,97,99,0,

135,142,1,97,98,0,

135,142,0,96,98,0,

135,141,0,96,97,0,

134,140,0,96,97,0,

133,140,0,95,96,0,

133,139,0,95,96,0,

132,139,0,94,96,0,

131,137,0,94,95,0,

131,137,0,93,95,0,

130,135,0,93,94,0,

130,135,0,93,94,0,

129,135,0,92,93,0,

129,135,0,92,93,0,

127,134,0,92,92,0,

127,133,0,91,92,0,

127,132,0,90,92,0,

126,131,0,90,91,0,

126,131,0,89,91,0,

125,130,0,89,90,0,

125,130,0,89,89,0,

124,129,0,88,89,0,

124,129,0,88,89,0,

123,127,0,88,89,0,

123,127,0,88,88,0,

122,127,0,87,88,0,

122,127,0,87,88,0,

125,176,0,86,87,0,

125,175,0,86,87,0,

124,174,0,85,86,0,

123,173,0,85,86,0,

123,172,0,85,85,0,

122,171,0,84,85,0,

121,171,0,83,84,0,

121,169,0,84,84,0,

120,167,0,83,83,0,

120,167,0,83,83,0,

120,167,0,82,83,0,

119,166,0,82,83,0,

118,166,0,82,82,0,

118,165,0,81,82,0,

117,163,0,81,81,0,

117,163,0,80,81,0,

116,162,0,79,80,0,

115,161,0,79,80,0,

115,160,0,79,79,0,

115,159,0,83,79,0,

114,159,0,83,79,0,

114,158,0,82,79,0,

113,157,0,82,78,0,

113,156,0,81,78,1,

112,156,0,81,78,0,

112,155,0,81,77,0,

111,154,0,80,77,0,

111,153,0,79,77,0,

110,153,0,79,76,0,

110,152,0,79,76,0,

109,151,0,79,76,0,

109,151,0,78,75,0,

109,150,0,78,75,0,

108,149,0,78,75,0,

108,148,0,78,74,0,

107,147,0,77,74,0,

107,147,0,77,75,0,

106,147,0,76,74,0,

106,146,0,76,74,0,

105,145,0,75,73,0,

105,143,0,76,73,0,

103,143,0,75,73,0,

103,143,0,75,71,0,

103,142,0,74,72,1,

103,141,0,74,71,0,

103,141,0,73,71,0,

102,140,0,73,71,0,

102,140,0,73,71,0,

101,139,0,71,71,0,

101,138,0,71,70,0,

100,137,0,71,70,0,

100,137,0,71,70,0,

99,137,0,71,69,0,

99,135,0,71,69,0,

99,135,0,72,68,0,

98,135,0,71,68,0,

98,134,0,71,68,0,

98,134,0,71,67,0,

97,133,0,71,67,0,

97,132,0,71,67,0,

96,131,0,70,67,0,

96,131,0,70,66,0,

96,130,0,70,66,0,

96,130,0,69,66,0,

95,129,0,69,65,0,

95,129,1,69,65,0,

94,128,0,68,65,0,

94,127,0,68,65,0,

94,127,0,68,65,0,

93,126,0,68,64,0,

93,126,0,67,63,0,

93,126,0,67,63,0,

103,125,1,67,67,0,

103,124,0,66,66,0,

103,124,0,66,66,0,

102,123,0,66,66,0,

101,123,0,66,66,0,

101,122,0,65,65,0,

101,121,0,65,65,0,

100,121,0,65,64,0,

99,120,0,64,64,0,

99,120,0,64,64,0,

99,119,0,63,63,0,

98,119,0,63,63,0,

98,118,0,63,63,0,

97,118,0,63,63,1,

97,117,0,63,62,0,

96,117,0,62,62,0,

96,117,0,62,62,0,

96,183,0,62,62,0,

95,181,0,62,62,0,

94,179,0,61,61,0,

94,178,0,61,61,0,

94,177,0,61,61,0,

93,177,0,61,60,0,

93,176,0,60,60,0,

93,175,0,60,60,0,

92,174,0,60,61,0,

92,173,0,60,61,0,

91,172,0,60,61,0,

91,172,0,59,61,0,

90,171,0,59,60,0,

90,170,0,59,60,0,

89,169,0,58,60,0,

89,167,0,59,60,0,

89,167,0,57,59,0,

88,167,0,57,59,0,

89,166,0,57,59,0,

88,165,0,57,58,0,

88,164,0,57,58,0,

87,163,0,57,58,0,

87,163,0,56,57,0,

87,162,0,56,57,0,

86,161,0,56,57,0,

86,161,0,56,57,0,

85,159,0,56,57,0,

85,159,0,55,56,0,

85,158,0,82,56,0,

84,158,0,98,56,0,

84,157,0,98,56,0,

84,156,0,97,56,0,

83,156,0,97,55,0,

83,155,0,96,55,0,

83,154,0,96,55,0,

82,153,0,95,54,0,

82,152,0,95,54,0,

