
53,7,0,62,27,0,

52,7,0,62,27,0,

52,7,0,61,26,0,

52,7,0,61,26,0,

51,7,0,61,27,0,

51,7,0,60,26,1,

51,7,0,60,26,0,

51,7,0,60,26,0,

51,7,0,60,25,0,

50,7,0,59,25,0,

50,7,0,59,25,0,

50,7,0,59,25,0,

53,7,0,59,25,0,

54,7,0,58,25,0,

54,7,0,58,25,0,

54,7,0,58,25,0,

53,7,0,57,25,0,

53,7,0,57,24,0,

53,7,0,57,24,0,

53,7,0,57,24,0,

52,7,0,56,24,0,

52,7,0,56,24,0,

51,7,0,56,24,0,

52,6,0,56,24,0,

51,6,0,63,24,0,

56,7,0,77,24,0,

57,6,0,76,24,0,

57,6,0,76,23,0,

57,6,0,75,24,0,

56,6,0,75,23,0,

56,6,0,75,23,0,

56,6,0,75,23,0,

56,6,0,74,23,0,

56,6,0,73,23,0,

55,6,0,73,22,0,

55,6,0,73,22,0,

54,6,0,73,22,0,

55,6,0,89,22,0,

54,6,0,90,22,0,

55,6,0,90,22,0,

54,6,0,89,22,1,

54,6,0,89,22,0,

54,7,0,89,22,0,

53,6,0,88,21,0,

53,6,0,88,21,0,

53,6,0,88,21,0,

53,6,0,87,21,0,

53,6,0,87,21,0,

52,6,0,86,21,0,

52,6,0,86,21,0,

51,6,0,86,21,0,

51,6,0,85,21,0,

51,6,0,96,21,0,

51,6,0,95,20,0,

51,6,0,95,20,0,

51,6,0,94,20,0,

50,6,0,94,20,0,

50,7,0,93,20,0,

50,6,0,93,20,0,

50,7,0,92,19,0,

50,7,0,92,20,0,

49,6,0,92,19,0,

49,6,0,92,19,0,

49,6,0,91,19,0,

49,6,0,91,19,0,

48,6,0,90,19,0,

48,6,0,90,19,0,

48,6,0,89,19,0,

48,6,0,89,19,0,

47,6,0,89,19,0,

48,19,0,88,19,0,

47,28,0,88,19,0,

47,27,0,88,19,0,

47,27,0,87,18,0,

46,27,0,87,18,0,

46,26,0,86,18,0,

46,26,0,86,18,0,

46,26,0,85,18,0,

45,26,0,85,18,0,

64,26,0,85,18,0,

71,26,0,85,18,0,

71,25,0,84,18,0,

70,25,0,83,18,0,

70,25,0,83,17,0,

69,25,0,83,17,0,

69,25,0,82,17,0,

69,25,0,82,17,0,

68,25,0,82,17,0,

68,25,0,81,17,0,

67,25,0,81,17,0,

67,25,0,81,17,0,

67,25,0,80,17,0,

67,24,0,79,16,0,

67,24,0,79,18,0,

66,24,0,79,17,0,

66,24,0,79,16,0,

65,24,0,79,16,0,

65,24,0,78,16,0,

65,24,0,78,16,0,

64,24,0,77,16,0,

64,24,0,77,16,0,

64,23,0,77,16,0,

63,24,0,77,16,0,

63,23,0,76,16,0,

63,23,0,76,15,0,

63,23,1,76,16,0,

62,23,0,76,15,0,

62,23,0,75,16,0,

62,22,0,75,78,0,

62,22,0,74,77,0,

61,22,0,74,76,0,

61,22,0,73,76,0,

61,22,0,73,75,0,

61,22,0,73,75,0,

60,22,0,73,74,0,

60,21,0,73,74,0,

60,21,0,71,73,0,

60,21,0,71,73,0,

59,21,0,71,71,0,

59,21,0,73,72,0,

59,20,0,73,71,0,

58,21,0,71,71,0,

58,20,0,71,71,0,

58,20,0,71,71,0,

57,20,0,71,71,0,

57,20,0,71,70,0,

57,19,0,71,70,0,

57,20,0,70,70,0,

57,20,0,70,69,0,

56,19,0,70,69,0,

56,19,0,73,69,1,

56,19,0,83,68,0,

56,19,0,83,68,0,

56,19,0,82,67,0,

55,19,0,82,67,0,

55,19,0,81,67,0,

54,19,0,81,66,0,

54,19,0,81,66,0,

54,19,0,79,66,0,

53,19,0,79,66,0,

53,19,0,79,65,0,

53,19,0,79,65,0,

53,19,0,79,65,0,

53,19,0,79,64,0,

52,19,0,78,64,0,

52,18,0,78,64,0,

52,19,0,78,63,0,

51,18,0,77,63,0,

51,18,0,77,63,0,

51,18,0,76,63,0,

51,18,0,76,63,0,

51,18,0,76,63,0,

51,18,0,75,63,0,

50,17,0,75,62,0,

50,17,0,75,62,0,

50,17,0,75,62,0,

49,17,0,74,61,0,

49,17,0,74,61,0,

49,17,0,73,61,0,

49,17,0,73,60,0,

49,17,0,73,60,0,

49,17,0,71,60,0,

48,22,0,71,60,0,

48,21,0,71,60,0,

48,21,0,71,59,0,

48,21,0,71,59,0,

47,21,0,71,58,0,

47,20,0,71,59,0,

47,20,0,70,58,0,

47,20,0,70,58,0,

46,20,0,69,57,0,

46,20,0,69,57,0,

46,20,0,69,57,0,

46,19,0,69,57,0,

45,19,0,69,57,0,

45,19,0,68,58,0,

45,20,0,67,57,0,

45,19,0,67,57,0,

45,19,0,67,57,0,

45,19,0,67,56,0,

44,19,0,66,56,1,

44,19,0,66,56,0,

44,19,0,66,56,0,

44,19,0,66,56,0,

44,19,0,65,56,0,

43,19,0,65,55,0,

43,19,0,65,55,0,

43,18,1,65,55,0,

43,19,0,64,54,0,

43,18,0,63,54,0,

43,18,0,63,54,0,

42,18,0,63,54,0,

42,18,0,63,53,0,

42,18,0,63,53,0,

41,18,0,63,53,0,

41,18,0,62,52,0,

41,17,0,62,52,0,

41,17,0,62,52,0,

41,18,0,62,51,0,

39,17,0,61,51,0,

39,17,0,61,51,0,

39,18,0,61,51,0,

39,18,0,60,51,0,

39,18,0,60,51,0,

39,17,0,60,50,0,

39,17,0,60,50,0,

39,17,0,59,50,0,

39,17,0,59,50,0,

39,17,0,59,49,0,

39,17,0,59,49,0,

82,17,0,59,49,0,

82,17,0,58,49,0,

81,16,0,58,48,0,

81,17,0,58,48,0,

80,16,0,57,48,0,

80,16,0,57,48,0,

79,16,0,57,48,0,

79,16,0,56,48,0,

79,15,0,56,47,0,

78,16,0,56,47,0,

78,16,0,56,47,0,

78,15,0,56,47,0,

77,15,0,56,46,0,

77,15,0,55,46,0,

77,15,0,55,46,0,

76,15,0,55,46,0,

76,16,0,55,46,0,

75,15,0,54,45,0,

75,15,0,54,45,0,

75,15,0,54,45,0,

75,15,0,54,45,0,

74,15,0,53,44,0,

74,15,0,53,44,0,

73,15,0,53,44,0,

73,15,0,53,44,0,

73,15,0,52,44,0,

72,15,0,52,44,0,

71,15,0,52,44,0,

71,15,0,52,43,0,

71,16,0,51,43,0,

71,16,0,51,42,0,

71,16,0,51,42,0,

71,16,0,51,42,0,

70,16,0,51,42,0,

69,16,0,51,42,0,

70,16,0,50,41,0,

69,16,0,50,41,0,

69,15,0,50,41,0,

68,15,0,53,41,0,

68,15,0,91,41,0,

68,15,0,91,39,0,

67,15,0,90,40,0,

67,15,0,89,39,0,

67,15,0,89,39,0,

67,15,0,88,39,0,

67,15,0,88,39,0,

66,15,0,88,39,0,

66,14,0,87,39,0,

65,14,0,87,39,0,

65,14,0,86,39,0,

65,14,0,86,39,0,

65,14,0,86,39,0,

64,14,0,85,39,0,

63,14,0,85,38,0,

63,14,0,85,38,0,

63,14,0,84,38,1,

63,14,0,83,38,0,

63,14,0,83,37,0,

62,14,0,83,37,0,

62,14,0,83,37,0,

62,14,0,82,37,0,

62,14,0,82,37,0,

62,13,0,81,36,0,

61,14,0,81,37,0,

61,13,0,94,36,0,

61,13,0,96,36,0,

61,13,0,95,36,0,

61,13,0,94,35,0,

60,13,0,94,35,0,

60,13,0,93,35,0,

60,13,0,93,35,0,

59,14,0,93,35,0,

60,15,0,92,35,0,

59,15,0,92,35,0,

59,14,0,91,35,0,

58,14,0,90,34,0,

58,14,0,90,34,0,

58,14,0,89,34,0,

57,14,0,89,34,0,

57,14,0,89,34,0,

57,14,0,89,33,0,

57,14,0,88,34,0,

56,17,0,88,34,0,

57,24,0,88,33,0,

56,23,0,87,33,0,

56,23,0,87,33,0,

56,23,0,86,32,0,

55,22,0,86,32,0,

55,23,0,85,32,0,

55,22,0,85,32,0,

55,22,0,85,31,0,

54,22,0,84,31,0,

83,22,0,84,31,0,

82,22,0,83,31,0,

82,22,0,83,31,0,

81,21,0,83,31,0,

81,71,0,83,31,0,

80,88,0,82,31,0,

80,88,0,82,31,0,

79,87,0,81,31,0,

79,86,0,81,31,0,

79,86,0,81,31,0,

78,85,0,80,31,0,

78,84,0,80,31,0,

78,84,0,94,39,0,

106,84,0,113,60,0,

152,83,0,112,60,0,

150,83,1,111,60,0,

148,82,0,110,66,0,

147,82,0,110,66,0,

147,81,0,109,65,0,

146,81,0,109,65,0,

145,80,0,108,64,0,

144,80,0,108,65,0,

143,79,0,107,63,0,

143,79,0,107,63,0,

142,79,0,106,65,0,

142,78,0,109,91,0,

140,78,0,108,90,0,

140,77,0,108,89,0,

139,77,0,108,89,0,

139,77,0,107,88,0,

138,76,0,106,88,0,

137,76,0,105,88,0,

135,76,0,105,87,0,

135,75,0,103,86,0,

135,75,0,103,85,0,

134,75,0,103,85,0,

134,74,0,103,85,0,

133,74,0,102,84,0,

132,73,0,102,83,0,

131,73,0,101,83,0,

131,71,0,101,83,0,

131,71,0,100,83,0,

130,71,0,100,82,0,

129,71,0,99,82,0,

129,71,0,99,81,0,

128,71,0,99,81,0,

127,71,0,98,81,0,

127,70,0,98,80,0,

126,70,0,98,80,0,

126,69,0,97,79,0,

125,69,0,97,79,0,

125,69,0,96,79,0,

124,69,0,96,78,0,

124,68,0,96,78,0,

123,67,0,95,78,0,

123,67,1,95,77,1,

122,67,0,94,77,0,

121,67,0,94,77,1,

121,66,0,93,76,0,

120,66,0,93,76,0,

120,66,0,92,76,0,

120,65,0,92,75,0,

120,65,0,92,75,0,

119,65,0,92,114,0,

118,64,0,91,115,0,

118,64,0,90,115,0,

117,64,0,90,114,0,

116,63,0,90,114,0,

115,63,0,89,113,0,

115,63,0,89,112,0,

115,62,0,88,111,0,

114,62,0,88,111,0,

113,62,0,88,110,0,

113,62,0,87,110,0,

113,61,0,87,109,0,

112,61,0,86,109,0,

112,61,0,86,108,0,

111,61,0,86,108,0,

110,60,0,85,108,0,

110,60,0,85,106,0,

110,60,0,84,106,0,

109,59,0,84,105,0,

108,59,0,83,105,0,

108,59,0,83,103,0,

108,59,0,83,103,0,

107,58,0,83,103,0,

107,57,0,83,103,0,

106,57,0,82,102,0,

106,57,0,82,116,0,

105,57,0,81,115,0,

105,57,0,81,115,0,

103,56,0,81,114,0,

103,56,0,80,113,0,

103,56,0,80,113,1,

103,56,0,82,112,0,

102,56,0,82,112,0,

102,56,0,82,111,1,

101,55,0,81,110,0,

101,55,0,81,110,0,

100,54,0,81,119,0,

100,54,0,80,118,0,

99,54,0,80,117,0,

99,53,0,79,117,0,

98,53,0,79,116,0,

98,52,0,79,115,0,

98,53,0,79,115,0,

97,52,0,78,114,0,

97,52,0,78,114,0,

134,51,0,131,113,0,

134,51,0,130,112,0,

133,51,0,129,112,0,

133,51,0,127,111,0,

132,50,0,127,111,0,

131,50,0,127,110,0,

130,51,0,126,109,0,

130,50,0,125,109,0,

129,50,0,124,109,0,

128,50,0,124,108,0,

127,49,0,123,107,0,

129,49,0,123,107,0,

138,49,0,122,106,0,

137,49,0,121,105,0,

137,48,0,121,105,0,

135,48,0,120,103,0,

135,48,0,120,103,0,

134,48,0,119,103,0,

134,48,0,118,103,0,

133,47,0,118,102,0,

132,47,0,117,102,0,

131,47,0,117,102,0,

167,46,0,116,101,0,

188,46,0,115,101,0,

186,46,0,115,99,0,

185,46,0,114,99,0,

184,46,0,113,99,0,

183,45,0,113,99,0,

182,45,0,112,98,1,

181,45,0,112,98,0,

180,45,0,112,97,0,

179,44,0,111,96,0,

178,44,0,111,96,0,

177,44,0,110,96,0,

176,44,0,110,95,0,

176,44,0,109,95,0,

175,43,0,109,94,0,

174,44,0,108,94,0,

173,46,0,107,109,0,

172,51,0,107,108,0,

171,51,0,107,108,0,

170,51,0,106,107,0,

169,50,0,105,107,0,

168,50,0,105,106,0,

167,50,0,124,105,0,

167,49,0,123,104,0,

167,49,0,122,103,0,

166,49,0,121,103,0,

165,48,0,121,103,0,

163,48,0,120,102,0,

163,48,0,120,102,0,

162,48,0,119,101,0,

161,47,0,118,101,0,

161,47,0,117,101,0,

159,51,0,117,99,0,

159,51,0,116,99,0,

158,51,0,116,99,0,

158,51,0,115,99,0,

157,50,0,115,98,0,

156,50,0,114,97,0,

156,50,0,114,97,0,

155,49,0,113,141,0,

154,49,0,113,141,0,

153,113,0,112,140,0,

153,111,0,111,139,0,

152,110,0,111,138,0,

151,110,0,110,137,0,

150,108,0,110,136,0,

149,108,0,109,135,0,

149,107,0,109,135,0,

148,107,0,108,134,0,

147,105,0,107,133,1,

147,105,0,107,132,0,

146,104,0,107,131,0,

145,103,0,106,131,0,

143,103,0,105,130,1,

143,103,1,105,130,0,

143,102,0,103,129,0,

142,102,0,103,128,0,

141,101,0,103,127,0,

141,100,0,102,127,0,

140,129,1,102,126,1,

139,127,0,102,149,0,

139,127,1,101,147,0,

137,126,1,100,147,1,

137,125,0,100,146,0,

135,124,0,99,145,0,

135,124,0,99,143,0,

135,123,0,99,143,0,

134,123,0,98,143,1,

134,122,0,97,142,0,

133,121,0,97,141,0,

132,121,1,96,140,1,

132,120,0,96,139,0,

131,120,1,96,139,0,

130,119,0,96,138,0,

130,118,0,95,137,1,

130,117,1,94,135,0,

129,116,0,94,135,0,

128,116,1,93,135,0,

127,115,0,93,134,0,

127,115,0,92,134,0,

126,114,0,92,133,0,

126,113,1,91,132,0,

125,113,0,91,131,0,

125,112,0,91,131,0,

124,112,0,90,131,1,

123,114,0,89,130,0,

123,135,0,89,129,0,

122,135,0,89,129,0,

121,134,0,89,127,0,

121,133,1,88,127,1,

120,132,1,88,127,0,

120,131,0,88,126,0,

120,131,0,88,125,0,

119,130,1,87,124,1,

118,129,1,86,124,0,

118,128,1,86,124,0,

117,127,1,85,123,0,

117,139,0,85,122,0,

116,139,1,85,121,0,

115,138,0,84,121,0,

115,137,0,95,120,0,

114,135,0,105,120,1,

114,135,0,105,119,0,

113,135,0,103,118,0,

113,134,0,103,118,0,

112,151,0,103,117,0,

112,149,1,103,116,0,

111,147,0,102,116,0,

111,147,0,102,115,0,

110,146,0,101,115,1,

110,145,0,100,115,0,

110,144,0,99,113,0,

116,143,1,99,113,0,

115,143,0,99,112,1,

147,142,0,99,112,1,

146,141,1,98,112,0,

145,140,0,97,111,0,

145,140,1,97,111,0,

143,139,0,96,110,0,

143,138,1,96,109,0,

142,138,0,95,109,0,

141,175,0,95,108,0,

141,174,0,95,108,0,

140,172,1,94,108,0,

172,171,1,94,107,0,

171,171,0,93,106,0,

169,169,0,92,105,0,

169,169,0,92,105,0,

167,167,0,92,103,0,

167,167,0,91,103,1,

166,166,0,91,103,0,

165,165,0,90,103,0,

164,164,0,89,103,0,

163,163,0,89,102,0,

163,162,0,89,102,0,

162,161,0,88,101,0,

161,160,0,88,101,1,

159,159,0,88,101,0,

159,159,0,87,100,0,

158,158,0,87,99,0,

157,157,0,86,99,0,

157,156,0,86,99,0,

156,156,0,85,98,0,

155,155,0,85,98,0,

154,172,0,85,97,0,

172,171,0,86,97,0,

216,170,0,86,97,0,

214,169,0,85,96,0,

213,167,0,85,96,1,

211,167,1,84,96,0,

211,166,0,83,95,0,

209,166,0,83,95,0,

208,164,0,83,94,0,

207,163,0,83,93,0,

206,163,0,82,93,0,

205,162,0,82,93,0,

204,161,0,82,92,0,

203,159,0,81,92,1,

201,159,0,81,92,0,

201,158,0,81,91,0,

199,158,0,79,91,0,

199,157,0,79,90,0,

198,156,0,79,90,0,

197,156,0,79,89,0,

196,155,0,78,89,0,

195,154,0,78,88,0,

194,153,0,78,88,0,

193,153,0,77,88,1,

192,152,0,77,88,0,

192,152,0,77,88,0,

190,151,0,77,86,0,

189,149,0,76,86,0,

189,149,0,76,86,0,

188,184,0,76,85,0,

187,182,0,75,85,0,

186,181,0,75,85,0,

185,179,0,75,87,0,

184,179,0,74,86,0,

183,177,0,74,86,0,

182,177,0,73,85,0,

181,176,0,73,85,0,

215,175,1,73,85,1,

273,215,0,73,84,0,

270,213,0,71,83,0,

268,211,1,71,83,0,

267,210,0,71,83,0,

265,209,0,71,86,0,

263,207,0,71,85,0,

263,207,0,71,85,0,

261,206,0,70,84,0,

259,204,1,70,84,0,

258,203,0,70,83,0,

257,203,0,70,83,0,

255,201,1,70,83,0,

254,199,0,69,82,0,

253,228,0,68,82,0,

251,226,0,68,81,0,

250,224,0,68,81,0,

249,223,0,67,81,0,

248,222,0,67,80,0,

247,220,0,67,80,0,

245,219,0,67,79,0,

243,218,0,67,79,0,

243,217,0,66,79,0,

242,216,0,108,79,0,

240,215,0,107,78,0,

239,214,0,106,78,0,

238,213,0,105,78,1,

237,211,0,103,77,0,

236,210,0,103,77,0,

234,209,1,103,77,0,

233,252,0,103,76,0,

231,250,0,102,76,0,

231,248,1,102,75,0,

230,247,0,101,75,0,

228,246,1,149,125,0,

227,243,0,154,124,0,

263,243,0,152,123,0,

261,241,0,152,122,0,

259,240,0,150,121,1,

258,238,1,150,120,0,

255,236,0,149,120,1,

255,235,0,147,120,0,

253,234,0,147,119,0,

252,231,0,146,118,0,

251,231,0,145,117,0,

249,230,0,144,117,0,

248,229,0,143,116,0,

246,227,0,143,115,0,

244,226,0,142,115,0,

243,225,0,141,114,1,

242,224,0,140,114,0,

240,223,1,140,113,0,

239,221,0,139,112,1,

238,221,0,138,112,1,

237,219,0,137,111,0,

236,218,0,137,110,0,

234,217,0,135,109,0,

233,216,0,135,109,0,

231,215,0,135,109,0,

231,214,0,134,109,0,

229,212,0,134,108,1,

228,211,1,133,107,0,

227,210,1,132,107,1,

226,209,0,131,105,0,

225,209,1,131,105,0,

224,207,0,130,105,0,

222,207,0,129,103,0,

221,206,1,129,103,1,

220,204,0,128,103,0,

219,204,0,127,103,1,

217,203,1,127,102,1,

216,201,0,126,102,0,

216,199,1,126,101,1,

214,199,1,125,100,1,

213,198,1,125,100,0,

212,197,1,124,99,1,

211,196,1,123,99,1,

210,195,1,123,109,1,

209,195,1,122,169,1,

207,193,0,121,192,1,

207,193,1,121,190,1,

206,192,1,120,190,1,

205,191,1,120,188,1,

204,189,1,119,187,1,

203,211,1,118,185,1,

201,246,1,118,185,1,

199,244,1,117,184,1,

199,243,1,117,183,1,

199,241,1,115,182,1,

198,240,1,115,181,1,

197,238,1,115,179,1,

195,237,1,115,179,1,

195,235,1,113,177,1,

194,235,1,113,177,1,

193,233,1,112,176,1,

192,231,1,112,175,1,

191,230,1,112,173,1,

190,229,1,111,173,1,

189,227,1,111,172,1,

188,227,1,110,171,2,

187,225,2,109,170,1,

187,224,2,109,169,1,

185,291,2,108,167,2,

185,289,1,108,167,1,

184,287,1,107,166,1,

183,285,1,107,166,1,

182,283,1,106,165,1,

181,281,1,105,163,2,

179,280,1,105,163,1,

179,278,2,105,162,1,

178,276,1,103,161,1,

177,275,2,103,161,1,

177,273,1,103,159,1,

176,271,1,103,159,1,

175,270,2,102,158,1,

174,268,1,102,157,2,

173,267,1,101,156,2,

172,265,1,101,156,1,

172,263,1,100,155,1,

171,263,2,99,154,1,

170,261,2,99,153,2,

169,259,1,99,153,1,

167,259,1,98,152,2,

167,257,1,98,151,1,

167,255,1,97,150,1,

166,254,1,97,150,1,

166,253,1,96,149,1,

164,251,1,96,148,1,

163,250,2,96,147,1,

163,249,1,96,147,1,

162,248,1,95,146,1,

161,246,1,94,145,1,

161,245,1,94,145,1,

159,244,1,94,143,2,

159,243,1,93,143,1,

158,241,1,93,143,1,

158,240,2,92,142,2,

157,263,1,92,141,1,

157,262,1,91,141,1,

156,260,1,91,171,2,

155,259,1,90,170,1,

154,257,1,89,169,1,

154,255,1,89,167,1,

153,254,1,89,167,1,

152,253,1,89,166,1,

152,252,1,88,165,1,

151,250,1,88,165,1,

150,248,1,88,163,1,

150,248,1,88,163,1,

149,246,1,87,162,1,

148,245,1,86,161,1,

147,243,1,86,159,1,

147,242,1,86,159,1,

148,241,2,85,158,1,

151,240,1,85,157,1,

150,238,1,84,157,1,

149,237,1,84,156,1,

148,236,1,83,155,1,

148,235,1,83,154,1,

147,233,1,83,153,1,

146,231,1,82,153,1,

145,231,1,82,152,1,

145,230,1,82,152,1,

144,229,1,81,151,1,

143,227,1,81,150,1,

143,227,1,80,149,1,

142,225,1,80,148,1,

142,224,1,79,147,1,

141,223,1,79,147,1,

140,222,1,79,146,1,

140,221,1,79,145,1,

139,240,1,79,144,1,

139,239,1,78,143,1,

138,238,1,78,143,1,

137,236,1,77,143,1,

137,235,1,77,142,1,

135,233,1,102,141,1,

135,231,1,121,140,1,

135,231,1,121,140,1,

134,230,1,120,139,1,

134,228,1,119,138,1,

133,227,1,119,137,1,

132,226,1,118,137,1,

131,224,1,117,135,1,

131,279,1,116,135,1,

131,284,1,115,135,1,

130,282,1,115,134,1,

129,280,0,115,134,1,

129,278,1,114,133,1,

128,277,1,113,132,1,

127,275,1,113,131,1,

127,273,1,112,131,1,

126,271,1,112,130,1,

126,270,1,111,129,1,

125,269,1,110,129,1,

125,267,1,110,128,1,

124,265,1,109,127,1,

123,263,1,108,127,1,

123,263,1,108,126,1,

185,261,1,108,126,1,

184,259,0,107,125,1,

183,258,1,106,125,1,

181,257,0,105,124,1,

180,255,1,105,124,1,

179,254,1,105,123,1,

178,252,1,103,122,1,

177,251,1,103,121,1,

176,249,1,103,121,1,

175,248,1,103,120,0,

176,247,1,102,120,0,

220,246,1,102,120,1,

217,243,1,101,119,0,

216,243,1,100,118,1,

215,242,0,100,118,1,

214,241,1,99,117,0,

213,240,1,99,116,0,

211,238,1,99,116,0,

210,237,0,97,115,0,

209,236,0,98,115,1,

207,235,1,118,114,1,

280,234,0,125,114,1,

293,231,0,124,113,0,

291,231,1,124,113,0,

289,230,1,123,112,0,

287,229,0,122,112,1,

285,227,1,121,111,0,

284,226,0,121,111,0,

281,225,1,120,110,0,

280,224,1,120,110,1,

279,239,1,119,109,1,

277,237,0,118,109,0,

275,236,1,118,108,1,

273,235,1,117,108,1,

272,233,0,116,155,1,

270,231,0,115,153,0,

269,231,0,115,152,0,

268,229,0,115,152,0,

265,227,1,114,151,0,

263,227,0,114,150,0,

263,225,1,113,149,1,

262,224,1,112,148,1,

260,223,0,112,147,0,

259,222,1,111,146,0,

257,220,1,110,146,1,

255,220,1,110,145,0,

254,218,1,109,144,0,

253,217,0,108,143,1,

252,216,0,108,143,0,

250,216,0,108,142,0,

248,214,0,107,141,0,

248,213,0,107,141,0,

246,211,0,106,140,0,

245,211,0,153,139,0,

243,210,0,152,138,1,

242,208,0,151,137,0,

241,207,0,150,137,0,

240,207,0,149,135,0,

239,205,0,148,135,0,

237,204,1,147,135,1,

236,204,0,147,134,1,

235,202,1,146,133,1,

233,202,0,145,133,0,

231,199,0,143,131,1,

231,199,0,143,131,0,

230,198,0,143,130,0,

228,198,0,142,129,0,

227,196,0,141,129,0,

226,195,0,141,129,0,

225,195,0,140,127,1,

224,194,0,139,127,1,

223,193,0,138,127,0,

222,192,0,138,126,0,

221,191,0,137,125,1,

220,190,0,135,125,0,

219,189,0,135,124,0,

217,188,0,135,124,0,

216,187,1,134,123,0,

216,186,0,133,122,0,

214,199,1,133,121,0,

213,199,0,132,121,0,

211,198,0,131,120,1,

211,197,0,131,120,1,

210,195,1,130,119,1,

209,194,0,129,118,0,

207,193,1,129,118,0,

207,192,0,127,117,0,

206,192,0,127,117,0,

205,230,1,127,116,0,

204,248,0,126,115,0,

203,246,1,126,114,0,

202,245,0,125,114,1,

201,243,0,124,114,0,

199,242,1,124,113,0,

199,240,1,123,112,0,

238,239,1,123,112,0,

258,237,0,122,111,0,

255,236,0,121,111,0,

254,235,0,121,110,0,

253,233,0,120,110,0,

251,231,1,119,109,1,

249,231,1,119,109,0,

248,229,1,118,108,0,

247,228,0,118,108,0,

246,227,0,117,107,0,

243,225,1,116,107,0,

243,225,0,116,106,0,

241,224,0,115,105,1,

240,222,0,115,105,0,

239,221,0,114,112,1,

237,220,1,114,112,1,

236,219,1,113,111,1,

235,217,0,112,110,1,

233,216,1,112,110,0,

231,215,1,112,109,0,

231,214,1,117,131,1,

230,213,0,117,131,0,

228,211,1,115,130,1,

227,210,0,115,129,1,

226,209,1,115,128,1,

225,208,0,114,127,0,

224,207,1,113,126,1,

222,206,1,112,126,1,

221,205,1,112,125,0,

220,204,1,112,125,0,

219,203,0,111,124,0,

217,201,0,110,124,0,

216,201,0,110,123,0,

216,199,0,109,122,1,

214,199,1,109,121,1,

213,198,1,108,120,0,

212,230,0,108,120,1,

211,228,1,107,120,0,

209,227,1,106,119,1,

209,225,0,106,118,1,

207,224,0,105,117,0,

206,223,0,105,117,1,

206,222,1,105,116,1,

204,220,0,103,115,1,

204,219,1,103,115,0,

202,218,1,103,114,1,

201,217,1,102,114,1,

199,216,0,102,113,0,

199,214,0,101,112,1,

198,213,0,101,112,0,

198,211,0,101,111,1,

196,211,1,99,111,0,

195,209,0,99,110,0,

195,208,1,99,110,1,

219,207,0,98,109,0,

312,206,0,98,109,0,

309,205,1,98,108,1,

307,204,0,97,108,1,

305,203,1,97,107,0,

303,202,1,96,107,1,

301,201,0,96,106,0,

300,199,0,96,105,1,

297,199,1,95,105,0,

295,198,1,95,103,1,

294,197,1,94,103,0,

292,196,1,102,103,1,

291,195,1,100,103,1,

289,216,0,100,103,1,

287,286,1,99,102,1,

286,284,0,99,102,1,

284,283,1,98,101,1,

283,281,1,98,101,1,

281,279,0,97,100,1,

280,278,0,97,99,0,

278,275,0,97,99,1,

277,275,0,158,99,1,

275,273,0,156,98,1,

274,271,0,156,98,1,

272,270,1,155,97,1,

271,268,1,154,97,0,

270,267,0,153,97,0,

268,265,0,153,96,0,

267,263,1,152,96,1,

265,263,0,151,95,1,

263,261,0,150,94,0,

263,259,0,149,94,0,

261,258,0,148,94,0,

260,257,0,147,93,0,

259,255,1,146,93,0,

273,254,1,146,93,1,

271,252,0,145,92,1,

270,285,0,145,91,1,

268,283,0,143,91,1,

267,281,0,143,91,0,

265,280,0,142,90,1,

263,278,1,142,90,1,

263,275,0,141,89,0,

261,275,1,140,89,0,

259,273,1,140,89,0,

258,271,1,139,88,0,

257,270,0,138,88,0,

255,268,1,137,107,0,

254,267,0,137,106,1,

253,265,1,135,105,0,

251,263,1,135,105,0,

250,262,1,135,103,1,

249,261,1,134,158,1,

248,259,0,133,160,1,

246,258,0,133,159,1,

245,255,0,132,158,1,

243,255,0,131,157,0,

242,254,1,131,156,0,

241,252,0,130,155,0,

240,251,1,129,154,1,

239,249,1,129,153,0,

237,248,1,127,153,0,

236,247,0,127,226,0,

235,245,0,127,224,1,

233,244,1,126,235,0,

247,243,0,125,233,0,

245,241,1,125,231,0,

243,240,1,124,230,1,

242,239,0,124,228,1,

240,238,1,123,227,0,

239,236,1,122,225,0,

238,235,0,122,224,0,

236,233,0,121,223,0,

235,233,1,121,222,0,

234,231,0,120,221,0,

231,230,0,120,220,1,

231,229,0,120,218,1,

231,227,1,118,217,1,

229,227,1,117,216,0,

227,225,1,117,214,0,

227,224,1,116,213,1,

225,224,0,116,212,0,

224,222,0,115,211,0,

223,221,1,115,209,0,

222,219,0,115,208,0,

221,219,0,114,207,0,

220,217,1,114,206,0,

219,216,0,113,205,0,

217,215,0,113,204,1,

217,216,0,112,203,1,

216,246,1,112,202,1,

215,243,0,111,201,0,

213,241,0,111,199,0,

212,241,0,110,199,1,

211,239,0,110,198,1,

210,238,1,109,197,1,

209,236,0,109,196,0,

208,240,0,109,195,1,

276,297,1,108,194,1,

274,294,0,107,193,1,

271,291,0,107,192,1,

270,290,1,106,191,0,

268,288,0,105,190,0,

267,287,1,105,189,0,

265,285,0,103,188,0,

263,283,1,103,187,1,

263,281,1,103,186,1,

260,280,1,103,185,0,

259,278,1,103,184,1,

258,276,1,102,183,0,

255,275,1,102,183,1,

255,274,0,101,181,0,

253,271,1,100,181,1,

252,271,1,100,179,1,

250,269,0,99,179,0,

249,267,1,99,178,1,

248,266,1,99,177,0,

247,263,1,98,176,1,

245,263,1,98,175,1,

243,262,1,97,174,1,

243,260,1,97,174,1,

241,259,1,96,173,1,

240,258,1,96,172,1,

239,255,1,96,171,1,

238,255,1,95,170,1,

236,254,1,94,169,1,

235,252,1,94,169,1,

234,251,1,94,167,1,

233,249,1,93,167,1,

231,248,1,93,166,1,

231,248,1,93,166,1,

229,246,1,92,165,1,

228,245,1,92,164,1,

227,243,0,91,163,1,

226,242,1,91,163,1,

225,241,1,91,162,1,

224,240,1,90,161,1,

223,238,0,89,159,1,

222,237,1,89,159,1,

220,236,1,88,159,1,

219,235,1,88,158,1,

219,234,1,146,157,1,

217,232,1,145,157,1,

216,231,1,144,156,1,

215,230,1,143,155,1,

214,229,1,143,155,1,

213,280,1,141,153,1,

211,277,1,141,153,1,

210,275,1,140,152,1,

209,274,1,139,152,1,

208,271,1,139,151,1,

207,270,1,137,150,1,

206,268,1,137,149,1,

205,278,1,135,148,1,

204,276,1,135,147,1,

203,275,1,135,147,1,

202,272,1,134,146,1,

201,271,1,133,145,1,

199,269,1,133,145,1,

199,268,1,131,143,1,

198,266,1,131,143,1,

197,265,1,131,142,1,

196,263,1,130,142,1,

204,262,1,129,141,1,

203,260,1,130,140,1,

202,259,1,130,140,1,

200,257,1,129,140,1,

199,255,1,128,139,1,

199,254,1,127,138,1,

198,253,0,127,137,1,

196,252,1,126,137,1,

195,250,1,126,135,1,

194,249,1,125,135,1,

194,248,1,124,135,1,

192,246,1,124,134,1,

192,245,1,123,134,1,

190,243,1,123,133,1,

190,242,1,122,132,1,

189,241,0,121,132,1,

188,240,1,121,131,1,

187,238,1,120,131,1,

186,237,1,120,130,1,

185,236,1,119,129,1,

184,235,0,119,129,1,

184,233,1,118,127,0,

183,231,1,131,127,1,

182,231,1,131,127,1,

181,230,1,130,126,1,

180,228,1,129,125,1,

179,227,1,129,125,0,

178,226,1,127,124,1,

177,225,1,127,124,0,

177,224,1,126,123,1,

176,222,0,126,123,1,

175,221,1,125,122,1,

174,220,1,124,121,1,

234,219,1,124,121,0,

231,218,1,123,120,1,

231,217,0,122,120,0,

229,216,1,122,120,1,

227,215,1,121,119,0,

226,214,1,121,118,1,

225,212,1,120,117,1,

224,211,1,120,117,1,

223,210,1,119,116,0,

221,209,1,118,116,0,

220,207,1,118,115,1,

255,271,1,117,115,0,

252,280,1,116,114,1,

251,278,1,115,114,0,

249,275,1,115,113,1,

248,274,1,115,112,0,

246,273,1,114,112,1,

245,271,0,113,112,0,

243,269,1,113,111,1,

242,268,0,112,110,0,

241,266,0,112,110,0,

239,263,0,111,109,0,

238,263,0,111,109,0,

237,262,1,110,109,0,

235,260,0,109,108,0,

234,259,0,109,108,1,

233,257,1,108,107,0,

231,255,1,108,106,1,

230,254,1,107,106,0,

229,252,0,107,105,0,

228,251,1,106,105,1,

227,249,0,105,104,1,

226,248,1,105,103,0,

225,247,0,103,103,1,

224,246,1,103,103,0,

222,244,0,103,103,0,

221,243,0,103,102,1,

220,242,0,103,102,0,

219,240,0,102,101,0,

217,239,1,102,100,0,

216,238,0,101,100,0,

216,236,1,101,99,0,

214,235,0,100,99,1,

213,234,1,99,99,0,

212,233,0,99,98,0,

211,231,0,99,98,0,

210,231,1,98,97,0,

209,230,0,98,99,1,

207,229,0,98,98,0,

207,227,1,97,98,1,

206,227,0,97,97,0,

205,225,0,96,97,0,

204,224,0,96,97,0,

204,224,0,96,96,0,

203,291,1,95,96,1,

201,290,0,95,96,0,

199,287,1,94,94,0,

199,286,0,94,94,0,

199,284,1,93,94,0,

198,283,1,93,93,0,

197,281,0,92,93,0,

195,280,1,92,93,0,

195,279,0,92,92,0,

194,276,0,91,92,0,

193,275,0,91,91,0,

192,274,0,90,91,0,

192,271,0,90,91,0,

191,271,0,90,91,0,

190,269,0,89,89,0,

189,268,0,89,89,0,

188,267,0,88,89,0,

187,265,1,88,89,0,

186,263,0,88,88,0,

185,263,0,88,88,0,

184,262,0,87,88,0,

184,259,0,86,88,0,

183,259,0,86,87,0,

182,257,0,86,87,0,

181,255,0,85,86,0,

180,255,0,85,86,0,

179,253,0,84,86,0,

179,252,0,84,85,0,

178,251,0,84,85,0,

177,249,0,83,85,0,

176,248,0,83,84,0,

176,247,0,83,84,0,

175,246,0,82,83,0,

174,244,0,82,83,0,

227,243,0,82,83,0,

259,243,0,81,83,0,

257,241,0,81,82,0,

255,240,0,80,82,0,

254,239,0,80,81,0,

252,238,0,80,81,0,

251,237,1,79,80,0,

249,236,0,79,80,0,

249,235,0,79,80,0,

247,233,1,78,82,0,

246,231,0,78,82,0,

244,231,0,78,81,0,

243,230,0,77,81,1,

242,228,0,77,81,0,

241,227,0,77,80,0,

240,227,0,76,82,0,

238,226,0,76,82,0,

237,224,0,76,81,0,

236,224,0,76,81,0,

235,222,0,75,81,0,

233,221,0,75,80,0,

231,220,0,75,79,0,

231,219,0,74,79,0,

230,218,1,74,79,0,

229,217,0,73,79,0,

227,216,1,73,78,0,

227,215,0,73,78,0,

226,214,0,73,77,0,

224,213,0,72,77,0,

224,212,0,71,77,0,

222,211,0,71,76,0,

221,211,0,71,76,0,

220,209,0,71,76,0,

219,207,0,71,76,0,

217,207,0,70,75,0,

217,206,0,70,75,0,

241,206,0,70,75,0,

240,204,0,69,75,0,

239,204,0,69,74,0,

237,203,0,69,73,0,

236,201,0,68,73,0,

235,201,0,68,78,0,

233,199,0,67,77,0,

231,199,0,67,77,0,

231,198,0,67,76,0,

230,197,0,67,76,0,

229,196,0,67,76,0,

227,195,0,66,75,0,

226,195,0,66,75,0,

225,194,0,65,75,0,

224,193,0,65,74,0,

223,192,0,65,73,0,

222,192,0,65,73,0,

221,222,0,65,73,0,

220,233,0,64,73,0,

219,231,0,63,71,0,

217,231,0,63,72,0,

216,230,0,63,71,0,

216,229,0,63,71,0,

214,227,0,63,71,0,

213,226,0,63,71,0,

212,225,0,62,71,0,

211,224,0,62,70,0,

210,223,0,62,70,0,

209,221,0,62,69,0,

208,220,0,62,69,0,

207,219,0,61,69,0,

206,218,0,61,69,0,

205,217,1,61,69,0,

204,216,0,60,68,0,

204,215,1,60,68,0,

252,214,1,60,67,0,

279,212,0,60,67,0,

277,211,0,60,67,0,

275,211,0,59,67,0,

273,209,0,59,67,0,

271,208,0,59,67,0,

270,207,0,58,67,0,

269,206,0,58,67,0,

268,206,0,58,66,0,

265,205,0,57,66,0,

263,204,0,57,66,0,

263,203,0,57,65,0,

262,201,0,57,65,0,

261,199,0,56,65,0,

259,199,0,56,64,0,

258,199,0,56,64,0,

256,198,0,56,63,0,

255,197,0,56,63,0,

254,195,0,56,63,0,

252,195,0,55,63,0,

251,194,0,55,63,0,

250,193,0,54,62,0,

248,192,0,54,62,0,

248,192,0,54,62,0,

246,190,0,54,62,0,

245,189,0,54,62,0,

244,189,0,53,61,0,

243,188,0,53,62,0,

242,187,0,53,62,0,

241,187,0,52,61,0,

240,203,0,52,61,0,

238,201,0,52,61,0,

237,199,0,51,60,0,

236,199,0,51,60,0,

235,198,0,51,60,0,

233,197,0,51,60,0,

231,196,0,51,59,0,

231,195,0,51,59,0,

231,194,0,51,59,0,

229,193,0,50,58,0,

228,192,0,50,58,1,

227,192,0,50,58,1,

226,190,0,50,57,0,

225,189,0,49,57,0,

224,189,0,49,57,0,

223,188,0,49,57,0,

222,187,0,48,57,0,

221,186,0,60,64,0,

220,185,0,135,103,0,

218,184,0,141,103,0,

217,183,0,140,103,0,

216,182,0,139,102,0,

216,182,0,138,102,0,

214,180,0,137,101,0,

213,179,0,135,100,0,

212,179,0,135,99,0,

248,178,0,135,99,0,

265,177,0,134,99,0,

263,176,0,133,98,0,

261,176,0,132,97,1,

260,175,0,131,97,0,

259,174,0,131,96,0,

257,173,0,130,96,0,

255,172,0,130,95,0,

254,172,0,129,95,0,

253,171,0,128,94,0,

251,170,0,127,94,0,

250,169,0,127,93,0,

248,167,0,127,93,0,

248,167,0,126,92,0,

246,167,0,125,92,0,

244,166,0,125,92,0,

243,165,0,124,91,0,

242,188,0,123,90,0,

241,187,0,123,90,0,

240,185,0,122,89,0,

238,184,0,121,89,0,

237,184,0,121,89,0,

236,182,0,120,88,0,

235,181,1,120,88,0,

233,179,0,120,88,0,

323,179,0,119,87,0,

324,178,0,118,87,0,

322,177,0,117,86,0,

319,176,0,117,85,0,

318,175,1,116,85,0,

316,174,0,115,85,0,

314,173,0,115,84,0,

312,173,0,115,84,0,

310,172,0,114,83,0,

308,171,0,113,83,0,

307,169,0,113,83,1,

305,169,0,112,82,0,

304,220,0,112,82,0,

302,262,0,112,81,0,

300,259,0,111,81,0,

298,258,0,110,80,0,

295,255,0,110,80,0,

295,255,0,109,82,0,

293,253,0,109,81,0,

291,252,0,108,81,0,

290,250,0,108,80,1,

288,249,0,107,80,0,

287,248,0,106,79,0,

286,246,0,106,79,0,

284,245,0,105,78,0,

283,243,0,105,78,0,

281,242,0,103,78,0,

280,241,0,103,78,0,

278,239,0,103,77,0,

276,238,0,103,77,0,

275,237,0,103,76,0,

274,236,0,102,76,0,

272,235,0,101,75,0,

271,233,0,101,75,0,

270,231,0,101,75,0,

268,231,0,100,74,0,

267,230,0,99,74,0,

265,228,0,99,73,0,

263,227,0,99,73,0,

263,226,0,99,73,0,

262,225,0,98,73,0,

260,224,0,97,71,0,

259,223,0,97,71,0,

258,222,0,97,71,0,

257,221,0,96,71,0,

255,220,0,96,71,0,

262,219,0,96,71,0,

260,217,0,95,71,0,

259,217,0,95,70,0,

257,216,0,94,70,0,

255,215,0,94,70,0,

255,213,1,93,69,0,

253,213,0,93,69,0,

252,211,0,92,68,0,

251,210,0,92,68,0,

250,210,0,92,68,0,

248,208,0,91,67,0,

247,207,0,91,67,0,

246,206,1,90,67,0,

245,206,0,90,67,0,

243,205,0,89,66,0,

243,204,0,89,66,0,

241,203,0,89,65,0,

240,201,0,88,65,0,

239,201,0,88,65,0,

238,199,0,88,64,0,

237,199,0,87,65,0,

236,198,0,87,63,0,

235,197,0,86,63,0,

233,196,0,86,63,0,

233,195,0,86,63,0,

231,195,0,85,63,0,

231,193,0,85,62,0,

230,192,0,84,62,0,

228,192,0,83,62,0,

227,191,0,83,62,0,

227,190,0,83,62,0,

225,189,0,83,61,0,

224,188,0,82,61,0,

224,187,0,82,61,0,

223,187,0,82,60,0,

221,185,0,81,60,0,

220,185,0,81,60,0,

220,184,0,81,59,0,

218,184,0,80,59,0,

217,182,0,79,59,0,

216,182,0,79,59,0,

216,181,0,79,58,0,

215,179,0,79,58,0,

214,179,0,79,57,0,

213,178,0,78,57,0,

211,177,0,78,57,0,

253,177,0,78,57,0,

251,176,0,77,56,0,

249,175,0,77,56,0,

248,174,0,77,86,0,

247,173,0,76,91,0,

246,173,0,76,90,0,

244,172,0,76,90,0,

243,172,0,75,89,0,

242,170,0,75,89,0,

241,169,0,75,88,0,

240,169,0,74,88,0,

238,167,0,87,87,0,

237,167,0,93,87,0,

236,167,0,93,86,0,

235,166,0,92,86,0,

233,165,0,91,85,0,

231,164,0,91,85,0,

231,164,0,90,84,0,

230,163,0,90,83,0,

229,162,0,90,83,0,

227,162,0,89,83,0,

227,161,0,89,83,0,

225,160,0,88,83,0,

224,159,0,88,82,0,

224,158,0,88,81,0,

222,158,0,87,81,0,

221,158,0,87,80,0,

220,157,0,86,80,0,

219,156,1,86,79,0,

218,156,0,85,79,0,

217,155,0,85,79,0,

216,154,0,85,79,0,

215,153,0,84,78,0,

214,153,0,83,78,0,

213,152,0,83,77,0,

211,152,0,113,77,0,

211,151,0,120,77,0,

210,150,0,120,76,0,

208,149,0,119,76,0,

207,149,0,118,76,0,

207,148,0,117,75,0,

206,147,0,116,75,0,

205,147,0,116,75,0,

204,147,0,115,73,0,

203,146,0,115,74,0,

202,145,0,114,73,0,

201,145,1,114,73,0,

199,143,0,113,71,0,

199,143,0,112,71,0,

198,142,0,112,71,0,

197,142,0,112,71,0,

196,141,0,111,71,0,

195,140,0,110,71,0,

195,140,0,110,70,0,

193,140,0,109,70,0,

193,139,0,109,70,0,

192,138,0,108,69,0,

191,137,0,107,69,0,

190,137,0,107,68,0,

189,135,0,106,68,0,

188,135,0,106,67,0,

188,135,0,105,70,0,

187,135,0,105,70,0,

185,134,0,103,70,0,

185,133,0,103,69,0,

184,133,0,103,68,0,

184,132,0,103,68,0,

183,131,0,102,68,0,

182,131,0,102,67,0,

181,130,0,101,67,0,

179,130,0,100,67,0,

179,129,0,100,67,0,

178,128,0,99,66,0,

177,127,0,99,66,0,

177,127,0,99,65,0,

176,127,0,98,65,0,

175,126,0,98,65,0,

175,126,0,97,65,0,

174,125,0,97,64,0,

173,125,0,96,63,0,

172,124,0,96,63,0,

172,124,0,96,63,0,

171,123,0,95,63,1,

170,123,0,95,63,0,

169,122,0,94,62,0,

167,122,0,94,62,0,

167,121,0,93,62,0,

167,121,0,93,62,0,

166,120,0,92,61,0,

166,120,0,92,61,0,

165,120,0,92,61,0,

164,119,0,91,60,1,

164,119,0,91,60,0,

163,118,0,91,60,0,

162,117,0,90,60,0,

162,117,0,89,59,0,

161,117,0,89,59,0,

160,115,0,89,59,0,

247,120,0,88,58,0,

268,121,0,88,58,0,

265,121,0,88,57,0,

263,120,0,87,57,1,

263,120,0,87,57,0,

261,119,0,86,57,0,

259,130,0,86,57,0,

258,229,0,85,56,0,

255,226,0,85,56,0,

255,224,0,85,56,0,

254,223,0,84,56,0,

252,221,0,83,56,0,

251,220,0,83,55,0,

249,219,0,83,55,0,

249,218,0,83,54,0,

248,217,0,82,54,0,

246,216,0,82,54,0,

245,214,1,88,53,0,

243,213,0,88,54,0,

243,212,0,87,53,0,

241,211,0,86,53,0,

240,210,0,86,52,0,

239,209,0,86,52,0,

237,207,0,85,52,0,

236,207,0,85,52,0,

235,206,0,84,51,0,

234,205,0,83,51,0,

233,204,0,83,51,0,

231,203,0,121,93,0,

231,201,0,125,91,0,

229,199,0,124,91,0,

228,199,0,123,90,0,

227,199,0,122,89,0,

226,198,0,122,89,0,

225,197,0,121,89,0,

224,195,0,121,88,0,

223,195,0,120,88,0,

222,194,0,120,88,0,

221,193,0,119,87,0,

220,192,0,118,86,0,

219,191,0,118,86,0,

217,190,0,117,85,0,

216,189,0,116,85,0,

216,188,0,115,84,0,

214,187,0,115,83,0,

213,186,0,115,83,0,

211,185,0,114,83,0,

211,184,0,113,83,0,

210,184,0,113,82,0,

209,182,0,112,81,0,

207,182,0,112,81,0,

207,181,0,111,81,0,

206,179,0,111,80,0,

205,179,0,110,79,0,

204,178,0,109,79,0,

203,177,0,109,79,0,

202,176,0,108,78,0,

199,176,0,108,78,0,

199,175,0,107,78,0,

199,174,0,106,78,0,

198,173,0,106,77,0,

197,172,0,106,77,0,

196,171,0,105,76,0,

195,171,0,105,76,0,

194,169,0,103,75,0,

193,169,0,103,75,0,

192,167,0,103,75,0,

192,167,0,103,82,0,

191,194,0,102,94,0,

189,193,0,102,94,0,

189,192,0,101,93,0,

188,191,0,100,93,0,

187,189,0,100,92,0,

186,189,0,103,92,0,

185,188,0,103,91,0,

185,187,0,102,91,0,

184,185,0,101,90,0,

183,184,0,101,90,0,

182,231,0,100,89,0,

181,230,0,100,89,0,

180,228,0,99,88,0,

179,227,0,99,88,0,

178,226,0,98,88,0,

178,225,0,98,87,0,

177,224,0,97,87,0,

176,223,0,97,86,0,

175,221,0,96,86,0,

175,220,0,96,85,0,

174,219,0,96,84,0,

173,218,0,95,84,0,

172,217,0,95,83,0,

172,216,0,94,83,0,

171,215,0,94,83,0,

170,213,0,93,83,0,

169,212,0,93,82,0,

167,211,0,93,82,0,

167,210,0,92,81,0,

167,209,0,92,81,0,

166,207,0,91,80,0,

165,207,0,91,79,1,

164,206,0,90,79,0,

164,205,0,90,79,0,

163,204,0,89,79,0,

163,203,0,89,79,0,

162,202,0,89,78,0,

161,201,0,89,78,0,

161,199,0,88,77,0,

159,199,0,88,77,0,

159,198,0,88,76,0,

159,197,0,87,76,0,

158,196,0,86,76,0,

157,195,0,86,76,0,

156,194,0,86,75,0,

156,193,0,85,75,0,

155,192,0,85,75,0,

155,192,0,84,74,0,

153,191,0,83,74,0,

153,190,0,83,73,0,

153,189,0,83,73,0,

152,188,0,83,71,1,

152,187,0,82,71,0,

151,186,0,82,71,0,

150,185,0,82,71,0,

149,185,0,81,126,0,

149,184,0,81,125,0,

148,183,0,80,124,0,

147,182,0,79,124,0,

147,181,0,79,123,0,

146,179,0,79,122,0,

145,179,0,79,121,0,

145,178,0,79,121,0,

143,177,0,78,120,0,

143,176,0,78,119,0,

143,176,0,77,119,0,

142,175,0,77,118,0,

142,174,0,76,117,0,

141,173,0,76,117,0,

140,172,0,76,116,0,

140,172,0,76,115,0,

140,171,0,75,115,0,

139,169,0,75,114,0,

138,169,0,75,113,0,

137,167,0,74,113,0,

137,167,0,73,112,0,

136,166,1,73,112,0,

135,166,0,73,112,0,

