
41,36,0,60,13,0,

41,36,0,60,15,0,

41,36,0,60,15,0,

40,35,0,59,15,0,

40,35,0,59,15,0,

39,35,0,59,15,0,

39,35,0,59,15,0,

39,36,0,59,15,0,

39,35,0,58,15,0,

39,35,0,58,15,0,

39,35,0,58,15,0,

39,35,0,57,15,0,

39,35,0,57,14,0,

39,35,0,57,14,0,

38,35,0,57,14,0,

38,34,0,57,14,0,

38,34,0,56,14,0,

38,34,0,56,14,0,

38,34,0,56,14,0,

37,35,0,56,14,0,

37,36,0,56,14,0,

37,36,0,55,14,0,

37,36,0,56,13,0,

37,35,0,55,13,0,

37,35,0,55,13,0,

36,35,0,55,13,0,

36,35,0,54,13,0,

36,35,0,54,13,0,

36,35,0,54,13,0,

35,35,0,53,13,0,

35,35,0,54,13,0,

35,34,0,53,13,0,

35,34,0,53,13,0,

35,34,0,53,13,0,

35,34,0,52,13,0,

35,34,0,52,12,0,

34,33,0,51,12,0,

34,33,0,52,12,0,

34,33,0,51,12,0,

34,33,0,51,12,0,

34,33,0,51,12,0,

34,33,0,51,12,0,

33,32,0,51,12,0,

33,32,0,51,13,0,

33,32,0,50,12,0,

33,31,0,50,12,0,

33,32,0,50,12,0,

33,32,0,50,17,0,

33,31,0,50,27,0,

33,31,0,50,28,0,

32,31,0,50,28,0,

33,31,0,49,27,0,

32,31,0,49,28,0,

32,31,0,49,27,0,

31,31,0,49,27,0,

31,31,0,48,27,0,

31,30,0,48,27,0,

31,31,0,48,26,0,

31,30,0,48,26,0,

31,30,0,48,26,0,

32,30,0,48,26,0,

32,30,0,48,26,0,

31,30,0,47,26,0,

31,30,0,47,25,0,

31,30,0,47,25,0,

31,29,0,47,25,0,

31,29,0,46,25,0,

31,29,0,46,25,0,

31,29,0,46,25,0,

31,29,0,46,25,0,

30,29,0,46,24,0,

30,29,0,46,24,0,

30,29,0,45,24,0,

30,29,0,45,24,0,

30,29,0,45,24,0,

30,28,0,45,24,0,

30,28,0,45,24,0,

30,28,0,44,24,0,

29,28,0,44,24,0,

29,28,0,44,24,0,

29,28,0,44,24,0,

29,28,0,44,24,0,

29,28,0,44,24,0,

29,28,0,43,23,0,

28,27,0,43,23,0,

28,30,0,43,23,0,

28,30,0,43,23,0,

28,29,0,43,22,0,

28,29,0,43,22,0,

28,29,0,42,22,0,

28,29,0,42,22,0,

28,29,0,42,22,0,

27,28,0,41,22,0,

27,29,0,41,22,0,

27,28,0,41,21,0,

27,28,0,41,21,0,

27,28,0,41,21,0,

27,28,0,41,21,0,

27,32,0,41,21,0,

26,33,0,41,21,0,

26,32,0,41,20,0,

26,31,0,41,20,0,

26,32,0,41,21,0,

26,31,0,39,25,0,

26,31,0,39,32,0,

25,31,0,39,31,0,

25,31,0,39,31,0,

25,31,0,39,31,0,

25,31,0,39,31,0,

25,30,0,39,31,0,

25,30,0,39,31,0,

25,30,0,39,31,0,

26,31,0,39,30,0,

29,31,0,39,30,0,

29,31,0,39,30,0,

29,31,0,39,30,0,

29,31,0,38,30,0,

29,31,0,38,30,0,

28,31,0,38,29,0,

28,30,0,38,29,0,

28,30,0,38,29,0,

28,30,0,38,29,0,

28,30,0,38,29,0,

28,30,0,37,29,0,

28,31,0,37,28,1,

27,31,0,38,28,0,

30,31,0,43,28,0,

30,31,0,42,28,0,

30,31,0,42,28,0,

30,31,0,42,28,0,

30,30,0,41,27,0,

29,30,0,41,27,0,

29,30,0,41,27,0,

29,30,0,41,27,0,

29,30,0,39,27,0,

29,30,0,40,27,0,

29,30,0,40,27,0,

29,29,0,39,26,0,

31,30,0,39,26,0,

30,29,0,39,26,0,

30,29,0,39,26,0,

30,29,0,39,26,0,

30,29,0,39,28,0,

29,29,0,39,28,0,

29,29,0,39,28,0,

29,29,0,39,28,0,

29,28,0,38,27,0,

29,28,0,38,27,0,

29,28,0,38,27,0,

28,28,0,38,27,0,

28,29,0,54,27,0,

29,28,0,54,27,0,

29,28,0,53,26,0,

28,28,0,53,26,0,

28,28,0,53,26,0,

28,28,0,53,26,0,

28,27,0,52,26,0,

28,28,0,52,26,0,

27,27,0,52,26,0,

28,27,0,51,26,0,

27,27,0,51,25,0,

27,27,0,51,25,0,

27,27,0,51,25,0,

37,31,0,51,25,0,

54,32,0,51,25,0,

53,32,0,50,25,0,

53,31,0,50,32,0,

53,32,0,50,37,0,

51,31,0,49,36,0,

51,31,0,49,36,0,

51,31,0,49,36,0,

51,31,0,49,35,0,

51,31,0,49,35,0,

51,30,0,48,35,0,

50,30,0,48,35,0,

50,30,0,48,35,0,

56,71,0,58,34,0,

86,80,0,60,34,0,

88,79,0,59,34,0,

87,79,0,59,34,0,

87,79,0,59,34,0,

86,78,0,58,34,0,

85,78,0,58,34,0,

85,78,0,57,33,0,

84,77,0,57,33,0,

83,77,0,57,33,0,

83,76,0,57,33,0,

83,76,0,57,33,0,

83,76,0,56,32,0,

82,75,0,56,32,0,

82,75,0,56,32,0,

82,75,0,56,31,0,

81,74,0,56,31,0,

81,73,0,55,31,0,

80,73,0,55,31,0,

80,73,0,54,31,0,

80,72,0,55,31,0,

79,71,0,54,31,0,

79,71,0,54,31,0,

79,71,0,53,53,0,

78,71,0,53,52,0,

78,71,0,53,53,0,

78,71,0,53,52,0,

80,70,0,52,51,0,

86,70,0,52,51,0,

86,70,0,52,51,0,

85,70,0,52,51,0,

85,69,0,51,50,0,

85,68,0,51,50,0,

84,68,0,51,50,0,

83,68,0,51,50,0,

83,67,0,51,49,0,

83,67,0,51,49,0,

82,67,0,50,49,0,

82,67,0,50,49,0,

82,66,0,84,48,0,

81,66,0,83,48,0,

81,66,0,83,48,0,

80,65,0,83,48,0,

80,65,0,82,48,0,

79,65,0,82,48,0,

79,64,0,81,47,0,

79,64,0,81,46,0,

79,63,0,80,46,0,

78,63,0,80,46,1,

78,63,0,79,46,0,

78,63,0,79,46,0,

77,63,0,79,46,0,

77,63,0,101,45,0,

76,63,0,100,45,0,

76,63,0,100,45,0,

76,63,0,99,45,0,

76,63,0,99,44,1,

75,62,0,99,44,0,

75,62,0,97,44,0,

74,62,0,97,43,0,

74,61,0,97,43,0,

73,61,0,96,43,0,

73,61,0,96,43,0,

73,61,0,96,43,0,

73,61,0,95,43,0,

107,60,0,94,43,0,

169,60,0,94,43,0,

167,60,0,94,42,0,

166,60,0,93,42,0,

165,60,0,93,42,0,

165,60,0,93,41,0,

163,59,0,92,42,0,

163,59,0,91,41,0,

162,58,0,91,41,0,

161,58,0,91,41,0,

160,58,0,90,41,0,

159,57,0,90,39,0,

159,57,0,90,39,0,

159,58,0,89,39,0,

157,58,0,89,39,0,

169,57,0,88,39,1,

167,57,0,88,39,0,

167,57,0,88,39,0,

167,57,0,88,39,0,

166,56,0,88,39,0,

165,56,0,87,38,0,

164,56,0,86,38,0,

163,56,0,86,38,0,

163,55,0,86,38,0,

162,56,0,85,38,0,

161,55,0,85,37,0,

163,55,0,84,38,0,

162,55,0,84,37,0,

161,55,0,83,37,0,

159,54,0,83,37,0,

159,54,0,83,36,0,

159,54,0,82,36,0,

158,53,0,82,36,0,

157,54,0,82,35,0,

157,53,0,81,36,0,

156,53,0,81,35,0,

155,53,0,80,35,0,

154,52,0,79,35,0,

166,54,0,102,35,0,

171,53,0,103,35,0,

214,53,0,102,35,0,

236,52,0,102,34,0,

234,53,0,101,34,0,

231,52,0,100,34,0,

231,52,1,99,34,0,

230,51,0,99,34,0,

229,51,0,98,33,1,

227,51,0,98,33,0,

227,51,0,97,33,0,

225,51,0,97,33,0,

224,50,0,97,33,0,

223,50,0,96,33,0,

222,50,0,96,32,0,

221,49,0,96,32,0,

220,49,0,95,31,0,

219,49,0,95,31,0,

217,48,0,94,31,0,

216,48,0,94,31,0,

216,48,0,93,31,0,

215,48,0,93,31,0,

214,48,0,92,31,0,

213,47,0,92,31,0,

211,48,0,92,31,0,

211,47,0,92,30,0,

209,47,0,92,30,0,

209,46,0,91,30,0,

207,46,0,91,77,0,

207,46,0,90,77,0,

206,46,0,89,76,0,

205,46,0,89,76,1,

204,46,0,89,76,0,

203,45,0,89,75,0,

202,45,0,88,74,0,

201,45,0,88,74,0,

199,45,0,88,73,0,

199,44,0,87,73,0,

198,44,0,86,73,0,

198,44,0,86,71,0,

197,44,0,86,71,0,

195,43,0,85,71,0,

195,43,0,85,71,0,

194,43,0,84,71,0,

193,43,0,84,71,0,

192,43,0,84,70,0,

192,43,0,83,70,0,

190,43,0,83,70,0,

190,42,0,82,70,0,

189,42,0,82,69,0,

188,42,0,82,68,1,

187,41,0,81,68,0,

187,41,0,81,68,0,

185,41,0,80,67,0,

185,41,0,80,67,0,

184,41,0,80,67,0,

183,39,0,79,66,0,

182,39,0,79,66,0,

182,39,0,79,66,0,

181,39,0,79,65,0,

180,39,0,78,65,0,

179,39,0,78,65,0,

179,39,0,78,65,0,

178,39,0,78,64,0,

183,39,0,77,63,0,

182,39,0,77,63,0,

181,39,0,76,63,0,

180,38,0,76,63,0,

179,38,0,76,63,0,

178,38,0,75,62,0,

178,38,0,75,62,0,

177,38,0,75,62,0,

176,37,0,74,61,0,

175,37,0,74,61,0,

174,54,0,74,61,0,

174,62,0,73,61,0,

173,61,0,73,60,0,

172,61,0,73,60,0,

171,60,0,71,60,0,

171,60,0,71,62,0,

170,60,0,71,62,0,

169,60,0,71,61,0,

167,59,0,71,61,0,

172,59,0,71,61,0,

171,59,0,71,60,0,

169,58,0,70,60,0,

169,91,0,70,60,0,

167,107,1,85,60,0,

167,163,0,109,60,0,

167,161,0,108,59,0,

166,159,0,107,59,0,

165,159,0,106,59,0,

164,158,0,105,58,0,

163,157,0,105,58,0,

163,156,1,103,57,0,

162,155,0,103,57,0,

161,154,0,103,57,0,

159,153,0,103,57,0,

159,153,0,102,56,0,

159,152,0,102,56,0,

158,151,0,101,57,0,

157,150,0,101,57,0,

156,149,0,100,56,0,

156,148,0,99,56,0,

155,147,0,99,56,0,

154,147,0,99,56,0,

153,146,0,98,55,0,

153,145,0,98,55,0,

152,145,0,97,55,0,

152,143,0,97,54,0,

151,143,0,96,54,0,

150,142,0,96,54,0,

150,142,1,95,54,0,

149,141,0,95,53,0,

148,140,0,94,53,0,

147,140,0,94,52,0,

147,139,0,94,52,0,

146,139,0,93,52,0,

145,138,0,93,52,0,

145,137,0,92,51,0,

144,135,0,92,51,0,

143,135,1,91,51,0,

143,135,1,91,51,1,

143,134,0,91,51,0,

142,134,0,90,51,0,

141,133,0,90,50,0,

141,133,0,89,50,0,

140,132,0,89,49,0,

140,131,0,88,49,0,

139,131,0,88,49,0,

138,130,0,88,48,0,

138,130,0,87,48,0,

137,135,0,87,49,0,

135,134,0,86,48,0,

135,133,0,86,48,0,

135,133,0,85,48,0,

135,132,0,85,48,0,

134,131,0,85,47,0,

134,130,0,84,47,0,

133,130,0,83,46,0,

132,129,0,83,46,0,

132,129,0,83,46,0,

131,127,1,83,46,0,

131,127,0,82,45,0,

130,126,0,82,46,0,

130,126,0,101,45,0,

129,125,0,100,45,0,

128,125,0,99,45,0,

127,124,0,99,45,0,

127,124,0,99,44,0,

127,123,0,98,44,0,

126,123,0,98,44,0,

126,122,0,97,43,0,

125,121,0,96,44,0,

125,121,0,96,43,0,

124,121,0,96,43,0,

124,120,0,95,43,0,

123,120,1,94,43,0,

123,119,0,94,42,0,

122,118,0,94,42,0,

121,118,0,93,47,0,

121,117,0,93,47,0,

120,116,0,92,46,1,

120,116,0,92,46,0,

120,115,0,92,46,0,

119,115,0,91,45,0,

118,114,0,90,45,0,

118,146,1,90,45,0,

169,271,0,89,45,0,

230,276,0,89,45,0,

227,274,0,89,44,0,

226,271,0,88,44,0,

225,270,1,88,44,0,

224,269,0,88,43,0,

222,268,0,87,44,0,

221,265,0,87,43,0,

220,265,0,86,42,0,

219,263,0,86,42,0,

217,262,0,85,42,0,

216,261,1,85,42,0,

216,259,0,85,41,0,

214,258,0,84,42,1,

213,255,0,84,41,0,

211,255,0,83,41,0,

211,253,0,83,41,0,

210,252,0,83,63,0,

209,251,0,82,81,0,

207,249,0,82,81,0,

207,248,0,82,80,1,

206,247,0,81,79,0,

205,245,0,81,79,0,

204,246,0,80,79,0,

203,246,0,81,78,0,

201,245,0,79,78,0,

199,243,0,79,78,0,

199,242,1,79,77,0,

199,241,0,78,78,0,

198,240,0,78,78,0,

197,239,0,78,78,0,

196,238,0,78,77,0,

195,237,0,77,77,0,

194,236,0,77,76,0,

193,234,0,77,76,0,

192,233,0,76,76,1,

192,231,0,76,75,0,

190,231,0,76,75,0,

190,230,0,75,75,0,

189,229,0,75,74,0,

188,227,0,75,74,0,

187,227,0,75,73,0,

186,225,0,74,73,0,

185,224,0,73,73,0,

185,224,0,73,71,0,

184,231,0,73,71,0,

183,231,0,71,71,0,

182,229,0,71,71,0,

181,228,0,71,71,0,

180,227,1,71,71,0,

179,226,0,71,70,0,

179,225,0,71,70,1,

178,224,0,71,70,1,

177,223,0,71,69,1,

176,222,0,70,69,0,

176,220,0,70,68,0,

174,220,1,69,68,0,

173,218,0,69,67,0,

173,245,1,69,67,1,

176,325,1,68,67,0,

176,321,0,68,67,1,

175,319,1,67,66,1,

175,317,1,67,68,0,

174,316,0,67,68,1,

173,313,1,67,68,1,

172,312,1,67,67,1,

172,311,1,66,67,1,

170,308,1,66,67,1,

169,307,1,65,77,1,

169,305,1,65,77,1,

167,304,1,70,76,1,

167,302,1,71,76,1,

166,300,1,70,75,1,

166,299,1,70,75,1,

165,295,1,70,75,1,

164,295,1,69,74,1,

163,294,1,69,74,1,

163,292,1,68,74,1,

162,291,1,67,73,1,

161,289,1,67,73,1,

159,287,1,67,73,1,

159,286,1,67,71,1,

159,285,1,66,71,1,

158,284,1,66,71,1,

158,282,1,66,78,1,

157,280,1,66,78,1,

156,279,1,65,77,1,

156,278,1,65,77,2,

155,275,2,65,76,1,

154,275,1,64,76,1,

153,274,1,63,75,1,

153,271,1,63,75,1,

152,271,1,63,75,1,

152,269,1,63,74,1,

194,268,1,71,74,2,

192,267,2,78,73,1,

191,265,1,78,73,1,

190,263,1,77,73,1,

189,263,2,76,83,2,

188,262,1,76,102,1,

187,260,1,76,100,1,

186,259,1,75,100,1,

185,257,2,75,99,2,

184,256,1,74,99,2,

184,255,1,74,98,1,

183,254,1,73,98,1,

181,253,1,73,97,1,

180,252,1,73,97,1,

179,250,1,72,96,1,

178,249,1,71,96,1,

178,248,2,71,95,2,

177,247,1,71,95,1,

176,246,1,71,94,1,

175,244,1,70,94,1,

174,243,1,70,93,1,

173,242,1,70,93,1,

172,241,1,70,92,1,

172,240,1,71,92,1,

171,239,1,71,92,1,

170,238,1,71,91,1,

169,237,1,71,93,1,

167,236,1,71,92,1,

167,234,1,70,92,1,

167,233,1,70,92,1,

166,231,1,69,91,1,

165,231,1,69,91,1,

165,230,1,69,90,1,

164,229,1,68,89,1,

163,228,1,68,89,1,

162,227,1,68,89,1,

170,226,1,67,96,1,

169,225,1,77,101,1,

167,224,1,77,100,1,

167,223,1,77,99,1,

166,222,1,76,99,1,

166,221,1,76,98,1,

164,220,1,75,98,1,

163,219,1,75,97,1,

163,218,1,74,97,1,

162,217,1,74,96,1,

161,216,1,73,96,1,

160,215,1,94,96,1,

159,214,1,98,95,1,

159,213,1,97,95,1,

158,212,1,97,94,1,

158,211,1,97,93,1,

157,210,1,96,93,1,

156,209,1,96,92,1,

156,208,1,95,92,1,

155,207,1,94,91,1,

154,207,1,94,91,1,

153,206,1,94,91,1,

153,204,1,93,90,1,

152,204,1,93,90,1,

209,203,1,92,89,1,

293,202,1,92,89,1,

290,201,1,91,88,1,

287,199,1,91,141,1,

286,199,1,90,139,1,

284,198,1,90,138,1,

283,197,1,89,137,1,

281,196,1,89,135,2,

280,195,1,88,135,1,

278,195,1,88,135,1,

276,194,1,88,134,1,

275,193,1,87,133,1,

273,192,1,87,132,1,

271,287,1,86,131,1,

270,284,1,86,131,1,

269,283,1,86,130,1,

267,281,1,85,129,1,

265,280,1,84,129,1,

263,277,1,84,128,1,

263,275,1,83,127,1,

262,274,1,83,127,1,

260,273,1,83,126,1,

259,271,0,82,125,1,

257,270,1,81,125,1,

255,268,1,81,124,1,

254,267,1,81,124,1,

253,265,1,81,147,1,

252,263,1,80,146,1,

251,262,1,79,145,1,

249,261,1,79,144,1,

248,259,1,79,143,1,

247,258,1,78,143,1,

246,257,1,78,142,1,

244,255,1,78,141,1,

243,254,1,78,140,1,

242,253,1,77,140,1,

241,251,1,77,139,0,

239,250,1,76,138,1,

238,249,1,76,137,1,

237,248,1,76,137,1,

236,246,1,75,135,1,

235,245,1,75,135,1,

233,243,1,74,135,1,

231,243,1,74,134,1,

231,242,1,74,133,1,

231,251,1,108,132,1,

229,248,1,107,131,1,

227,248,1,106,131,1,

227,246,1,105,131,1,

225,244,1,105,130,1,

224,243,1,103,129,1,

223,241,1,103,128,1,

222,240,1,103,127,1,

221,239,1,103,127,1,

220,268,0,102,126,0,

219,267,1,101,126,1,

248,396,1,101,125,1,

361,539,1,100,124,1,

356,531,1,99,124,0,

353,527,1,99,123,1,

351,524,0,99,123,1,

348,519,1,98,122,1,

347,515,1,97,121,1,

344,511,1,97,120,1,

342,508,1,96,120,1,

339,504,1,103,120,1,

338,500,1,120,119,1,

335,497,1,120,118,1,

334,494,1,118,118,1,

332,489,1,118,117,1,

330,487,1,117,116,1,

327,483,1,116,115,1,

326,480,1,116,115,1,

324,477,1,115,115,1,

322,473,1,114,114,1,

319,471,1,114,113,1,

318,467,1,113,113,1,

316,463,1,113,112,1,

315,461,1,112,112,1,

313,459,1,111,111,1,

312,455,1,111,111,1,

309,452,1,110,110,1,

307,449,1,110,109,1,

306,446,1,109,109,1,

304,444,1,108,108,1,

302,441,1,108,108,1,

301,438,1,107,107,1,

300,435,1,107,107,1,

297,433,1,107,106,1,

295,430,1,105,105,1,

295,428,1,105,105,1,

293,425,1,105,103,1,

291,423,1,103,103,1,

289,420,1,103,103,1,

287,417,1,103,103,1,

286,415,1,102,102,1,

285,413,1,102,102,1,

284,410,1,101,102,1,

281,408,1,103,101,1,

280,405,1,102,100,1,

280,403,1,102,99,1,

278,400,1,101,99,1,

276,398,1,101,99,1,

275,396,1,100,99,1,

273,393,1,100,98,1,

271,391,1,99,97,1,

271,390,1,99,97,1,

270,387,1,98,97,1,

268,385,1,98,96,1,

267,384,1,97,96,1,

265,382,1,96,96,1,

263,380,1,97,95,1,

263,377,1,96,94,1,

262,376,1,96,94,1,

261,374,1,95,94,1,

259,371,1,95,93,1,

258,370,1,94,93,1,

257,368,1,93,92,1,

255,366,1,93,92,1,

255,364,1,93,91,1,

253,362,1,92,91,1,

253,414,1,155,91,1,

301,575,1,166,90,1,

372,694,1,164,90,1,

369,684,1,163,89,1,

367,678,1,162,89,1,

364,671,1,161,88,1,

362,665,1,159,88,1,

359,660,1,159,88,1,

358,654,1,158,88,1,

355,649,1,158,87,1,

353,643,1,157,87,1,

352,638,1,156,89,1,

349,633,1,195,106,1,

347,628,1,193,105,1,

345,622,1,192,104,1,

343,619,1,191,103,1,

341,614,1,189,103,1,

339,608,1,188,103,1,

337,604,1,187,102,1,

335,600,1,186,102,1,

333,594,1,185,101,1,

331,589,1,184,100,1,

329,585,1,183,100,1,

327,582,1,182,99,1,

325,577,1,181,99,1,

323,573,1,180,98,2,

322,569,1,179,98,1,

319,565,1,178,149,1,

318,560,1,177,147,1,

316,557,1,177,146,1,

315,553,1,176,145,1,

313,549,1,175,145,1,

312,545,1,174,143,1,

310,542,1,173,143,1,

307,538,1,172,142,1,

306,534,1,172,141,1,

304,530,1,171,140,1,

302,527,1,169,140,1,

301,524,1,167,139,1,

299,519,1,167,138,1,

297,516,1,167,137,1,

295,514,1,167,137,1,

295,510,1,165,135,1,

293,506,1,164,135,1,

291,503,1,164,135,1,

290,499,1,163,134,1,

288,496,1,162,133,1,

287,493,1,161,132,1,

285,489,2,160,131,1,

284,487,1,159,131,1,

282,483,1,159,130,1,

281,481,2,158,130,2,

280,478,1,157,129,1,

278,475,2,156,127,2,

277,472,2,156,127,2,

275,469,2,155,127,2,

274,466,2,154,126,2,

272,463,2,153,125,2,

271,460,2,153,125,2,

269,457,2,152,124,2,

268,455,2,152,123,2,

267,451,2,151,123,2,

265,449,2,150,122,2,

263,447,2,149,121,2,

262,444,2,148,121,2,

261,441,2,147,120,3,

259,439,2,147,120,2,

259,435,2,146,119,2,

257,433,2,145,119,2,

255,431,2,145,117,2,

254,428,2,143,117,2,

253,425,3,143,116,2,

252,423,2,142,116,3,

251,420,2,142,115,3,

249,419,2,141,115,2,

248,418,2,140,114,3,

247,415,2,140,113,2,

246,412,3,139,113,2,

244,410,2,139,113,2,

243,408,2,138,112,2,

242,406,2,137,111,2,

241,403,2,137,111,2,

240,400,2,135,110,2,

238,399,2,135,110,2,

237,396,2,134,109,2,

236,394,2,134,108,2,

235,391,2,133,108,2,

233,390,2,132,108,2,

233,387,2,132,107,2,

231,385,2,131,106,2,

230,384,2,131,106,2,

229,381,2,130,105,2,

228,379,2,129,105,2,

227,377,2,129,103,2,

225,375,2,128,103,2,

225,373,2,127,103,2,

224,371,2,127,103,2,

245,369,2,126,102,2,

273,367,2,126,102,2,

271,365,2,125,101,2,

270,363,2,125,101,2,

268,361,2,124,99,2,

267,359,2,123,99,1,

265,357,2,123,99,2,

263,355,2,123,99,2,

262,354,2,122,105,2,

260,352,2,121,105,2,

259,350,2,121,103,2,

257,348,2,120,103,1,

255,347,2,124,103,2,

255,344,1,147,103,1,

253,343,1,146,102,2,

252,341,2,145,101,1,

250,339,2,143,101,2,

249,337,1,143,107,2,

248,335,1,142,106,2,

246,334,1,142,105,1,

245,332,1,141,105,1,

243,331,1,140,105,2,

242,329,2,140,103,2,

241,327,2,139,103,2,

239,326,1,138,103,1,

238,323,1,137,102,2,

237,322,1,135,102,1,

236,321,1,135,101,1,

235,319,1,135,101,1,

233,318,1,135,100,1,

231,316,1,134,99,1,

231,315,1,133,99,1,

230,313,1,132,99,2,

228,312,1,131,98,2,

227,310,1,131,97,1,

226,308,1,130,97,1,

225,307,1,129,97,1,

224,305,1,129,96,1,

223,304,1,128,96,1,

222,303,1,127,95,2,

221,301,2,127,95,1,

220,300,1,126,94,1,

219,299,1,126,94,1,

218,297,1,125,93,1,

217,295,1,125,93,1,

216,295,1,124,92,1,

215,293,1,124,92,1,

214,291,1,123,92,1,

213,290,1,122,91,1,

211,289,1,121,91,1,

211,287,1,121,90,1,

210,286,1,121,90,1,

209,285,1,120,89,1,

207,283,1,120,89,1,

207,283,1,119,89,1,

206,281,1,119,88,1,

205,280,1,118,88,1,

204,279,1,117,88,1,

203,278,1,117,87,1,

203,276,1,116,87,1,

201,275,1,116,86,1,

200,274,1,115,86,1,

199,271,1,115,85,1,

199,271,1,114,85,1,

198,270,1,113,87,1,

197,268,1,113,86,1,

196,268,1,113,85,1,

195,266,1,112,85,1,

194,265,1,112,84,1,

193,263,1,111,84,1,

193,262,1,111,83,1,

192,261,1,110,83,1,

191,260,1,110,83,1,

190,259,1,110,83,1,

189,258,1,109,82,1,

188,257,1,108,82,1,

188,255,1,108,81,1,

187,254,1,116,81,1,

186,254,1,115,80,1,

185,252,1,115,80,1,

184,251,1,115,79,1,

184,250,1,114,79,1,

183,249,1,113,79,1,

182,248,1,113,79,1,

181,247,1,112,78,1,

180,246,1,112,78,0,

179,244,1,111,77,1,

179,243,1,110,77,1,

178,242,1,110,77,0,

177,241,1,110,76,1,

176,240,1,109,76,1,

176,239,1,108,76,1,

175,238,1,108,76,1,

174,237,1,107,75,0,

173,236,1,107,75,0,

173,235,1,106,74,1,

172,234,1,106,73,1,

171,233,1,105,73,1,

170,231,1,105,73,1,

170,231,1,103,73,1,

201,230,0,103,71,0,

235,249,1,103,71,1,

233,249,0,103,71,0,

231,247,1,103,71,1,

231,246,1,102,71,0,

229,243,0,102,71,0,

227,243,0,101,71,1,

227,241,1,101,70,1,

225,240,1,101,70,1,

224,239,0,100,69,0,

223,237,1,99,69,0,

222,254,1,99,69,1,

221,252,1,99,69,1,

220,251,1,98,68,0,

218,249,1,98,67,1,

217,248,1,97,67,0,

216,246,1,97,67,1,

216,245,1,96,67,0,

214,243,0,96,67,1,

213,242,1,96,105,0,

211,241,0,95,105,0,

210,240,0,95,103,1,

209,238,0,94,103,1,

208,237,0,94,103,0,

207,236,0,94,102,1,

207,235,0,93,102,0,

206,233,1,93,101,1,

205,231,1,93,101,0,

204,231,0,92,100,0,

202,230,0,91,99,0,

201,229,0,91,99,0,

199,228,0,91,99,0,

199,227,0,91,98,0,

199,226,0,102,97,0,

198,225,1,143,128,0,

197,224,0,143,127,1,

195,223,1,142,126,0,

195,222,0,141,126,1,

193,221,0,140,125,1,

192,220,0,140,124,0,

192,219,0,138,123,0,

190,218,0,137,123,0,

190,217,0,137,122,0,

189,216,1,135,121,0,

188,215,1,135,121,0,

186,214,0,135,120,0,

185,213,0,134,120,0,

185,211,1,133,119,0,

184,211,0,133,118,1,

183,210,0,132,117,0,

182,209,1,131,117,0,

181,207,0,131,116,0,

180,207,0,130,115,0,

179,206,0,129,115,0,

179,206,0,128,114,0,

177,204,0,127,114,1,

177,204,1,127,113,0,

175,203,0,126,113,0,

175,202,1,126,112,0,

174,201,0,125,111,0,

173,199,1,125,111,0,

172,199,0,124,110,1,

172,198,0,124,110,0,

171,197,0,123,109,0,

170,197,0,122,108,0,

169,196,0,121,108,0,

167,195,0,121,107,0,

167,194,0,120,107,0,

167,193,0,120,105,0,

166,193,0,119,105,0,

165,192,1,119,105,0,

164,191,0,118,103,1,

163,190,0,117,103,0,

163,189,0,117,103,0,

162,188,1,115,103,0,

161,187,0,115,102,0,

160,187,0,115,102,0,

159,186,0,114,101,0,

159,185,0,114,101,0,

158,184,0,113,100,0,

157,184,0,113,105,0,

157,182,0,112,104,0,

156,182,0,111,103,1,

156,181,1,111,103,0,

155,180,0,110,103,0,

154,179,0,110,103,0,

153,179,0,109,102,0,

153,178,0,109,101,0,

152,177,0,108,101,0,

152,176,0,108,100,0,

150,176,0,107,99,0,

150,175,0,107,99,0,

150,174,0,106,99,0,

149,173,0,105,98,0,

148,172,0,105,98,0,

147,172,0,103,97,0,

147,171,0,103,97,0,

146,170,0,103,96,1,

145,169,0,103,96,0,

145,169,0,103,95,0,

144,167,0,102,95,0,

143,167,0,102,95,0,

143,167,0,101,94,1,

142,167,0,101,93,0,

142,165,0,100,93,0,

141,165,0,99,92,1,

141,163,0,99,92,0,

140,163,0,99,92,1,

140,163,0,99,91,0,

139,162,0,98,91,0,

139,161,0,98,90,0,

138,161,0,97,89,0,

137,161,0,97,94,0,

137,159,0,96,93,0,

135,159,0,96,92,0,

135,158,0,96,92,0,

135,158,0,95,92,0,

134,157,0,94,91,1,

134,156,0,94,91,0,

134,156,0,94,90,0,

133,155,0,94,90,0,

132,155,0,93,89,0,

131,154,0,93,89,0,

131,153,0,92,88,0,

131,153,0,92,88,0,

130,152,0,91,88,0,

130,152,0,91,88,0,

129,151,0,91,87,0,

128,151,0,90,87,0,

128,150,0,89,86,0,

127,149,0,89,86,0,

127,149,0,89,85,0,

127,148,0,88,84,0,

126,147,0,88,85,0,

153,147,0,145,84,0,

152,146,0,143,83,0,

151,146,0,142,83,0,

150,145,0,142,83,1,

149,144,0,141,82,0,

148,143,0,140,82,0,

147,143,0,140,82,0,

147,143,0,139,81,0,

146,142,0,138,81,0,

145,142,0,137,80,0,

144,141,0,136,80,0,

143,140,0,135,79,1,

143,140,0,135,79,1,

142,139,0,134,79,0,

142,139,0,134,78,0,

141,138,0,133,78,0,

140,137,0,132,78,0,

139,137,0,131,77,0,

139,136,0,131,77,0,

138,135,0,130,77,0,

137,135,0,130,76,0,

137,135,0,129,76,0,

135,134,0,129,76,0,

135,177,0,127,89,0,

170,176,0,127,88,0,

167,174,0,126,88,0,

167,173,1,126,87,0,

166,173,0,125,87,0,

166,172,0,124,86,0,

164,171,0,124,85,0,

163,170,0,124,85,0,

163,169,0,123,85,1,

162,167,0,122,83,0,

161,167,0,121,83,0,

159,166,0,121,83,0,

159,165,0,120,83,0,

158,164,0,120,82,0,

158,163,0,119,82,0,

156,163,0,119,81,0,

156,162,0,118,81,0,

155,161,0,118,81,0,

155,160,0,117,79,0,

153,159,0,116,79,0,

152,159,0,115,79,0,

152,158,0,115,79,0,

152,157,0,115,78,0,

151,156,0,114,78,0,

150,155,0,113,78,0,

149,155,0,113,77,0,

148,153,0,113,77,0,

147,153,0,112,76,0,

147,152,0,111,76,0,

146,152,0,111,76,0,

145,151,0,111,76,0,

144,150,0,110,75,0,

143,149,0,109,75,0,

161,149,0,109,74,0,

213,148,0,108,73,0,

211,147,0,108,73,0,

210,146,0,107,73,0,

208,146,0,107,73,0,

207,145,0,106,73,0,

206,143,0,106,71,0,

205,143,0,105,71,0,

204,143,0,105,71,0,

203,142,0,103,71,0,

202,141,0,103,71,0,

201,141,0,103,70,0,

199,140,0,103,70,0,

199,139,0,102,70,0,

198,139,0,102,69,0,

196,138,0,101,69,0,

195,137,0,101,69,0,

195,137,0,100,68,0,

193,135,0,100,68,0,

192,135,0,99,67,0,

192,135,0,99,67,0,

190,134,0,99,67,0,

190,134,0,98,66,0,

189,133,0,98,66,0,

188,132,0,97,66,0,

187,132,0,97,66,0,

186,132,0,96,65,0,

185,131,0,96,65,0,

184,131,0,96,65,0,

184,130,0,95,66,0,

183,129,0,94,71,0,

182,129,0,94,71,0,

181,128,0,94,71,0,

179,127,0,93,71,0,

179,127,0,93,71,0,

178,127,0,92,70,0,

177,126,0,92,70,0,

177,126,0,92,70,0,

176,125,0,91,69,0,

175,125,0,91,69,1,

174,124,0,91,69,0,

173,124,0,90,68,0,

172,124,0,89,68,0,

172,123,0,89,67,0,

171,122,0,89,67,0,

170,122,0,88,67,0,

169,121,0,88,67,0,

169,121,0,88,66,0,

167,121,0,88,66,0,

167,120,0,88,66,0,

166,120,0,87,65,0,

166,119,0,86,65,0,

165,119,0,86,65,0,

164,118,0,86,64,0,

163,118,0,85,63,0,

163,118,0,85,63,0,

162,117,0,84,63,0,

161,116,0,84,63,0,

160,116,0,86,63,0,

159,115,0,86,63,0,

159,115,0,86,62,0,

158,115,0,85,62,0,

157,114,0,84,61,0,

157,113,0,84,61,0,

156,113,0,84,61,0,

156,113,0,83,61,0,

155,112,0,83,60,0,

153,112,0,83,60,0,

153,111,0,82,60,0,

152,111,0,82,60,0,

152,110,0,82,59,0,

151,110,0,81,59,0,

150,110,0,81,59,0,

150,110,0,80,59,0,

149,109,0,80,58,0,

148,108,0,79,57,0,

147,108,0,79,58,0,

147,108,0,79,57,0,

146,107,0,79,57,0,

145,107,0,78,57,0,

145,106,0,78,57,0,

143,106,0,78,56,0,

143,105,0,77,56,0,

143,105,0,77,56,0,

142,105,0,77,56,0,

142,103,0,76,55,0,

141,103,0,76,56,0,

140,103,0,76,55,0,

140,103,0,76,55,0,

139,103,0,75,54,0,

138,102,0,75,54,0,

138,102,0,74,54,0,

137,101,0,74,53,0,

137,101,0,120,92,0,

135,101,0,141,96,0,

135,186,0,140,96,0,

135,222,0,139,95,0,

134,220,0,138,94,0,

134,219,0,137,94,0,

133,217,0,137,93,0,

132,216,0,135,92,0,

131,215,0,135,92,0,

131,214,0,134,91,0,

131,212,0,133,91,0,

130,211,0,133,91,0,

129,210,0,132,90,0,

129,209,0,131,89,0,

127,207,0,131,89,0,

127,207,0,130,89,0,

127,206,0,130,88,0,

163,205,0,129,88,0,

163,204,0,128,88,0,

161,202,0,127,86,0,

161,201,0,127,86,0,

159,199,0,126,86,0,

159,199,0,126,85,0,

158,198,0,125,85,0,

157,197,0,124,84,0,

156,196,0,124,84,0,

156,195,0,123,83,0,

155,194,0,122,83,0,

155,193,0,122,83,0,

153,192,0,121,82,0,

153,192,0,121,82,0,

152,190,0,120,82,0,

152,189,0,120,81,0,

151,188,0,120,81,0,

150,188,0,119,81,0,

149,187,0,118,79,0,

148,186,0,117,79,0,

147,185,0,117,79,0,

147,184,0,116,134,0,

146,184,0,116,134,0,

145,182,0,115,132,0,

145,181,0,115,131,1,

143,179,0,114,130,0,

143,179,0,114,130,0,

142,178,0,113,129,0,

142,177,0,112,128,0,

141,176,0,112,127,0,

140,175,0,111,126,0,

140,175,0,110,126,0,

138,174,0,110,133,0,

138,173,0,110,132,0,

137,172,0,109,131,0,

135,171,0,108,131,0,

135,170,0,108,130,0,

135,169,0,107,129,0,

134,167,0,107,128,0,

134,167,0,106,127,0,

133,167,0,106,127,0,

132,166,0,105,126,0,

131,165,0,105,125,0,

131,164,0,103,125,0,

130,163,0,103,124,0,

129,162,0,103,124,0,

129,162,0,103,123,0,

128,161,0,102,122,0,

127,159,0,101,121,0,

127,159,0,101,120,0,

126,158,0,101,120,0,

126,158,0,100,120,0,

125,157,0,99,119,0,

125,156,0,99,118,0,

124,156,0,99,118,0,

123,155,0,98,117,0,

123,154,0,98,116,0,

123,153,0,97,115,0,

122,152,0,97,115,0,

121,152,0,96,114,0,

121,151,0,96,114,0,

120,150,0,96,113,0,

120,150,0,95,113,0,

141,149,0,95,112,0,

140,148,0,94,112,0,

139,147,0,94,111,0,

138,147,0,93,111,0,

137,146,0,93,110,0,

137,145,0,92,110,0,

135,145,0,92,109,0,

135,143,0,92,108,0,

134,143,0,91,108,0,

134,143,0,91,108,0,

133,142,0,91,107,0,

132,141,0,90,106,0,

131,140,0,89,105,0,

131,140,0,89,105,0,

131,139,0,88,105,0,

129,139,0,88,103,0,

129,138,0,88,103,0,

128,137,0,87,103,0,

127,136,0,87,103,0,

127,135,0,86,102,0,

126,135,0,86,102,0,

126,135,0,86,101,0,

125,134,0,85,103,1,

124,134,0,85,103,0,

124,133,0,84,103,0,

123,133,0,84,102,0,

123,131,0,83,102,0,

122,131,0,83,102,0,

121,131,0,83,101,0,

121,130,0,82,101,0,

120,129,0,82,100,0,

120,129,0,82,99,0,

119,128,0,81,99,0,

119,127,0,81,98,0,

118,127,0,80,98,0,

117,126,0,80,98,0,

117,126,0,79,97,0,

116,125,0,79,97,0,

115,125,0,79,96,0,

115,124,0,79,96,0,

115,124,0,79,96,0,

115,123,0,78,95,0,

114,123,0,78,94,0,

114,122,0,78,94,0,

113,121,0,77,94,0,

113,121,0,77,94,0,

112,121,0,76,93,0,

112,120,0,76,93,0,

112,120,0,76,92,0,

111,119,0,75,92,0,

111,119,0,76,91,0,

110,118,0,75,90,0,

110,117,0,74,90,0,

109,117,0,74,90,0,

109,117,0,74,89,0,

108,115,0,73,89,0,

108,115,0,73,89,0,

108,115,0,73,88,0,

107,115,0,71,88,0,

107,114,0,71,88,0,

106,113,0,71,87,0,

106,113,0,71,86,0,

105,112,0,71,86,0,

105,112,0,71,86,0,

103,112,0,71,85,0,

103,111,0,70,85,0,

103,111,0,70,84,0,

103,110,0,70,84,0,

103,110,0,69,84,0,

103,109,0,69,83,0,

102,109,0,69,83,0,

102,108,0,68,82,0,

102,108,0,68,82,0,

101,108,0,68,82,0,

101,107,0,67,81,0,

100,107,0,67,81,0,

99,106,0,67,81,0,

99,106,0,67,80,0,

99,105,0,66,80,0,

99,105,0,103,79,0,

98,103,0,123,79,0,

98,103,0,122,79,0,

97,103,0,121,78,0,

97,103,0,120,78,0,

97,103,0,120,78,0,

96,102,0,120,78,0,

96,102,0,118,77,0,

96,101,0,118,77,0,

96,101,0,117,76,0,

95,101,0,116,76,0,

94,100,0,116,76,0,

94,99,0,115,76,0,

94,99,0,115,75,0,

94,99,0,115,75,0,

93,98,0,114,74,0,

93,98,0,113,74,0,

93,98,0,113,74,0,

92,97,0,112,73,0,

92,97,0,112,73,0,

92,97,0,112,73,0,

92,96,0,111,71,0,

91,140,0,110,71,0,

91,166,0,110,71,0,

90,164,0,109,71,0,

90,163,0,108,71,0,

89,162,0,108,71,0,

89,161,0,108,70,0,

89,160,0,107,70,0,

89,159,0,107,70,0,

88,159,0,106,69,0,

88,158,0,105,69,0,

87,157,0,105,69,0,

87,156,0,105,68,0,

86,155,0,103,68,0,

86,155,0,103,67,0,

86,154,0,103,67,0,

85,153,0,103,67,0,

85,153,0,102,67,0,

85,152,0,102,67,0,

84,151,0,101,67,0,

84,150,0,101,66,0,

83,150,0,100,66,0,

83,149,0,99,66,0,

83,147,0,99,65,0,

83,147,0,99,65,0,

82,147,0,98,65,0,

82,146,0,98,64,0,

82,145,0,98,64,0,

82,145,0,97,63,0,

81,144,0,97,63,0,

81,143,0,96,63,0,

81,142,0,96,63,0,

80,142,0,96,63,0,

80,141,0,95,62,0,

79,141,0,95,62,0,

79,140,0,94,62,0,

79,139,0,94,62,0,

79,139,0,94,61,0,

78,138,0,93,61,0,

78,137,0,93,61,0,

78,137,0,92,60,0,

77,135,0,92,60,0,

77,135,0,91,60,0,

77,135,0,91,60,0,

77,134,0,91,60,0,

76,134,0,90,60,0,

76,133,0,89,59,0,

76,132,0,89,59,0,

75,132,0,89,59,0,

76,131,0,88,58,0,

75,131,0,88,58,0,

75,130,0,88,58,0,

74,129,0,88,57,0,

74,129,0,88,57,0,

113,129,0,87,57,0,

137,127,0,86,57,0,

135,127,0,86,57,0,

135,127,0,85,56,0,

135,126,0,85,56,0,

134,125,0,85,56,0,

133,125,0,84,55,0,

132,124,0,83,55,0,

131,124,0,83,55,0,

131,123,0,83,55,0,

130,122,0,82,54,0,

130,122,0,82,54,0,

129,121,0,82,54,0,

128,121,0,81,54,0,

127,120,0,81,53,0,

127,120,0,81,53,0,

126,120,0,80,53,0,

126,118,0,80,53,0,

125,118,0,79,52,0,

124,118,0,79,52,0,

124,117,0,79,51,0,

124,117,0,79,51,0,

123,116,0,78,51,0,

122,115,0,78,51,0,

121,115,0,78,51,0,

121,114,0,77,51,0,

120,114,0,77,50,0,

120,113,0,76,50,0,

120,113,0,76,50,0,

119,117,0,76,50,1,

118,115,0,76,49,0,

117,115,0,75,50,0,

117,115,0,75,49,0,

116,114,0,78,49,0,

115,113,0,78,49,0,

115,113,0,78,48,0,

115,112,0,77,48,0,

115,112,0,77,48,0,

114,111,0,77,48,0,

113,110,0,76,47,0,

113,110,0,76,47,0,

112,110,0,75,47,0,

112,109,0,75,47,0,

111,109,0,75,47,0,

110,108,0,74,46,0,

110,108,0,74,46,0,

110,107,0,74,46,0,

110,107,0,73,46,0,

109,106,0,73,45,0,

109,105,0,71,46,0,

108,105,0,71,45,0,

108,103,0,71,45,0,

107,103,0,71,45,0,

107,103,0,71,44,0,

106,103,0,71,45,0,

106,103,0,71,45,0,

105,102,0,70,44,0,

105,102,0,70,44,0,

103,101,0,70,44,0,

103,101,0,69,44,0,

103,101,0,69,44,0,

103,100,0,69,44,0,

102,99,0,69,44,0,

102,99,0,68,43,0,

101,99,0,68,43,0,

101,98,0,67,43,0,

101,101,0,67,43,0,

99,100,0,67,42,0,

99,99,0,67,42,0,

99,99,0,67,42,0,

99,99,0,66,42,0,

98,98,0,66,41,0,

98,98,0,65,41,0,

98,98,0,65,41,0,

97,97,0,65,41,0,

96,97,0,65,41,0,

96,96,0,64,40,0,

96,96,0,64,39,0,

96,96,0,64,39,0,

95,95,0,63,40,0,

95,95,0,63,39,0,

94,95,0,63,39,0,

94,94,0,63,39,0,

94,94,0,63,39,0,

93,94,0,62,39,0,

93,93,0,62,39,0,

92,93,0,62,39,0,

92,93,0,61,39,0,

92,92,0,61,38,0,

91,92,0,61,39,0,

91,92,0,61,39,0,

91,91,0,61,38,0,

90,91,0,61,38,0,

90,90,0,60,38,0,

89,90,0,60,38,0,

89,89,0,60,38,0,

89,89,0,59,38,0,

88,89,0,59,37,0,

88,89,0,59,37,0,

88,89,0,59,37,0,

88,88,0,59,37,0,

87,88,0,59,37,0,

86,88,0,58,37,0,

86,88,0,58,36,0,

86,87,0,57,36,0,

85,87,0,57,36,0,

85,86,0,57,36,0,

85,86,0,57,36,0,

84,86,0,57,35,0,

84,85,0,56,35,0,

83,85,0,56,35,0,

83,84,0,56,35,0,

83,85,0,56,35,0,

83,84,0,56,35,0,

82,83,0,56,35,0,

82,83,0,56,35,0,

81,83,0,56,34,0,

81,83,0,55,34,0,

81,82,0,54,34,0,

80,82,0,55,34,0,

80,82,0,54,34,0,

79,81,0,54,34,0,

79,81,0,54,34,0,

79,81,0,53,53,0,

79,81,0,53,52,0,

78,80,0,53,52,0,

78,80,0,53,52,0,

78,79,0,53,51,0,

78,79,0,52,51,0,

77,79,0,52,51,0,

77,79,0,52,51,0,

77,79,0,52,51,0,

77,78,0,51,51,0,

76,78,0,52,50,0,

76,78,0,51,50,0,

76,78,0,51,49,0,

75,127,0,51,49,0,

88,126,0,51,49,0,

111,125,0,50,49,0,

110,124,1,50,49,0,

109,124,0,50,48,0,

109,123,0,50,48,0,

108,122,0,50,48,0,

108,121,0,49,47,0,

107,121,0,49,47,0,

107,121,0,49,47,0,

106,120,0,49,47,0,

105,119,0,48,46,0,

105,119,0,48,46,0,

103,118,0,48,46,0,

103,117,0,48,46,0,

103,117,0,48,45,0,

103,116,0,48,45,0,

102,115,0,47,45,0,

102,115,0,47,45,0,

101,114,0,47,44,0,

101,114,0,53,44,0,

100,113,0,71,44,0,

100,113,0,71,44,0,

99,112,0,71,44,0,

99,112,0,71,44,0,

98,111,0,70,43,0,

98,110,0,70,43,0,

97,110,0,70,43,0,

97,110,0,69,43,0,

97,109,0,69,42,0,

96,108,0,69,42,0,

96,108,0,68,41,0,

96,108,0,68,41,0,

95,107,0,67,41,0,

94,107,0,71,41,0,

94,106,0,70,41,0,

94,106,0,70,41,0,

93,105,0,69,41,0,

93,104,0,69,40,0,

92,103,0,69,39,0,

92,103,0,68,39,0,

91,103,0,68,39,0,

91,103,0,68,39,0,

91,103,0,67,39,0,

90,102,0,67,39,0,

89,101,0,67,39,0,

89,101,0,77,51,0,

89,100,0,103,51,0,

88,100,0,103,51,0,

88,99,0,103,51,0,

88,99,0,102,51,0,

88,99,0,101,50,0,

87,98,0,101,50,0,

86,98,0,100,50,0,

86,97,0,99,49,0,

86,97,0,99,49,0,

85,96,0,99,49,0,

85,96,0,99,49,0,

85,96,0,98,48,0,

84,95,0,98,48,0,

83,95,0,97,48,0,

83,94,0,97,48,0,

83,94,0,96,47,0,

83,93,0,96,47,0,

82,93,0,96,47,0,

82,93,0,95,47,0,

81,97,0,95,47,1,

81,96,0,94,46,0,

81,96,0,94,46,0,

80,95,0,93,46,0,

80,95,0,93,45,0,

79,94,0,93,45,0,

79,94,0,111,45,0,

79,93,0,110,45,0,

79,93,0,110,45,0,

78,93,0,109,44,0,

78,92,0,108,44,0,

79,91,0,108,44,0,

84,91,0,107,43,0,

84,91,0,106,44,0,

83,91,0,106,44,0,

83,90,0,105,43,0,

83,89,0,105,43,0,

82,89,0,105,43,0,

82,89,0,103,42,0,

81,89,0,103,42,0,

81,88,0,103,42,0,

80,88,0,103,42,0,

80,88,0,102,42,0,

79,87,0,102,41,0,

79,86,0,101,41,0,

79,86,1,101,41,0,

79,86,0,100,41,0,

78,85,0,99,40,0,

78,85,0,99,39,0,

78,84,0,99,39,0,

77,84,0,98,39,0,

77,84,0,98,39,0,

77,83,0,97,39,0,

126,83,0,97,48,0,

131,83,0,96,48,0,

129,82,0,96,47,0,

129,82,0,96,47,0,

128,82,0,95,47,0,

127,82,0,95,47,0,

127,81,0,94,46,0,

126,80,0,94,46,0,

125,80,0,94,46,0,

125,79,0,93,46,0,

124,79,0,93,46,0,

124,79,0,92,45,0,

123,79,0,92,45,0,

123,79,0,91,45,0,

121,78,0,91,44,0,

121,78,0,91,44,0,

121,78,0,90,44,0,

120,78,0,90,44,0,

120,77,0,89,44,0,

119,77,0,89,43,0,

119,77,0,89,43,0,

118,76,0,88,43,0,

117,76,0,89,43,0,

117,76,0,89,43,0,

116,75,0,88,42,0,

115,75,0,88,42,0,

159,91,0,88,42,0,

159,120,0,87,53,0,

157,119,0,86,53,0,

156,118,0,86,53,0,

156,117,0,86,52,0,

155,117,0,85,52,0,

154,116,0,84,51,0,

153,115,0,85,51,0,

152,115,0,84,51,0,

152,115,0,83,51,0,

151,162,0,83,51,0,

150,162,0,83,51,0,

149,160,0,83,50,0,

149,159,0,82,50,0,

147,159,0,82,49,0,

147,158,0,81,49,0,

146,157,0,81,49,0,

145,156,0,81,49,0,

145,193,0,80,48,0,

143,192,0,79,48,0,

143,191,0,79,48,0,

142,190,0,79,48,0,

142,189,0,79,47,0,

141,187,0,78,47,0,

141,187,0,78,47,0,

140,186,0,78,47,0,

139,185,0,77,46,0,

139,184,0,77,46,0,

138,183,0,77,46,0,

137,182,0,76,45,0,

137,181,0,76,45,0,

135,180,0,75,45,0,

135,179,0,75,45,0,

135,178,0,75,45,0,

134,177,0,75,44,0,

133,176,0,74,44,0,

133,176,0,74,44,0,

132,175,0,73,44,0,

131,174,0,73,44,0,

131,172,0,73,43,0,

130,172,0,71,43,0,

130,171,0,71,43,0,

129,171,0,71,43,0,

128,170,0,71,42,0,

127,169,0,71,42,0,

127,167,0,71,41,0,

126,167,0,70,41,0,

126,166,0,70,41,0,

125,165,0,70,41,0,

124,164,0,70,41,0,

124,164,0,69,41,0,

124,163,0,69,39,0,

123,163,0,68,39,0,

122,161,0,68,39,0,

122,161,0,67,39,0,

121,159,0,67,39,0,

121,159,0,67,39,0,

120,159,0,67,39,0,

120,158,0,67,39,0,

120,157,0,66,46,0,

140,156,0,66,73,1,

139,156,0,66,71,0,

139,155,0,65,71,0,

137,154,0,65,71,0,

137,153,0,65,71,0,

135,152,0,65,71,0,

135,152,0,64,70,0,

135,151,0,63,69,0,

135,150,0,63,69,1,

133,150,0,63,69,0,

