
21,15,1,49,22,0,
22,15,1,49,23,0,
21,14,1,49,22,1,
21,15,1,48,22,1,
21,14,1,48,22,1,
21,14,1,48,22,1,
21,14,1,48,22,1,
21,14,1,48,21,1,
21,14,1,47,21,1,
20,14,1,47,21,0,
20,14,1,47,21,1,
20,14,1,46,21,1,
20,13,1,46,21,0,
20,14,1,46,20,1,
19,22,1,45,20,1,
19,24,1,46,20,1,
19,24,0,45,20,1,
19,23,1,45,20,1,
19,23,1,45,20,0,
19,23,1,45,20,1,
19,23,1,44,19,1,
19,23,0,45,20,1,
19,22,1,44,19,1,
19,22,1,44,19,1,
19,22,1,44,19,1,
23,22,1,44,19,1,
22,22,0,43,19,1,
22,22,0,43,19,1,
22,22,1,43,19,1,
22,22,0,43,18,1,
21,21,1,42,18,1,
22,21,1,42,18,1,
21,21,1,42,18,0,
21,21,1,42,19,1,
21,21,1,42,18,1,
21,21,1,42,18,1,
21,21,1,41,18,0,
21,20,1,41,18,1,
20,20,1,41,18,0,
21,20,1,41,18,1,
21,20,1,41,18,1,
21,20,1,41,18,1,
21,19,1,39,17,0,
21,19,0,39,17,1,
20,19,1,39,18,1,
21,19,1,39,17,0,
20,19,0,39,17,1,
20,19,1,39,17,1,
20,19,1,39,17,1,
20,19,1,39,17,0,
19,19,1,39,17,0,
19,19,1,39,17,1,
19,19,1,39,17,1,
19,19,1,38,17,1,
19,22,1,38,17,1,
19,23,1,38,17,0,
19,22,1,38,17,1,
19,22,1,38,17,1,
19,22,1,37,16,1,
19,22,1,37,16,1,
19,21,1,38,16,0,
19,21,1,37,17,1,
19,21,1,37,16,1,
18,21,1,37,16,1,
19,21,0,37,35,1,
18,21,1,79,41,0,
18,21,1,78,41,1,
18,21,1,78,39,1,
18,20,1,78,39,1,
18,21,0,77,39,1,
18,20,1,77,39,1,
18,20,1,77,39,1,
18,20,1,76,39,1,
17,19,0,75,39,1,
18,19,1,76,39,1,
17,20,1,75,38,0,
17,19,1,75,39,1,
18,19,0,75,38,1,
18,19,1,74,38,0,
18,19,1,73,37,1,
18,19,1,73,37,1,
18,19,1,73,37,1,
17,19,1,71,37,1,
17,19,1,71,37,1,
17,19,1,71,37,1,
17,19,1,71,37,1,
17,19,1,71,36,1,
17,18,0,71,37,1,
17,19,1,71,36,1,
16,19,1,70,35,1,
17,18,1,70,35,0,
17,18,1,70,35,1,
18,18,1,69,35,1,
17,18,1,69,35,1,
17,18,1,69,35,0,
17,18,1,68,34,1,
17,18,1,68,34,1,
17,18,1,67,34,1,
17,18,1,67,34,1,
16,17,1,67,34,1,
17,18,1,67,34,0,
16,17,1,67,33,0,
17,17,1,67,33,1,
21,17,1,66,33,1,
22,17,1,66,33,1,
22,17,1,66,33,1,
21,17,1,65,33,1,
22,17,1,65,32,1,
21,17,1,64,32,0,
21,17,1,64,33,1,
21,16,1,65,32,1,
21,16,1,63,31,1,
21,16,1,63,31,1,
21,16,1,63,31,1,
20,16,0,63,31,1,
21,16,1,62,31,1,
21,16,1,62,31,1,
20,15,1,62,31,0,
20,15,1,62,31,1,
19,36,0,62,30,1,
19,35,1,61,30,0,
19,35,0,61,30,0,
19,35,1,61,30,1,
19,35,1,61,30,1,
19,35,1,60,29,0,
19,35,1,60,29,1,
19,34,0,60,30,1,
19,34,1,59,30,1,
19,34,1,59,29,1,
19,33,1,59,29,1,
19,33,1,71,31,1,
18,33,1,71,31,1,
19,33,1,71,31,1,
18,33,1,71,31,0,
18,33,1,70,31,1,
18,32,1,69,30,1,
18,33,1,69,30,1,
18,32,1,69,31,1,
18,31,1,68,30,0,
17,31,1,68,30,0,
17,31,1,68,30,1,
18,31,1,68,29,1,
19,31,1,67,30,1,
20,31,1,67,29,0,
20,31,1,67,29,1,
20,31,1,66,29,1,
19,31,1,67,29,1,
19,31,1,65,29,0,
19,30,1,65,29,1,
19,30,1,65,29,1,
19,30,1,65,28,1,
19,30,1,65,28,1,
19,30,1,64,28,1,
19,29,1,64,28,1,
18,29,1,63,28,1,
18,29,1,63,28,1,
19,29,1,63,28,1,
19,29,1,63,27,1,
19,29,1,63,27,1,
19,29,0,63,27,1,
18,28,1,62,27,1,
19,28,1,61,27,1,
18,28,1,62,27,1,
18,28,1,61,27,1,
18,28,1,61,26,1,
18,28,1,60,26,1,
18,28,1,60,25,1,
18,27,1,61,26,1,
18,28,1,60,25,1,
19,27,1,60,25,1,
18,27,0,60,25,1,
18,27,1,59,25,1,
18,27,1,59,25,1,
18,27,1,59,25,1,
18,26,1,58,25,1,
18,26,0,57,24,1,
18,26,1,57,25,1,
17,26,1,57,24,1,
17,25,1,57,24,1,
17,25,1,57,24,1,
17,26,1,57,24,1,
17,25,1,57,24,1,
17,25,1,56,24,1,
17,25,1,56,24,1,
17,25,1,56,24,1,
16,25,1,56,24,1,
16,25,1,56,24,1,
17,25,1,55,23,0,
16,24,1,55,23,1,
16,24,1,54,23,1,
16,24,1,54,23,1,
15,25,1,54,23,0,
16,24,1,54,22,0,
15,24,1,53,23,1,
16,24,1,53,22,1,
16,24,1,53,23,1,
17,24,1,54,22,0,
16,24,1,54,22,1,
16,24,1,53,22,1,
16,24,1,53,22,1,
16,24,0,53,22,1,
16,23,1,52,22,1,
15,23,1,52,22,1,
15,23,1,52,21,0,
16,23,1,51,22,1,
15,23,1,51,21,1,
15,22,1,51,21,0,
16,22,1,51,21,1,
19,22,1,51,21,1,
21,22,0,51,20,1,
21,24,1,50,21,1,
21,24,1,50,20,0,
20,24,1,49,20,1,
21,24,1,50,20,0,
20,24,1,49,19,1,
20,24,1,49,20,0,
20,24,1,49,20,1,
20,24,1,49,20,1,
19,23,1,48,20,1,
20,23,1,48,20,1,
22,23,1,51,20,1,
29,33,1,50,20,1,
33,44,1,50,19,1,
32,46,1,50,19,1,
32,47,1,50,19,1,
31,46,1,49,19,1,
31,46,1,49,19,1,
31,46,0,49,19,1,
31,46,1,48,18,1,
31,46,1,48,19,1,
31,45,1,48,19,1,
31,45,0,48,18,1,
31,45,1,48,19,1,
31,44,1,48,19,1,
30,45,1,47,18,1,
31,44,0,47,18,1,
31,44,1,47,18,0,
30,44,1,47,18,0,
30,44,1,47,18,1,
30,43,1,46,18,1,
30,43,1,46,17,0,
30,43,1,46,17,1,
30,42,1,45,17,1,
29,43,1,45,18,1,
29,42,1,45,24,1,
29,42,0,45,31,1,
29,42,1,45,31,1,
29,41,1,45,30,1,
29,41,1,44,30,0,
28,41,1,44,30,0,
28,41,1,44,30,0,
28,41,1,44,30,1,
28,41,1,44,30,1,
28,39,1,44,30,1,
28,39,1,43,30,1,
27,39,0,43,30,1,
28,39,1,43,29,1,
27,39,1,43,29,1,
27,39,1,42,29,1,
28,39,1,47,29,0,
27,39,0,47,28,1,
27,39,1,46,28,1,
27,39,0,46,28,1,
26,39,1,46,28,0,
26,39,1,46,28,1,
26,39,0,45,28,1,
26,39,1,45,27,0,
26,38,0,45,27,1,
25,38,1,45,27,1,
25,38,1,45,27,1,
25,38,1,45,27,0,
25,37,1,44,27,1,
25,37,0,44,27,1,
25,38,1,44,27,1,
42,37,1,44,27,1,
133,38,1,44,26,1,
131,39,1,43,26,1,
130,39,1,43,25,1,
129,39,1,43,26,1,
129,39,1,43,26,1,
127,39,1,43,25,1,
127,39,1,42,25,1,
126,38,0,42,25,1,
125,38,0,41,25,1,
125,38,1,41,25,1,
124,38,1,41,25,0,
124,37,1,41,25,1,
123,67,1,41,24,1,
122,71,1,39,24,1,
122,71,1,41,24,1,
121,71,0,39,24,1,
121,71,1,39,24,1,
120,71,1,39,24,1,
120,70,0,39,24,1,
119,70,1,39,24,1,
118,70,1,39,23,1,
118,69,1,39,23,1,
117,69,1,39,24,1,
117,68,1,39,23,1,
116,69,1,38,23,0,
115,70,1,38,23,0,
115,70,1,38,23,1,
115,69,1,38,22,1,
114,69,1,38,22,1,
114,68,1,38,22,1,
113,67,1,38,22,1,
112,67,0,37,21,1,
112,67,1,37,21,1,
111,67,1,37,21,0,
111,67,1,68,21,1,
111,66,1,70,21,0,
110,66,1,70,21,1,
109,83,1,69,21,1,
109,83,1,69,21,1,
108,82,1,68,21,1,
108,81,1,68,21,1,
107,81,1,68,20,1,
107,81,1,67,20,1,
107,80,1,67,20,1,
105,79,1,67,20,1,
105,79,1,66,20,1,
105,79,1,66,20,0,
103,78,1,66,19,1,
103,78,1,65,19,1,
103,78,1,65,19,1,
103,77,1,65,19,0,
103,77,1,65,20,1,
102,76,1,64,19,1,
102,76,1,63,19,1,
101,76,1,63,19,0,
101,75,1,63,19,1,
100,75,1,63,19,1,
99,75,1,62,19,1,
99,74,1,62,19,1,
99,75,1,62,18,1,
99,73,0,61,18,1,
98,73,0,61,18,1,
98,73,1,61,18,1,
97,71,1,61,18,1,
97,71,1,61,18,1,
96,71,1,61,18,1,
96,71,1,60,18,0,
96,71,1,60,19,1,
95,71,0,60,49,1,
95,71,1,59,49,1,
95,70,0,59,48,1,
94,70,1,59,48,0,
94,70,1,58,48,0,
93,69,1,58,47,1,
93,69,1,59,48,0,
93,69,0,57,47,1,
92,69,1,57,46,0,
92,68,1,57,46,1,
91,68,1,57,46,0,
91,67,1,57,46,1,
91,67,1,56,46,1,
90,67,1,56,45,1,
89,66,1,56,45,0,
89,66,1,56,45,1,
89,66,1,56,45,1,
89,66,1,56,44,0,
88,65,1,55,45,1,
88,65,0,55,44,1,
88,65,1,55,44,1,
88,65,1,54,44,1,
87,64,1,54,43,1,
86,64,0,54,43,1,
86,70,1,53,43,1,
86,70,1,53,43,1,
85,69,1,53,43,1,
85,69,1,53,42,1,
85,69,1,53,41,1,
85,69,1,53,42,1,
85,68,1,52,41,1,
85,68,1,52,41,1,
84,67,1,52,41,1,
84,67,1,52,41,1,
83,67,1,51,41,1,
83,68,1,51,41,1,
83,71,1,51,41,1,
83,70,1,51,39,1,
82,70,1,50,39,1,
82,70,1,50,39,0,
81,69,1,50,39,1,
81,69,1,50,39,0,
81,68,1,49,39,1,
81,89,1,49,39,1,
80,91,1,49,39,1,
80,90,1,63,39,1,
83,90,1,63,39,1,
134,89,1,62,38,1,
133,115,0,62,38,1,
132,113,1,61,38,1,
131,113,1,61,38,1,
131,112,1,61,37,1,
131,112,1,61,37,1,
129,111,1,61,37,1,
129,110,1,60,37,1,
128,125,1,60,37,1,
135,201,1,59,36,1,
135,199,0,59,36,1,
135,197,1,59,36,1,
134,197,1,59,36,1,
133,195,1,59,35,1,
132,194,1,58,36,1,
131,193,1,57,35,1,
131,192,1,57,35,1,
131,191,1,57,79,1,
130,190,1,57,79,1,
129,189,1,56,79,1,
127,188,1,56,78,0,
127,187,1,56,78,1,
126,186,1,56,77,1,
126,185,1,55,77,1,
149,184,1,55,77,1,
147,183,1,54,76,1,
147,182,1,55,76,1,
146,181,1,54,76,1,
145,180,1,54,75,1,
145,179,1,53,74,1,
143,178,1,53,74,1,
143,177,1,53,74,1,
143,177,1,53,73,1,
141,176,0,52,73,1,
141,175,1,52,73,1,
140,174,1,52,71,0,
140,174,1,51,71,1,
139,173,1,51,71,1,
138,172,1,51,71,1,
137,171,0,51,71,0,
137,170,1,51,71,1,
135,169,1,50,70,1,
135,169,1,50,70,1,
135,167,0,50,69,1,
135,167,1,53,69,1,
139,173,1,61,69,1,
149,172,1,61,69,1,
148,171,1,60,68,1,
147,170,1,60,68,1,
146,169,1,59,67,1,
146,167,1,59,67,1,
145,167,0,59,66,1,
144,167,1,59,66,1,
143,167,1,59,66,0,
143,165,1,59,65,1,
142,165,1,58,65,1,
141,164,1,57,65,1,
140,163,1,57,64,1,
140,163,1,57,65,1,
139,162,1,57,63,0,
138,161,1,56,63,1,
138,159,1,56,63,1,
137,159,1,56,63,1,
137,158,1,56,63,1,
135,165,1,56,62,1,
135,163,0,55,62,1,
135,163,1,55,62,1,
145,162,1,54,61,1,
143,161,1,54,61,1,
143,160,1,54,61,1,
142,159,1,53,61,1,
141,159,1,53,60,1,
141,158,1,53,60,1,
140,157,1,53,60,1,
139,157,2,52,62,1,
138,156,1,52,62,2,
137,155,1,52,62,1,
137,154,1,51,61,1,
135,154,1,51,60,1,
135,153,1,51,60,1,
135,152,1,50,60,1,
135,152,1,50,60,1,
134,151,1,50,60,2,
133,150,1,50,59,1,
133,149,1,49,60,1,
132,149,1,49,60,1,
131,147,1,49,73,1,
130,147,1,49,73,2,
130,146,1,49,73,1,
129,146,1,49,71,2,
129,145,1,48,71,1,
127,145,1,48,71,1,
127,143,1,48,71,1,
127,143,1,47,71,1,
126,142,1,47,71,1,
125,142,1,47,69,1,
125,141,1,47,71,1,
124,141,1,46,179,1,
124,140,1,46,182,1,
123,140,1,46,181,1,
122,139,1,46,179,1,
122,138,1,45,179,1,
121,137,1,45,177,1,
158,148,1,46,177,1,
199,277,1,45,175,1,
197,317,1,44,174,1,
195,315,1,44,174,1,
194,312,1,44,172,1,
193,310,1,44,172,1,
192,308,1,43,171,1,
191,366,1,44,170,1,
190,425,1,43,169,1,
189,421,1,43,167,1,
188,419,1,43,167,1,
187,415,1,43,166,1,
186,413,1,43,166,1,
269,410,1,42,165,1,
300,408,1,42,163,1,
295,405,1,42,162,1,
295,402,1,41,162,1,
293,399,1,41,161,1,
291,397,1,41,160,1,
289,395,1,41,159,1,
287,391,1,41,159,1,
286,390,1,41,158,1,
284,387,1,43,157,1,
283,385,1,43,156,1,
281,384,1,43,155,1,
280,381,1,42,155,1,
278,378,1,42,154,1,
276,376,1,42,153,1,
275,374,1,41,152,1,
273,372,1,41,152,1,
271,369,1,41,151,1,
270,368,1,41,150,1,
269,366,1,40,149,1,
268,364,1,39,149,1,
266,361,1,39,147,1,
265,359,1,39,147,1,
263,358,1,39,146,1,
262,355,1,39,146,1,
260,353,1,39,145,1,
259,352,1,39,145,1,
258,350,1,39,143,1,
257,348,1,39,143,1,
267,346,1,38,142,1,
265,344,1,39,142,1,
263,343,1,82,141,1,
263,341,1,158,140,1,
261,339,1,155,140,1,
259,337,1,153,139,1,
257,335,1,153,138,1,
255,333,2,152,137,2,
255,332,1,151,137,2,
253,329,1,150,135,1,
252,327,2,149,135,2,
251,326,1,148,135,1,
249,323,1,147,135,2,
248,323,2,147,134,1,
247,319,2,146,133,2,
245,319,2,145,132,2,
244,317,2,143,131,2,
243,316,2,143,131,2,
242,313,2,143,130,2,
240,312,2,142,130,2,
239,310,2,141,129,2,
238,309,2,141,129,2,
236,307,3,140,127,3,
236,305,3,139,127,2,
266,304,2,138,127,3,
263,303,3,137,125,3,
262,300,2,136,125,2,
260,299,2,135,124,2,
259,297,3,135,124,3,
257,295,3,135,123,2,
255,294,2,134,123,3,
254,293,3,133,122,3,
253,291,3,133,121,3,
252,290,3,132,121,3,
250,287,3,131,120,3,
249,287,3,131,120,3,
248,285,3,130,119,3,
246,284,3,129,119,3,
244,282,3,128,118,3,
243,281,3,127,117,3,
241,280,3,127,117,3,
240,278,3,126,115,3,
239,277,3,126,115,3,
238,275,3,125,115,3,
237,274,3,125,114,3,
235,272,3,124,114,3,
235,271,3,124,114,3,
233,270,3,123,115,3,
273,268,3,122,114,3,
271,267,3,122,114,3,
269,266,3,121,113,3,
268,263,3,121,113,3,
265,263,3,120,112,3,
263,262,3,120,112,3,
263,261,3,119,111,3,
261,259,3,118,111,3,
259,258,3,118,112,3,
258,257,3,117,112,3,
256,255,3,116,110,3,
255,254,3,116,110,3,
253,253,3,115,109,3,
252,251,3,115,109,3,
251,251,3,114,108,3,
249,249,3,114,108,3,
248,248,3,113,108,3,
246,247,3,113,126,3,
245,246,3,112,126,3,
243,244,3,112,125,3,
243,243,3,110,124,3,
241,303,3,110,124,3,
240,300,2,110,123,3,
238,298,3,109,122,3,
237,295,3,109,121,3,
236,295,3,109,121,3,
235,292,3,108,120,3,
233,291,3,107,120,3,
251,289,3,106,119,3,
249,287,3,106,119,3,
248,286,3,105,117,2,
246,285,2,105,117,3,
245,283,3,103,115,2,
243,281,2,103,115,3,
242,280,3,103,115,3,
241,278,2,103,114,2,
239,276,2,103,114,3,
238,275,3,102,113,3,
237,273,3,102,112,2,
236,271,2,101,112,3,
234,270,3,100,112,3,
233,268,3,100,111,3,
231,267,3,99,110,3,
231,265,2,99,110,3,
229,263,3,99,109,2,
228,263,2,99,109,2,
227,262,2,98,108,3,
226,259,2,97,108,2,
224,259,2,97,107,2,
224,257,3,97,107,2,
222,255,2,96,106,2,
221,255,2,96,105,2,
220,253,3,95,105,2,
220,252,2,95,105,3,
240,251,2,94,103,2,
239,249,2,93,103,2,
237,248,3,94,103,2,
236,247,2,93,103,3,
235,246,2,92,102,2,
233,244,2,92,102,2,
231,243,2,92,101,2,
231,242,2,91,101,2,
230,241,2,133,100,2,
228,240,2,131,99,2,
227,248,2,131,99,2,
226,247,2,130,99,2,
224,246,2,129,99,2,
224,244,2,129,98,2,
222,243,2,127,97,2,
221,242,2,127,97,2,
220,241,2,127,101,2,
219,284,2,126,101,2,
217,283,2,125,101,2,
216,280,2,125,100,2,
216,280,2,124,99,2,
214,278,2,123,99,2,
213,275,2,123,98,2,
213,274,1,122,98,2,
211,272,2,121,97,2,
210,271,2,121,97,2,
209,270,2,120,96,2,
209,268,2,120,96,2,
207,267,2,119,95,2,
207,265,2,119,95,2,
206,263,2,118,95,2,
205,262,2,118,94,2,
204,261,2,116,94,2,
203,259,2,116,94,2,
201,258,2,115,92,2,
201,257,2,115,92,2,
199,255,2,114,92,2,
199,254,2,114,92,2,
198,253,2,113,91,2,
197,251,2,113,91,2,
196,250,2,112,90,2,
195,248,2,112,90,2,
194,248,1,111,90,2,
194,246,2,111,89,2,
193,245,2,110,89,2,
192,243,2,110,88,1,
191,242,2,109,88,2,
190,241,2,109,88,1,
189,239,1,108,87,2,
188,239,2,108,87,2,
188,237,1,107,86,1,
187,236,2,106,86,2,
186,235,2,106,86,2,
185,233,2,105,85,2,
184,233,1,105,85,2,
183,231,1,105,84,2,
182,231,1,103,83,1,
181,230,2,103,83,1,
180,229,1,103,83,2,
180,227,2,103,158,2,
179,226,1,102,204,2,
178,225,2,102,202,1,
177,224,1,101,199,1,
176,223,2,101,199,2,
251,223,1,99,198,2,
249,221,2,99,197,1,
248,220,2,99,196,1,
246,219,2,98,195,1,
244,218,1,98,194,1,
243,217,2,97,193,1,
241,216,1,97,192,1,
240,216,1,96,191,1,
239,214,1,97,190,1,
237,214,2,96,189,1,
236,212,1,96,188,2,
235,211,1,95,187,1,
233,210,1,94,185,1,
231,209,1,94,185,1,
231,209,1,94,184,2,
230,207,1,93,183,1,
229,206,1,93,183,2,
227,206,2,92,181,2,
227,205,1,92,180,2,
225,204,2,92,179,1,
224,209,1,91,179,2,
223,216,1,90,177,1,
222,214,2,90,177,2,
221,212,1,89,176,1,
220,211,1,91,175,1,
219,210,1,91,174,1,
217,209,2,90,173,1,
216,208,1,90,172,1,
216,207,1,89,171,1,
214,206,1,89,170,2,
213,205,1,88,169,1,
211,204,1,88,169,1,
211,203,1,88,167,1,
210,201,1,88,167,1,
209,201,1,87,167,1,
207,199,1,87,165,1,
207,199,2,86,165,1,
205,198,1,86,163,1,
205,197,1,85,163,2,
204,204,1,85,162,1,
203,214,2,85,161,1,
202,212,2,84,161,2,
199,211,2,83,159,2,
199,210,1,83,159,1,
199,208,1,83,158,1,
198,207,1,83,157,1,
197,207,1,82,157,1,
195,205,2,82,167,1,
195,205,1,81,167,1,
194,203,1,81,166,1,
193,224,1,81,166,1,
214,324,1,80,164,1,
213,322,1,80,163,1,
211,319,1,79,163,1,
210,318,1,79,162,1,
209,316,1,79,161,1,
207,314,1,79,159,1,
207,312,2,87,194,1,
206,311,2,86,193,1,
204,308,2,85,192,1,
204,307,2,85,191,1,
202,305,1,85,190,1,
201,303,1,84,188,1,
199,302,1,83,188,1,
199,300,1,83,187,1,
198,298,1,83,185,2,
197,297,1,82,185,1,
196,295,1,82,184,1,
195,293,1,82,183,1,
194,291,1,81,182,1,
193,290,1,81,181,1,
192,287,1,80,179,1,
192,287,1,79,179,1,
191,286,1,79,178,1,
229,284,1,79,177,1,
244,283,1,78,176,1,
242,281,1,78,175,1,
241,280,1,78,175,1,
240,278,1,77,173,1,
238,276,2,77,173,1,
237,275,1,77,172,1,
236,273,1,77,171,1,
234,272,1,76,170,1,
233,271,1,76,169,1,
231,270,1,76,167,1,
231,268,1,75,167,1,
230,267,1,75,167,1,
228,265,1,75,166,1,
227,263,1,74,165,1,
226,263,1,74,164,1,
225,261,1,73,163,1,
224,259,1,73,162,1,
222,258,1,73,162,1,
221,257,1,72,160,1,
220,255,1,71,159,1,
219,254,1,71,159,1,
218,253,1,71,161,1,
217,252,1,71,159,1,
216,251,1,71,159,1,
214,249,1,71,159,1,
213,248,1,70,158,1,
212,247,1,70,157,1,
211,246,1,70,156,1,
210,244,1,69,155,1,
209,243,1,69,155,1,
207,242,1,69,154,1,
207,241,1,68,153,1,
206,289,1,68,152,1,
205,287,1,68,152,1,
204,286,1,67,152,1,
203,284,1,67,150,2,
202,282,1,67,149,1,
201,281,1,66,148,1,
199,279,1,66,148,2,
199,278,1,66,147,1,
198,275,1,66,147,1,
197,275,0,65,146,1,
196,273,1,65,145,1,
195,271,1,65,145,1,
194,270,1,64,143,1,
193,268,1,64,143,1,
192,267,1,63,142,1,
192,307,1,63,142,1,
190,345,1,63,141,1,
189,342,1,67,141,1,
188,339,1,66,140,1,
188,337,1,65,139,1,
187,335,1,65,139,1,
186,334,1,65,138,1,
185,332,1,64,137,1,
185,329,1,64,136,1,
184,327,1,63,135,1,
183,326,1,63,135,1,
182,323,1,63,135,1,
181,322,1,67,143,1,
180,321,1,67,143,1,
179,318,1,67,141,1,
178,316,1,67,141,1,
177,315,1,66,140,1,
177,313,1,66,140,1,
176,312,1,65,139,1,
176,310,1,65,138,1,
175,307,1,65,137,1,
175,306,1,64,136,1,
174,305,1,64,135,1,
173,303,1,63,135,1,
172,302,1,63,134,1,
171,300,1,63,134,1,
170,298,1,63,133,1,
169,295,1,63,133,1,
169,295,1,63,132,1,
169,293,1,62,131,1,
167,291,1,62,131,0,
167,290,1,61,130,1,
167,287,1,61,129,1,
166,287,1,61,129,1,
165,286,1,61,128,1,
164,284,1,60,127,1,
163,283,1,60,127,1,
163,281,1,60,127,1,
162,280,1,59,126,1,
162,278,1,59,167,1,
161,277,1,59,260,1,
159,275,0,58,281,1,
159,274,0,58,280,1,
158,273,1,58,277,1,
158,271,1,57,275,1,
157,270,1,58,273,1,
156,269,1,57,271,1,
156,268,1,57,271,1,
155,265,1,57,269,2,
154,263,1,56,267,0,
154,263,1,56,266,1,
153,292,1,56,263,1,
152,290,0,56,263,1,
152,289,1,56,261,0,
151,287,0,56,259,1,
150,286,1,54,259,1,
150,284,1,55,257,1,
205,282,1,56,255,1,
204,280,1,55,254,1,
203,291,1,55,253,0,
206,336,1,54,252,1,
204,334,1,54,250,1,
203,332,1,54,249,1,
202,330,0,54,248,1,
201,327,1,54,246,1,
203,326,1,53,245,1,
202,324,1,53,243,1,
199,322,1,53,243,1,
199,320,1,54,241,1,
198,319,1,54,240,1,
268,317,1,54,239,1,
266,315,1,54,238,1,
263,313,1,54,236,1,
263,312,1,53,236,1,
261,310,1,53,234,1,
259,307,1,53,233,1,
258,306,1,53,231,1,
256,304,1,52,231,1,
255,303,1,52,230,1,
254,301,1,53,228,1,
253,323,0,57,227,1,
251,321,1,56,227,1,
250,319,1,56,225,1,
249,317,1,56,224,1,
248,315,1,55,223,1,
246,313,1,55,221,1,
245,312,1,55,221,1,
243,310,1,54,220,1,
270,307,1,54,218,1,
269,306,0,53,217,1,
267,304,1,54,216,1,
265,304,1,81,216,1,
317,301,1,79,214,1,
314,300,1,79,213,1,
312,298,1,79,212,1,
310,295,1,78,211,1,
308,295,1,78,210,1,
306,293,1,78,209,1,
304,292,1,77,208,1,
303,290,1,77,207,1,
301,298,1,77,206,1,
299,379,1,76,206,1,
298,375,1,100,204,1,
295,371,1,99,203,1,
294,370,1,99,202,1,
293,367,1,98,201,1,
291,365,1,98,199,1,
289,363,1,97,199,1,
288,371,1,96,199,1,
287,431,1,96,197,1,
285,427,1,96,197,1,
283,423,1,95,196,1,
281,421,1,95,195,1,
280,419,1,94,194,1,
279,415,1,94,193,1,
278,413,2,93,192,1,
275,411,1,92,191,1,
275,408,1,92,190,1,
273,406,1,92,190,1,
271,403,1,91,188,1,
270,399,1,91,188,1,
269,398,1,90,187,1,
268,396,1,89,185,1,
265,393,1,89,185,1,
265,391,1,89,184,1,
263,388,1,88,184,1,
262,386,1,88,183,2,
261,384,1,87,182,1,
259,382,1,87,182,1,
258,380,1,86,180,1,
257,377,2,86,179,1,
255,375,1,86,178,1,
254,372,1,85,177,1,
252,371,1,85,177,1,
251,369,2,84,176,1,
250,367,2,84,175,1,
249,365,1,83,174,1,
335,363,1,83,174,1,
336,359,1,83,173,1,
334,359,1,82,172,1,
332,357,1,82,182,1,
329,355,1,82,181,2,
327,353,1,81,180,1,
326,351,1,81,179,1,
323,349,1,80,178,2,
321,347,1,79,177,2,
319,345,1,79,176,1,
318,344,1,79,176,1,
317,342,2,79,174,2,
315,339,2,79,173,1,
313,338,1,78,172,2,
311,335,2,78,172,2,
309,335,2,77,171,2,
307,332,2,77,170,2,
306,331,2,77,169,2,
304,329,2,77,167,1,
302,327,2,76,167,1,
301,326,2,76,167,1,
299,323,2,75,166,2,
298,323,2,75,166,2,
295,321,1,75,165,2,
295,318,1,74,163,2,
293,317,2,74,163,2,
291,316,1,73,162,1,
312,350,2,73,162,1,
310,350,2,71,161,2,
308,348,2,71,159,1,
306,345,2,71,159,2,
305,343,2,71,159,2,
303,342,1,71,158,2,
302,339,2,72,157,2,
300,337,2,71,157,3,
298,335,2,71,156,2,
295,347,2,71,155,2,
294,345,2,71,154,2,
293,343,2,70,153,2,
291,340,2,70,153,1,
290,338,1,70,152,1,
287,335,2,69,152,2,
287,334,2,69,152,1,
285,333,1,69,150,2,
284,331,2,69,150,1,
283,327,2,68,149,2,
281,327,2,71,148,1,
280,325,2,71,147,2,
278,323,1,71,147,2,
277,321,1,71,146,2,
275,319,1,71,146,1,
274,317,1,71,145,1,
271,316,2,70,144,1,
271,314,2,70,143,2,
269,313,2,69,143,2,
268,311,1,69,143,1,
267,310,2,68,142,1,
265,307,1,68,141,1,
263,306,1,67,141,1,
263,304,1,67,140,1,
262,303,1,67,139,1,
260,302,1,67,139,1,
259,300,1,66,138,1,
257,299,2,66,138,1,
315,297,2,66,137,1,
312,295,1,65,137,2,
310,294,1,65,135,1,
309,292,2,65,135,1,
307,291,1,65,135,1,
305,290,1,64,134,1,
303,287,2,63,133,1,
301,287,1,63,133,1,
300,286,1,63,132,1,
298,284,1,63,131,1,
295,285,1,62,131,2,
295,283,1,63,131,1,
293,282,1,62,130,1,
291,280,1,62,129,1,
290,280,1,70,129,1,
288,278,1,69,128,1,
287,275,1,68,127,1,
285,275,1,68,127,2,
284,273,1,68,127,1,
282,272,1,67,126,1,
281,271,1,67,125,1,
280,270,1,67,125,1,
278,268,1,66,124,2,
276,268,1,66,124,1,
275,266,1,66,123,1,
273,263,1,65,123,1,
271,263,1,65,122,1,
270,262,1,64,121,1,
269,260,1,64,121,1,
268,259,1,64,121,1,
266,259,1,63,120,1,
265,257,1,63,120,1,
263,255,1,63,120,1,
262,254,1,63,119,1,
261,253,1,62,118,1,
259,252,1,62,118,1,
258,251,1,61,117,1,
257,249,1,61,117,1,
255,248,1,61,116,1,
254,248,1,61,115,1,
253,246,1,61,115,1,
252,245,1,60,115,1,
250,244,1,59,114,1,
249,243,1,60,113,1,
248,241,1,60,113,2,
247,240,1,60,113,1,
246,239,1,60,112,1,
244,238,1,60,112,0,
243,237,1,59,112,1,
241,236,1,59,111,1,
241,235,1,58,110,1,
240,234,1,58,109,1,
238,233,1,58,109,1,
237,231,1,57,109,1,
236,230,1,57,109,1,
235,230,1,57,108,1,
234,228,1,57,108,1,
233,271,1,57,107,1,
231,268,1,56,107,1,
231,267,1,56,106,1,
230,266,1,56,105,1,
228,263,1,56,105,1,
227,262,1,56,105,1,
226,261,1,55,103,1,
225,259,1,55,103,1,
224,258,1,55,103,1,
223,257,1,54,103,1,
222,255,1,54,102,1,
221,254,1,54,102,1,
220,253,1,53,101,1,
219,251,1,53,101,1,
218,249,1,53,101,1,
217,248,1,52,100,1,
216,318,1,52,99,1,
215,314,1,52,99,1,
214,312,1,52,99,1,
213,311,1,52,99,1,
213,308,1,51,98,1,
211,307,1,51,98,1,
211,305,1,51,97,1,
209,304,1,51,97,1,
208,302,1,59,97,1,
207,300,1,59,96,1,
207,299,1,57,96,1,
206,297,1,57,96,1,
205,295,1,57,95,1,
204,294,1,57,94,0,
203,292,1,57,94,1,
202,291,1,56,94,1,
201,289,1,56,93,1,
201,287,1,56,93,1,
199,286,1,56,92,1,
199,285,1,56,93,1,
199,283,1,55,92,1,
197,282,1,55,92,1,
196,280,1,55,92,1,
195,280,1,54,91,1,
195,278,1,54,91,1,
194,276,1,53,90,1,
193,309,1,53,90,1,
192,307,1,53,89,1,
192,304,0,53,89,1,
190,303,1,52,88,1,
189,301,1,52,88,1,
189,300,1,51,88,1,
188,298,1,51,88,1,
187,295,1,51,87,1,
187,295,1,51,87,1,
185,293,1,51,86,1,
246,292,1,50,86,1,
254,289,1,50,86,1,
252,288,1,50,85,1,
251,287,1,50,118,1,
249,285,0,50,117,1,
248,283,1,49,116,1,
246,283,1,49,115,1,
245,280,1,49,115,1,
243,280,0,49,114,1,
242,278,1,48,113,1,
241,277,1,49,113,1,
240,275,1,48,112,1,
238,273,1,48,112,1,
237,271,1,48,111,1,
236,271,1,47,110,1,
235,269,0,48,110,1,
233,267,1,47,109,1,
231,266,1,47,109,1,
231,265,0,46,108,1,
230,263,1,46,108,1,
228,263,1,46,107,1,
227,261,1,46,107,1,
227,259,1,45,106,1,
225,258,1,45,105,1,
224,256,1,45,105,1,
223,255,1,45,103,1,
222,254,1,45,103,1,
221,253,1,45,103,1,
219,252,1,44,103,1,
218,250,1,44,102,1,
217,249,1,44,102,1,
216,248,1,44,101,1,
216,246,1,44,101,1,
214,245,1,43,100,1,
213,243,1,43,99,1,
211,243,1,43,99,1,
211,242,1,43,99,0,
210,240,1,43,98,1,
209,240,1,43,98,1,
238,238,1,42,97,1,
237,237,1,42,97,1,
235,236,1,42,97,0,
234,235,1,41,96,1,
233,234,1,42,96,1,
231,231,1,42,95,1,
231,231,1,41,95,1,
229,231,1,41,94,1,
228,229,1,41,93,1,
227,228,1,40,94,1,
226,227,1,39,93,1,
224,226,1,39,93,1,
224,225,1,39,92,1,
223,224,1,39,92,1,
222,224,1,71,91,1,
220,222,1,71,91,1,
300,222,1,71,90,1,
323,220,1,71,90,1,
321,220,1,71,89,1,
319,219,1,70,89,1,
317,217,1,70,88,1,
315,217,1,69,89,1,
313,216,1,69,88,1,
312,215,1,68,88,1,
310,214,1,68,87,1,
308,213,1,67,87,1,
307,212,1,67,86,1,
305,211,1,67,86,1,
304,210,1,67,86,1,
302,209,1,66,85,1,
300,208,1,66,84,1,
299,207,0,65,84,1,
297,206,1,65,84,1,
295,206,1,65,83,1,
294,205,1,65,83,1,
292,204,1,64,83,1,
291,203,1,63,82,1,
289,202,1,70,82,1,
288,201,1,71,82,1,
287,201,1,70,81,1,
285,199,1,70,81,1,
284,199,1,70,81,1,
282,199,1,69,80,1,
281,197,1,69,79,1,
280,197,1,68,79,1,
279,195,1,68,79,1,
277,195,0,68,79,1,
275,194,1,67,79,1,
274,193,0,67,79,1,
273,192,1,67,78,1,
271,192,1,67,78,1,
270,191,1,66,78,1,
269,190,1,66,78,1,
267,189,1,66,77,1,
266,189,1,65,77,1,
263,188,1,65,76,1,
263,187,1,65,76,1,
262,186,1,64,75,1,
261,185,1,64,75,1,
259,184,1,63,75,1,
259,184,1,79,115,1,
257,183,1,79,115,1,
255,182,1,78,114,1,
255,182,1,77,113,1,
253,180,1,77,112,1,
252,190,1,77,112,1,
251,253,1,76,111,0,
249,251,1,76,110,1,
248,249,1,75,110,1,
247,248,1,75,109,1,
246,247,1,74,109,1,
244,245,1,74,115,1,
243,281,1,73,114,1,
242,280,1,73,113,1,
241,278,1,74,113,1,
240,275,1,73,112,1,
238,274,1,73,112,1,
237,272,1,72,111,1,
236,271,1,72,111,1,
235,269,1,71,110,1,
234,268,1,71,109,1,
233,267,1,71,109,1,
231,265,0,71,108,0,
231,263,1,70,108,1,
229,263,1,70,107,1,
228,261,1,70,107,1,
227,259,1,69,106,1,
226,257,1,69,105,1,
225,257,1,68,105,1,
224,255,0,68,103,1,
223,254,1,67,103,1,
222,252,0,67,103,1,
221,251,1,67,105,1,
220,249,1,67,105,1,
219,248,1,67,103,1,
217,247,1,66,103,1,
217,246,1,66,103,1,
216,244,1,66,103,1,
215,243,1,65,102,1,
214,242,1,65,102,1,
213,241,1,64,101,1,
211,240,1,65,100,1,
211,239,1,63,100,1,
210,237,1,63,99,1,
209,236,1,63,99,0,
207,235,1,63,99,0,
207,233,1,63,99,1,
206,231,1,63,97,1,
205,231,0,62,97,1,
204,230,1,62,96,1,
203,229,1,61,96,1,
203,228,1,61,96,1,
201,227,1,61,96,0,
201,225,1,60,95,1,
199,224,0,60,94,1,
199,224,1,60,94,1,
198,223,1,60,94,1,
197,221,1,59,93,1,
197,220,1,59,92,1,
195,220,1,59,92,1,
195,218,1,59,92,1,
194,217,1,58,91,1,
193,216,1,58,91,1,
192,216,1,57,91,1,
192,215,1,57,90,1,
190,214,1,57,90,1,
189,212,1,57,89,1,
188,211,1,56,89,0,
188,210,1,57,88,1,
187,209,1,56,88,1,
186,209,1,56,88,1,
185,207,1,56,87,1,
185,207,1,55,87,1,
184,205,0,55,86,1,
184,204,0,55,86,1,
183,204,0,54,101,1,
181,203,1,54,100,1,
181,201,1,54,100,1,
179,199,1,54,99,0,
179,199,1,54,99,1,
179,199,1,53,98,1,
177,198,1,53,98,1,
177,197,1,53,97,1,
176,196,0,52,97,1,
176,195,1,52,97,1,
175,195,1,51,96,1,
174,194,1,51,96,1,
173,192,1,51,95,1,
172,192,1,51,94,1,
172,191,1,51,94,1,
171,190,1,51,94,1,
170,189,1,50,93,1,
170,188,1,50,93,1,
169,188,1,50,92,1,
167,187,1,50,92,1,
167,186,0,49,92,1,
167,185,1,49,91,1,
166,184,1,48,90,1,
165,184,1,49,90,1,
164,183,1,48,89,1,
163,182,1,48,89,1,
163,181,1,48,89,1,
163,180,1,48,89,1,
162,179,1,47,88,1,
161,179,1,47,88,1,
160,228,1,47,87,1,
159,226,1,46,86,1,
159,225,1,46,86,0,
159,224,1,46,85,1,
158,222,1,46,85,1,
157,221,1,46,85,1,
157,220,1,46,84,1,
156,219,1,45,84,1,
155,217,1,45,83,1,
155,216,1,45,83,0,
153,216,1,45,83,0,
153,214,1,59,82,1,
153,214,0,58,82,1,
152,212,1,60,81,1,
177,211,0,60,81,1,
178,210,0,59,81,1,
177,209,0,59,80,1,
176,207,1,59,79,1,
175,207,0,59,79,1,
174,206,1,58,79,1,
174,205,1,58,79,1,
172,204,1,58,78,0,
172,203,1,57,78,1,
171,202,1,79,78,1,
170,201,1,79,78,1,
169,199,1,79,77,1,
167,199,1,78,77,1,
167,198,1,78,76,1,
167,197,1,78,76,1,
166,196,1,77,76,1,
165,195,1,77,76,0,
164,194,0,76,75,1,
163,193,1,76,75,1,
163,193,1,75,74,1,
162,191,0,75,74,1,
161,190,0,75,73,1,
160,190,0,75,73,0,
159,189,0,74,73,1,
159,188,1,73,73,1,
158,187,1,73,71,1,
157,186,1,73,71,1,
156,185,1,73,71,1,
191,184,1,71,71,1,
189,184,1,71,71,1,
188,183,1,71,108,1,
187,182,1,71,108,0,
185,180,1,71,107,1,
185,180,1,74,106,1,
184,179,1,86,105,1,
183,178,1,86,105,1,
182,177,0,85,103,1,
181,176,1,84,103,0,
181,176,0,84,103,0,
179,175,1,83,103,0,
178,174,1,83,102,0,
177,173,1,83,102,1,
177,173,0,82,101,1,
176,172,0,82,101,1,
179,171,1,81,100,1,
177,170,0,80,99,1,
177,169,0,80,99,1,
176,169,1,79,98,1,
175,167,1,79,98,1,
174,167,1,79,98,1,
173,167,0,79,97,1,
172,166,1,78,96,1,
171,166,1,78,96,1,
170,165,1,78,96,0,
170,164,1,77,95,1,
185,163,0,92,95,1,
268,163,1,91,94,1,
266,162,1,91,94,1,
263,161,1,90,93,1,
263,161,1,89,93,1,
261,160,0,89,92,1,
259,159,1,89,92,1,
258,159,1,88,91,1,
257,158,1,88,91,1,
255,158,1,88,91,1,
254,157,1,87,90,1,
252,157,1,87,90,1,
251,156,0,86,89,1,
250,155,1,85,89,1,
249,155,1,85,89,1,
248,153,1,85,88,1,
246,153,0,84,88,1,
245,153,1,83,87,1,
243,152,1,83,87,1,
243,152,1,82,86,1,
241,151,1,82,86,0,
240,150,1,82,85,1,
239,150,0,81,85,1,
238,148,1,81,85,1,
236,148,1,81,84,1,
235,147,1,80,83,1,
234,147,1,80,83,1,
233,147,0,79,83,1,
231,146,1,79,83,0,
230,145,0,79,82,1,
229,144,1,78,82,1,
228,183,1,78,81,1,
227,182,1,78,81,1,
226,181,1,77,80,1,
225,179,1,77,80,0,
224,179,1,76,80,1,
223,177,0,77,79,1,
222,177,0,76,79,1,
221,176,1,76,79,1,
220,175,0,76,78,1,
219,174,1,75,78,1,
217,173,0,75,77,1,
217,173,0,74,77,1,
216,171,1,74,77,1,
215,171,1,73,76,1,
214,169,1,73,76,0,
212,169,1,71,75,1,
211,167,1,81,75,0,
211,167,1,83,75,1,
209,167,1,83,75,1,
208,165,1,82,75,1,
207,187,1,83,74,1,
207,201,1,82,73,1,
206,199,1,81,73,1,
204,199,1,81,73,1,
204,197,1,80,71,0,
203,196,1,79,72,1,
201,195,1,80,71,1,
201,194,1,79,71,1,
206,194,1,79,71,1,
205,192,1,79,71,1,
204,192,1,78,71,1,
203,190,1,78,70,1,
201,190,0,78,70,0,
201,189,1,77,70,1,
199,188,1,77,70,1,
199,187,1,76,69,1,
198,185,1,76,69,1,
197,185,1,76,68,1,
196,184,0,75,68,1,
195,183,1,75,68,1,
194,182,1,74,68,0,
194,181,1,74,67,1,
193,181,1,74,67,0,
192,179,1,73,67,1,
192,179,1,73,67,1,
190,177,1,73,66,1,
189,177,0,71,66,1,
188,176,1,71,66,1,
188,175,1,71,65,1,
187,174,1,71,66,1,
185,173,0,71,65,1,
185,173,1,71,64,1,
184,172,1,70,65,1,
184,171,1,70,63,1,
183,171,1,69,63,1,
182,170,1,69,63,1,
181,169,1,69,63,1,
180,167,1,69,63,1,
179,167,1,68,63,1,
179,167,1,68,63,1,
178,166,1,68,62,1,
177,248,1,67,62,1,
176,274,1,67,62,1,
176,271,1,67,62,1,
175,271,1,67,62,1,
174,268,1,66,61,1,
173,267,1,66,61,1,
172,265,1,66,60,1,
172,263,1,65,61,1,
171,263,1,65,60,1,
171,261,1,65,60,1,
169,259,0,65,60,1,
169,258,1,63,59,1,
167,257,1,63,59,0,
167,255,1,63,91,1,
167,254,1,63,91,1,
166,253,1,62,90,1,
165,252,1,62,89,1,
164,251,1,62,89,1,
163,249,1,62,89,1,
163,248,1,62,88,1,
162,246,1,62,88,1,
161,245,1,61,87,1,
161,243,1,61,87,1,
160,243,1,61,86,1,
159,242,0,61,86,1,
187,240,0,60,86,1,
195,239,1,60,84,1,
194,238,1,59,84,1,
192,237,1,59,83,1,
192,236,0,59,83,0,
190,234,1,59,83,1,
189,331,1,57,83,1,
188,329,1,58,82,0,
187,327,1,57,81,0,
186,324,0,57,81,1,
185,322,1,57,81,1,
184,321,1,56,80,1,
187,318,1,57,80,1,
186,317,1,56,79,0,
185,316,0,76,79,1,
184,313,1,77,79,1,
184,312,1,76,79,1,
183,310,1,76,78,1,
182,308,1,75,78,1,
181,307,1,75,77,1,
179,305,1,75,77,1,
179,304,1,74,76,0,
178,302,1,74,76,1,
177,301,1,73,76,1,
176,299,0,73,76,1,
176,297,0,73,76,0,
175,295,0,73,74,1,
174,294,0,71,74,1,
173,293,1,71,74,1,
172,291,0,71,73,0,
184,290,0,71,73,1,
183,345,1,70,73,0,
182,403,1,71,73,1,
181,401,1,70,71,1,
180,398,1,70,71,1,
179,396,1,120,126,1,
178,391,1,120,124,1,
177,390,1,119,123,1,
176,387,1,118,123,1,
175,385,1,118,121,0,
174,383,0,116,121,1,
173,380,1,116,120,1,
172,378,0,115,120,1,
172,376,1,115,119,1,
171,373,1,114,118,0,
170,370,1,113,118,1,
169,368,1,113,117,1,
167,366,1,112,116,1,
167,364,1,112,115,1,
166,361,1,111,115,1,
166,359,1,110,115,1,
164,357,1,110,113,1,
163,355,1,109,113,1,
176,353,1,109,112,1,
207,351,1,108,137,1,
206,349,1,108,135,1,
205,347,1,107,134,1,
204,345,1,106,134,1,
202,343,1,106,133,0,
201,341,1,105,131,1,
199,339,1,103,131,1,
199,337,1,103,131,1,
198,335,0,103,130,1,
197,333,1,103,130,1,
195,331,1,102,128,1,
195,329,1,102,127,1,
193,327,1,101,127,1,
192,326,1,101,127,1,
192,324,1,101,126,1,
190,322,1,100,131,1,
189,319,1,99,170,1,
211,319,1,99,169,1,
213,317,0,98,167,0,
211,316,1,98,167,1,
211,314,1,98,167,1,
209,312,1,97,166,1,
208,311,0,97,164,1,
207,309,1,96,163,1,
206,307,1,96,163,1,
205,306,1,96,161,1,
204,304,1,96,161,1,
203,303,1,94,159,1,
201,301,1,94,159,1,
201,300,1,93,158,1,
199,303,1,93,157,1,
199,302,1,93,157,0,
197,300,1,92,156,1,
196,297,1,92,155,0,
195,295,1,91,154,1,
195,294,1,91,153,1,
193,293,1,90,153,1,
193,291,1,89,152,1,
192,290,1,89,152,1,
190,288,1,89,150,1,
189,287,1,89,150,1,
188,286,1,88,149,1,
188,284,1,88,148,0,
187,283,1,88,147,1,
185,281,1,87,147,1,
185,280,0,86,146,1,
184,279,1,86,145,1,
183,278,1,85,144,1,
182,276,1,86,143,1,
181,275,1,93,143,1,
180,273,1,93,143,1,
179,271,1,93,142,1,
179,271,1,92,141,1,
177,270,1,92,140,1,
177,268,1,91,140,1,
176,267,1,91,139,1,
176,265,1,91,138,1,
174,263,1,89,137,1,
173,263,1,89,137,1,
173,262,1,89,136,1,
172,260,1,88,135,1,
171,259,1,88,135,1,
170,258,1,88,134,1,
169,257,1,87,134,1,
167,255,1,86,133,1,
179,254,1,86,133,1,
177,253,1,86,131,1,
177,251,1,85,131,1,
176,251,1,84,130,1,
175,249,1,85,130,0,
174,248,1,84,129,1,
173,247,1,83,128,1,
172,246,1,83,127,1,
171,244,1,83,127,1,
170,243,1,82,127,1,
169,242,1,82,126,1,
167,241,1,81,126,1,
167,240,1,81,125,1,
167,239,1,81,124,1,
166,238,1,81,124,1,
165,236,1,79,123,1,
164,236,1,79,122,1,
163,235,1,79,122,1,
162,233,1,78,121,1,
162,231,1,78,120,1,
161,231,1,77,120,1,
160,230,1,78,120,1,
159,229,1,77,119,1,
159,227,1,77,118,1,
158,227,1,77,118,1,
157,226,1,76,118,1,
157,225,1,76,117,1,
156,224,1,76,116,1,
155,222,1,75,115,1,
155,221,1,74,115,1,
154,220,1,74,115,1,
153,258,1,74,114,1,
153,256,1,73,114,1,
152,255,1,74,113,1,
151,254,1,73,112,1,
151,252,1,71,112,1,
150,250,1,71,111,1,
149,249,1,71,111,1,
156,281,1,71,110,1,
277,337,1,71,110,0,
303,334,0,71,109,1,
300,332,1,71,109,1,
298,330,1,70,108,1,
297,327,1,70,108,1,
295,326,1,69,108,1,
293,323,1,69,107,1,
291,322,1,69,106,1,
290,319,1,68,106,1,
287,318,1,68,105,1,
286,317,1,67,105,1,
284,315,1,67,103,1,
283,313,1,67,103,1,
281,312,1,67,103,1,
280,309,1,67,103,1,
278,307,1,66,102,1,
277,305,1,66,102,1,
275,304,1,65,101,1,
274,302,0,65,101,1,
273,301,1,65,100,1,
271,299,1,64,100,0,
270,297,1,64,99,1,
268,295,1,64,99,1,
267,295,1,63,98,1,
265,293,1,63,98,1,
263,291,1,63,97,1,
263,290,1,63,97,0,
261,289,0,62,97,0,
260,287,1,63,96,1,
259,285,0,62,96,0,
257,284,1,61,96,1,
256,283,1,61,95,1,
255,282,0,61,94,1,
254,280,1,61,94,1,
252,279,1,71,94,1,
251,277,1,71,93,1,
250,276,1,71,93,1,
249,275,1,71,92,1,
248,273,1,70,92,1,
247,271,0,70,92,1,
245,270,1,70,92,0,
244,269,0,69,91,1,
243,268,1,69,91,1,
242,266,1,68,90,1,
241,265,1,67,89,1,
239,263,1,68,89,1,
239,263,1,67,89,0,
237,261,1,67,89,1,
236,260,1,67,88,0,
235,259,1,67,88,1,
233,257,0,66,88,1,
231,257,1,66,87,1,
231,255,1,65,87,1,
231,254,1,65,86,1,
230,253,1,65,86,1,
229,252,1,64,85,0,
227,251,0,64,85,1,
227,249,1,63,85,1,
226,248,1,63,84,1,
225,247,1,63,84,0,
223,246,1,63,83,1,
222,245,0,62,83,0,
221,243,1,63,83,1,
220,242,1,62,82,1,
219,241,1,62,82,1,
218,240,1,61,82,1,
217,239,1,61,82,1,
216,238,1,60,81,1,
216,237,1,61,80,1,
215,236,1,60,80,1,
214,235,1,63,80,1,